# wavelength_A flux
5.000000e+02 1.231302e-32
5.010000e+02 1.562379e-32
5.020000e+02 1.980558e-32
5.030000e+02 2.508248e-32
5.040000e+02 3.173496e-32
5.050000e+02 4.013102e-32
5.060000e+02 5.067768e-32
5.070000e+02 6.393550e-32
5.080000e+02 8.058722e-32
5.090000e+02 1.014810e-31
5.100000e+02 1.276286e-31
5.110000e+02 1.604806e-31
5.120000e+02 2.015318e-31
5.130000e+02 2.528578e-31
5.140000e+02 3.169677e-31
5.150000e+02 3.969762e-31
5.160000e+02 4.967376e-31
5.170000e+02 6.210199e-31
5.180000e+02 7.757136e-31
5.190000e+02 9.680931e-31
5.200000e+02 1.207133e-30
5.210000e+02 1.503894e-30
5.220000e+02 1.871994e-30
5.230000e+02 2.328214e-30
5.240000e+02 2.893150e-30
5.250000e+02 3.592127e-30
5.260000e+02 4.456228e-30
5.270000e+02 5.523573e-30
5.280000e+02 6.840880e-30
5.290000e+02 8.465351e-30
5.300000e+02 1.046697e-29
5.310000e+02 1.293131e-29
5.320000e+02 1.596288e-29
5.330000e+02 1.968925e-29
5.340000e+02 2.426601e-29
5.350000e+02 2.988276e-29
5.360000e+02 3.677038e-29
5.370000e+02 4.520588e-29
5.380000e+02 5.554257e-29
5.390000e+02 6.818368e-29
5.400000e+02 8.363684e-29
5.410000e+02 1.025131e-28
5.420000e+02 1.255532e-28
5.430000e+02 1.536543e-28
5.440000e+02 1.879021e-28
5.450000e+02 2.296099e-28
5.460000e+02 2.803649e-28
5.470000e+02 3.420835e-28
5.480000e+02 4.170790e-28
5.490000e+02 5.081402e-28
5.500000e+02 6.186283e-28
5.510000e+02 7.525906e-28
5.520000e+02 9.148970e-28
5.530000e+02 1.111404e-27
5.540000e+02 1.349147e-27
5.550000e+02 1.636577e-27
5.560000e+02 1.983833e-27
5.570000e+02 2.403070e-27
5.580000e+02 2.908857e-27
5.590000e+02 3.518639e-27
5.600000e+02 4.253290e-27
5.610000e+02 5.137771e-27
5.620000e+02 6.201912e-27
5.630000e+02 7.481337e-27
5.640000e+02 9.018560e-27
5.650000e+02 1.086428e-26
5.660000e+02 1.307894e-26
5.670000e+02 1.573450e-26
5.680000e+02 1.891664e-26
5.690000e+02 2.272727e-26
5.700000e+02 2.728752e-26
5.710000e+02 3.274132e-26
5.720000e+02 3.925951e-26
5.730000e+02 4.704482e-26
5.740000e+02 5.633761e-26
5.750000e+02 6.742270e-26
5.760000e+02 8.063738e-26
5.770000e+02 9.638087e-26
5.780000e+02 1.151253e-25
5.790000e+02 1.374287e-25
5.800000e+02 1.639504e-25
5.810000e+02 1.954688e-25
5.820000e+02 2.329022e-25
5.830000e+02 2.773334e-25
5.840000e+02 3.300384e-25
5.850000e+02 3.925207e-25
5.860000e+02 4.665490e-25
5.870000e+02 5.542043e-25
5.880000e+02 6.579333e-25
5.890000e+02 7.806109e-25
5.900000e+02 9.256130e-25
5.910000e+02 1.096901e-24
5.920000e+02 1.299124e-24
5.930000e+02 1.537727e-24
5.940000e+02 1.819095e-24
5.950000e+02 2.150701e-24
5.960000e+02 2.541292e-24
5.970000e+02 3.001098e-24
5.980000e+02 3.542079e-24
5.990000e+02 4.178206e-24
6.000000e+02 4.925795e-24
6.010000e+02 5.803886e-24
6.020000e+02 6.834689e-24
6.030000e+02 8.044095e-24
6.040000e+02 9.462270e-24
6.050000e+02 1.112434e-23
6.060000e+02 1.307121e-23
6.070000e+02 1.535042e-23
6.080000e+02 1.801728e-23
6.090000e+02 2.113606e-23
6.100000e+02 2.478138e-23
6.110000e+02 2.903990e-23
6.120000e+02 3.401213e-23
6.130000e+02 3.981463e-23
6.140000e+02 4.658253e-23
6.150000e+02 5.447233e-23
6.160000e+02 6.366525e-23
6.170000e+02 7.437102e-23
6.180000e+02 8.683220e-23
6.190000e+02 1.013293e-22
6.200000e+02 1.181863e-22
6.210000e+02 1.377775e-22
6.220000e+02 1.605350e-22
6.230000e+02 1.869573e-22
6.240000e+02 2.176193e-22
6.250000e+02 2.531837e-22
6.260000e+02 2.944141e-22
6.270000e+02 3.421897e-22
6.280000e+02 3.975225e-22
6.290000e+02 4.615768e-22
6.300000e+02 5.356916e-22
6.310000e+02 6.214057e-22
6.320000e+02 7.204872e-22
6.330000e+02 8.349661e-22
6.340000e+02 9.671724e-22
6.350000e+02 1.119780e-21
6.360000e+02 1.295853e-21
6.370000e+02 1.498906e-21
6.380000e+02 1.732965e-21
6.390000e+02 2.002637e-21
6.400000e+02 2.313201e-21
6.410000e+02 2.670692e-21
6.420000e+02 3.082013e-21
6.430000e+02 3.555055e-21
6.440000e+02 4.098835e-21
6.450000e+02 4.723650e-21
6.460000e+02 5.441253e-21
6.470000e+02 6.265057e-21
6.480000e+02 7.210362e-21
6.490000e+02 8.294607e-21
6.500000e+02 9.537670e-21
6.510000e+02 1.096219e-20
6.520000e+02 1.259394e-20
6.530000e+02 1.446227e-20
6.540000e+02 1.660054e-20
6.550000e+02 1.904673e-20
6.560000e+02 2.184396e-20
6.570000e+02 2.504125e-20
6.580000e+02 2.869429e-20
6.590000e+02 3.286627e-20
6.600000e+02 3.762891e-20
6.610000e+02 4.306358e-20
6.620000e+02 4.926253e-20
6.630000e+02 5.633030e-20
6.640000e+02 6.438536e-20
6.650000e+02 7.356186e-20
6.660000e+02 8.401167e-20
6.670000e+02 9.590664e-20
6.680000e+02 1.094412e-19
6.690000e+02 1.248350e-19
6.700000e+02 1.423366e-19
6.710000e+02 1.622267e-19
6.720000e+02 1.848221e-19
6.730000e+02 2.104809e-19
6.740000e+02 2.396067e-19
6.750000e+02 2.726551e-19
6.760000e+02 3.101399e-19
6.770000e+02 3.526400e-19
6.780000e+02 4.008080e-19
6.790000e+02 4.553785e-19
6.800000e+02 5.171792e-19
6.810000e+02 5.871411e-19
6.820000e+02 6.663120e-19
6.830000e+02 7.558704e-19
6.840000e+02 8.571408e-19
6.850000e+02 9.716123e-19
6.860000e+02 1.100957e-18
6.870000e+02 1.247054e-18
6.880000e+02 1.412012e-18
6.890000e+02 1.598196e-18
6.900000e+02 1.808262e-18
6.910000e+02 2.045186e-18
6.920000e+02 2.312305e-18
6.930000e+02 2.613359e-18
6.940000e+02 2.952538e-18
6.950000e+02 3.334531e-18
6.960000e+02 3.764591e-18
6.970000e+02 4.248593e-18
6.980000e+02 4.793110e-18
6.990000e+02 5.405495e-18
7.000000e+02 6.093965e-18
7.010000e+02 6.867701e-18
7.020000e+02 7.736964e-18
7.030000e+02 8.713207e-18
7.040000e+02 9.809221e-18
7.050000e+02 1.103928e-17
7.060000e+02 1.241930e-17
7.070000e+02 1.396704e-17
7.080000e+02 1.570231e-17
7.090000e+02 1.764715e-17
7.100000e+02 1.982616e-17
7.110000e+02 2.226671e-17
7.120000e+02 2.499929e-17
7.130000e+02 2.805782e-17
7.140000e+02 3.148005e-17
7.150000e+02 3.530799e-17
7.160000e+02 3.958832e-17
7.170000e+02 4.437295e-17
7.180000e+02 4.971956e-17
7.190000e+02 5.569222e-17
7.200000e+02 6.236212e-17
7.210000e+02 6.980824e-17
7.220000e+02 7.811828e-17
7.230000e+02 8.738951e-17
7.240000e+02 9.772987e-17
7.250000e+02 1.092590e-16
7.260000e+02 1.221095e-16
7.270000e+02 1.364284e-16
7.280000e+02 1.523786e-16
7.290000e+02 1.701402e-16
7.300000e+02 1.899131e-16
7.310000e+02 2.119181e-16
7.320000e+02 2.363997e-16
7.330000e+02 2.636285e-16
7.340000e+02 2.939035e-16
7.350000e+02 3.275553e-16
7.360000e+02 3.649493e-16
7.370000e+02 4.064893e-16
7.380000e+02 4.526211e-16
7.390000e+02 5.038370e-16
7.400000e+02 5.606807e-16
7.410000e+02 6.237519e-16
7.420000e+02 6.937123e-16
7.430000e+02 7.712918e-16
7.440000e+02 8.572951e-16
7.450000e+02 9.526093e-16
7.460000e+02 1.058212e-15
7.470000e+02 1.175180e-15
7.480000e+02 1.304699e-15
7.490000e+02 1.448076e-15
7.500000e+02 1.606747e-15
7.510000e+02 1.782295e-15
7.520000e+02 1.976461e-15
7.530000e+02 2.191158e-15
7.540000e+02 2.428492e-15
7.550000e+02 2.690774e-15
7.560000e+02 2.980550e-15
7.570000e+02 3.300611e-15
7.580000e+02 3.654026e-15
7.590000e+02 4.044163e-15
7.600000e+02 4.474722e-15
7.610000e+02 4.949760e-15
7.620000e+02 5.473733e-15
7.630000e+02 6.051523e-15
7.640000e+02 6.688489e-15
7.650000e+02 7.390502e-15
7.660000e+02 8.164001e-15
7.670000e+02 9.016037e-15
7.680000e+02 9.954338e-15
7.690000e+02 1.098737e-14
7.700000e+02 1.212439e-14
7.710000e+02 1.337554e-14
7.720000e+02 1.475193e-14
7.730000e+02 1.626569e-14
7.740000e+02 1.793011e-14
7.750000e+02 1.975971e-14
7.760000e+02 2.177037e-14
7.770000e+02 2.397945e-14
7.780000e+02 2.640590e-14
7.790000e+02 2.907046e-14
7.800000e+02 3.199573e-14
7.810000e+02 3.520643e-14
7.820000e+02 3.872953e-14
7.830000e+02 4.259446e-14
7.840000e+02 4.683333e-14
7.850000e+02 5.148118e-14
7.860000e+02 5.657621e-14
7.870000e+02 6.216008e-14
7.880000e+02 6.827819e-14
7.890000e+02 7.498003e-14
7.900000e+02 8.231951e-14
7.910000e+02 9.035536e-14
7.920000e+02 9.915154e-14
7.930000e+02 1.087777e-13
7.940000e+02 1.193096e-13
7.950000e+02 1.308297e-13
7.960000e+02 1.434279e-13
7.970000e+02 1.572016e-13
7.980000e+02 1.722571e-13
7.990000e+02 1.887099e-13
8.000000e+02 2.066853e-13
8.010000e+02 2.263198e-13
8.020000e+02 2.477615e-13
8.030000e+02 2.711714e-13
8.040000e+02 2.967242e-13
8.050000e+02 3.246097e-13
8.060000e+02 3.550339e-13
8.070000e+02 3.882205e-13
8.080000e+02 4.244121e-13
8.090000e+02 4.638718e-13
8.100000e+02 5.068852e-13
8.110000e+02 5.537617e-13
8.120000e+02 6.048370e-13
8.130000e+02 6.604747e-13
8.140000e+02 7.210691e-13
8.150000e+02 7.870471e-13
8.160000e+02 8.588714e-13
8.170000e+02 9.370428e-13
8.180000e+02 1.022104e-12
8.190000e+02 1.114641e-12
8.200000e+02 1.215291e-12
8.210000e+02 1.324740e-12
8.220000e+02 1.443733e-12
8.230000e+02 1.573073e-12
8.240000e+02 1.713631e-12
8.250000e+02 1.866347e-12
8.260000e+02 2.032238e-12
8.270000e+02 2.212403e-12
8.280000e+02 2.408028e-12
8.290000e+02 2.620396e-12
8.300000e+02 2.850891e-12
8.310000e+02 3.101010e-12
8.320000e+02 3.372366e-12
8.330000e+02 3.666702e-12
8.340000e+02 3.985900e-12
8.350000e+02 4.331987e-12
8.360000e+02 4.707152e-12
8.370000e+02 5.113756e-12
8.380000e+02 5.554345e-12
8.390000e+02 6.031663e-12
8.400000e+02 6.548668e-12
8.410000e+02 7.108547e-12
8.420000e+02 7.714734e-12
8.430000e+02 8.370932e-12
8.440000e+02 9.081122e-12
8.450000e+02 9.849598e-12
8.460000e+02 1.068098e-11
8.470000e+02 1.158024e-11
8.480000e+02 1.255272e-11
8.490000e+02 1.360420e-11
8.500000e+02 1.474086e-11
8.510000e+02 1.596938e-11
8.520000e+02 1.729690e-11
8.530000e+02 1.873115e-11
8.540000e+02 2.028039e-11
8.550000e+02 2.195355e-11
8.560000e+02 2.376018e-11
8.570000e+02 2.571056e-11
8.580000e+02 2.781573e-11
8.590000e+02 3.008756e-11
8.600000e+02 3.253878e-11
8.610000e+02 3.518305e-11
8.620000e+02 3.803507e-11
8.630000e+02 4.111057e-11
8.640000e+02 4.442646e-11
8.650000e+02 4.800087e-11
8.660000e+02 5.185325e-11
8.670000e+02 5.600446e-11
8.680000e+02 6.047687e-11
8.690000e+02 6.529446e-11
8.700000e+02 7.048295e-11
8.710000e+02 7.606985e-11
8.720000e+02 8.208471e-11
8.730000e+02 8.855913e-11
8.740000e+02 9.552701e-11
8.750000e+02 1.030246e-10
8.760000e+02 1.110908e-10
8.770000e+02 1.197671e-10
8.780000e+02 1.290981e-10
8.790000e+02 1.391315e-10
8.800000e+02 1.499181e-10
8.810000e+02 1.615126e-10
8.820000e+02 1.739733e-10
8.830000e+02 1.873625e-10
8.840000e+02 2.017471e-10
8.850000e+02 2.171984e-10
8.860000e+02 2.337926e-10
8.870000e+02 2.516112e-10
8.880000e+02 2.707414e-10
8.890000e+02 2.912762e-10
8.900000e+02 3.133150e-10
8.910000e+02 3.369640e-10
8.920000e+02 3.623367e-10
8.930000e+02 3.895541e-10
8.940000e+02 4.187455e-10
8.950000e+02 4.500489e-10
8.960000e+02 4.836115e-10
8.970000e+02 5.195905e-10
8.980000e+02 5.581535e-10
8.990000e+02 5.994794e-10
9.000000e+02 6.437589e-10
9.010000e+02 6.911954e-10
9.020000e+02 7.420059e-10
9.030000e+02 7.964214e-10
9.040000e+02 8.546885e-10
9.050000e+02 9.170697e-10
9.060000e+02 9.838450e-10
9.070000e+02 1.055312e-09
9.080000e+02 1.131790e-09
9.090000e+02 1.213615e-09
9.100000e+02 1.301148e-09
9.110000e+02 1.394773e-09
9.120000e+02 1.494899e-09
9.130000e+02 1.601959e-09
9.140000e+02 1.728466e-09
9.150000e+02 3.973359e-07
9.160000e+02 2.559066e-06
9.170000e+02 9.649837e-08
9.180000e+02 5.125509e-07
9.190000e+02 7.272532e-06
9.200000e+02 2.065187e-05
9.210000e+02 2.770298e-09
9.220000e+02 1.156147e-05
9.230000e+02 8.700832e-08
9.240000e+02 1.691860e-07
9.250000e+02 1.888571e-06
9.260000e+02 7.379365e-07
9.270000e+02 1.474066e-07
9.280000e+02 1.215027e-04
9.290000e+02 1.198627e-04
9.300000e+02 2.544470e-05
9.310000e+02 1.554213e-07
9.320000e+02 9.441131e-05
9.330000e+02 1.408311e-05
9.340000e+02 3.404770e-06
9.350000e+02 2.280728e-07
9.360000e+02 4.764529e-07
9.370000e+02 5.785122e-08
9.380000e+02 1.632684e-07
9.390000e+02 1.425581e-06
9.400000e+02 1.167419e-04
9.410000e+02 1.164921e-05
9.420000e+02 3.975394e-04
9.430000e+02 2.302448e-06
9.440000e+02 4.492529e-04
9.450000e+02 4.195805e-04
9.460000e+02 4.623379e-05
9.470000e+02 5.315542e-08
9.480000e+02 1.245994e-04
9.490000e+02 1.265931e-05
9.500000e+02 2.376919e-07
9.510000e+02 2.752266e-05
9.520000e+02 7.832283e-05
9.530000e+02 4.761278e-07
9.540000e+02 5.936454e-08
9.550000e+02 5.788635e-06
9.560000e+02 5.866370e-04
9.570000e+02 2.550500e-06
9.580000e+02 3.464993e-08
9.590000e+02 3.342380e-04
9.600000e+02 5.168295e-07
9.610000e+02 6.698468e-05
9.620000e+02 2.158028e-05
9.630000e+02 3.240071e-06
9.640000e+02 6.178871e-07
9.650000e+02 1.827138e-07
9.660000e+02 6.220536e-06
9.670000e+02 9.944633e-07
9.680000e+02 6.640621e-07
9.690000e+02 4.149182e-05
9.700000e+02 5.114782e-05
9.710000e+02 1.507356e-06
9.720000e+02 5.485399e-07
9.730000e+02 2.640515e-06
9.740000e+02 3.950789e-05
9.750000e+02 1.309614e-05
9.760000e+02 4.999881e-04
9.770000e+02 2.701253e-04
9.780000e+02 9.859595e-05
9.790000e+02 2.198030e-03
9.800000e+02 2.166223e-03
9.810000e+02 6.065890e-05
9.820000e+02 9.681098e-06
9.830000e+02 1.872615e-03
9.840000e+02 6.246429e-05
9.850000e+02 2.552916e-05
9.860000e+02 4.149282e-05
9.870000e+02 2.131039e-03
9.880000e+02 5.813781e-07
9.890000e+02 3.668882e-04
9.900000e+02 9.075920e-04
9.910000e+02 9.843508e-06
9.920000e+02 2.554081e-07
9.930000e+02 4.325851e-03
9.940000e+02 4.201793e-07
9.950000e+02 1.725024e-04
9.960000e+02 2.456829e-06
9.970000e+02 1.572778e-04
9.980000e+02 1.353627e-03
9.990000e+02 1.697374e-05
1.000000e+03 7.247667e-03
1.001000e+03 6.131801e-03
1.002000e+03 5.592635e-03
1.003000e+03 1.785532e-05
1.004000e+03 9.816140e-07
1.005000e+03 7.086061e-05
1.006000e+03 4.460820e-03
1.007000e+03 6.938620e-03
1.008000e+03 2.381367e-03
1.009000e+03 2.716464e-05
1.010000e+03 2.452001e-03
1.011000e+03 3.569038e-03
1.012000e+03 3.332761e-03
1.013000e+03 3.067576e-03
1.014000e+03 8.831266e-07
1.015000e+03 1.842855e-06
1.016000e+03 8.743070e-05
1.017000e+03 9.955838e-07
1.018000e+03 2.706237e-05
1.019000e+03 1.749024e-06
1.020000e+03 4.765998e-03
1.021000e+03 5.259900e-05
1.022000e+03 7.787091e-05
1.023000e+03 4.275702e-06
1.024000e+03 4.244751e-04
1.025000e+03 1.529865e-06
1.026000e+03 2.350294e-06
1.027000e+03 1.422123e-04
1.028000e+03 1.362269e-05
1.029000e+03 1.935288e-06
1.030000e+03 3.589634e-04
1.031000e+03 7.834374e-04
1.032000e+03 1.018350e-02
1.033000e+03 1.373007e-04
1.034000e+03 1.044634e-03
1.035000e+03 8.784700e-06
1.036000e+03 2.976507e-06
1.037000e+03 1.068600e-02
1.038000e+03 5.928061e-02
1.039000e+03 1.173015e-02
1.040000e+03 1.114372e-02
1.041000e+03 7.198553e-02
1.042000e+03 4.356235e-02
1.043000e+03 4.039522e-02
1.044000e+03 1.353605e-01
1.045000e+03 8.334446e-06
1.046000e+03 1.060255e-02
1.047000e+03 3.019027e-03
1.048000e+03 4.795473e-05
1.049000e+03 3.001773e-03
1.050000e+03 7.086713e-04
1.051000e+03 3.589615e-04
1.052000e+03 5.609192e-02
1.053000e+03 1.064594e-01
1.054000e+03 7.215887e-06
1.055000e+03 1.222327e-01
1.056000e+03 1.370515e-01
1.057000e+03 9.781373e-03
1.058000e+03 3.606688e-04
1.059000e+03 2.536848e-04
1.060000e+03 7.277727e-05
1.061000e+03 1.939017e-02
1.062000e+03 1.870705e-04
1.063000e+03 8.145423e-03
1.064000e+03 1.826882e-05
1.065000e+03 1.256913e-05
1.066000e+03 2.797095e-02
1.067000e+03 2.476782e-04
1.068000e+03 2.900891e-01
1.069000e+03 5.694534e-05
1.070000e+03 3.945887e-03
1.071000e+03 1.033237e-01
1.072000e+03 2.778181e-01
1.073000e+03 2.080202e-05
1.074000e+03 1.059391e-02
1.075000e+03 5.623579e-03
1.076000e+03 2.975675e-01
1.077000e+03 2.060737e-04
1.078000e+03 5.071461e-04
1.079000e+03 2.638682e-03
1.080000e+03 1.220664e-02
1.081000e+03 7.756048e-02
1.082000e+03 3.847259e-02
1.083000e+03 1.810890e-02
1.084000e+03 6.329191e-01
1.085000e+03 3.625005e-03
1.086000e+03 4.972132e-01
1.087000e+03 6.543398e-04
1.088000e+03 7.414372e-01
1.089000e+03 7.747177e-01
1.090000e+03 2.812792e-03
1.091000e+03 4.365087e-03
1.092000e+03 6.880132e-01
1.093000e+03 8.272476e-01
1.094000e+03 4.822500e-02
1.095000e+03 1.004438e+00
1.096000e+03 4.373841e-02
1.097000e+03 2.929081e-01
1.098000e+03 9.577986e-01
1.099000e+03 1.129258e-02
1.100000e+03 1.698248e-04
1.101000e+03 5.081634e-04
1.102000e+03 7.337977e-03
1.103000e+03 1.081586e+00
1.104000e+03 1.300320e+00
1.105000e+03 1.245511e+00
1.106000e+03 4.254475e-02
1.107000e+03 3.134608e-04
1.108000e+03 3.751387e-01
1.109000e+03 4.028976e-03
1.110000e+03 1.511665e+00
1.111000e+03 9.802319e-01
1.112000e+03 1.495346e-01
1.113000e+03 1.116929e+00
1.114000e+03 7.706515e-02
1.115000e+03 4.891597e-03
1.116000e+03 1.770541e-03
1.117000e+03 1.165212e+00
1.118000e+03 6.898433e-03
1.119000e+03 1.702871e-01
1.120000e+03 2.642453e-03
1.121000e+03 8.442037e-01
1.122000e+03 2.514508e+00
1.123000e+03 1.762753e+00
1.124000e+03 2.099354e+00
1.125000e+03 9.778806e-01
1.126000e+03 3.576144e+00
1.127000e+03 1.243714e+00
1.128000e+03 1.945997e+00
1.129000e+03 5.087674e-01
1.130000e+03 2.224303e+00
1.131000e+03 2.188924e+00
1.132000e+03 4.845589e-03
1.133000e+03 4.108500e-02
1.134000e+03 6.293530e-01
1.135000e+03 1.788557e+00
1.136000e+03 8.945835e-02
1.137000e+03 1.611342e+00
1.138000e+03 4.741592e-01
1.139000e+03 2.338015e+00
1.140000e+03 2.214157e+00
1.141000e+03 2.219793e+00
1.142000e+03 2.425453e+00
1.143000e+03 6.161332e-01
1.144000e+03 2.397311e+00
1.145000e+03 2.629876e-03
1.146000e+03 2.568848e+00
1.147000e+03 2.400603e+00
1.148000e+03 2.176833e-02
1.149000e+03 1.734267e+00
1.150000e+03 1.359614e+00
1.151000e+03 2.477887e+00
1.152000e+03 1.938801e+00
1.153000e+03 2.321919e+00
1.154000e+03 2.495409e+00
1.155000e+03 1.589607e+00
1.156000e+03 1.949361e+00
1.157000e+03 2.272026e+00
1.158000e+03 6.629709e-01
1.159000e+03 2.314822e+00
1.160000e+03 8.362626e-01
1.161000e+03 2.105410e+00
1.162000e+03 9.684670e-02
1.163000e+03 3.588055e-01
1.164000e+03 7.608652e-03
1.165000e+03 1.170900e+00
1.166000e+03 6.552402e-01
1.167000e+03 4.867051e-01
1.168000e+03 2.466781e+00
1.169000e+03 2.552149e+00
1.170000e+03 4.298399e-01
1.171000e+03 1.242499e+00
1.172000e+03 7.644246e-01
1.173000e+03 9.202911e-01
1.174000e+03 1.655644e-02
1.175000e+03 5.330682e-03
1.176000e+03 2.231121e-03
1.177000e+03 3.185719e+00
1.178000e+03 3.038250e+00
1.179000e+03 2.827974e+00
1.180000e+03 1.893918e+00
1.181000e+03 2.668220e+00
1.182000e+03 2.516646e+00
1.183000e+03 1.798374e+00
1.184000e+03 1.592490e+00
1.185000e+03 1.772395e+00
1.186000e+03 8.738296e-02
1.187000e+03 2.066666e+00
1.188000e+03 1.251563e+00
1.189000e+03 2.136541e+00
1.190000e+03 2.079206e+00
1.191000e+03 1.842156e+00
1.192000e+03 1.788399e+00
1.193000e+03 1.635409e+00
1.194000e+03 1.722277e+00
1.195000e+03 1.644052e+00
1.196000e+03 1.540393e+01
1.197000e+03 1.782893e+01
1.198000e+03 2.986412e-01
1.199000e+03 1.574798e+01
1.200000e+03 1.046874e+00
1.201000e+03 1.279559e+01
1.202000e+03 5.925386e+00
1.203000e+03 9.624002e+00
1.204000e+03 1.054706e+00
1.205000e+03 6.662145e+00
1.206000e+03 5.560639e+00
1.207000e+03 9.407520e-01
1.208000e+03 2.924266e+00
1.209000e+03 2.258441e+00
1.210000e+03 1.041353e-02
1.211000e+03 8.802085e-01
1.212000e+03 4.249429e-01
1.213000e+03 1.981964e-01
1.214000e+03 5.868434e-02
1.215000e+03 1.035341e-02
1.216000e+03 8.911337e-03
1.217000e+03 3.677804e-02
1.218000e+03 1.627044e-01
1.219000e+03 4.365245e-01
1.220000e+03 5.747647e-01
1.221000e+03 1.751830e+00
1.222000e+03 2.756951e+00
1.223000e+03 3.570395e+00
1.224000e+03 5.816712e+00
1.225000e+03 4.817877e-01
1.226000e+03 1.163646e+01
1.227000e+03 1.498871e+01
1.228000e+03 4.033319e+00
1.229000e+03 2.010797e+01
1.230000e+03 1.694314e+01
1.231000e+03 2.273706e+00
1.232000e+03 3.492030e+01
1.233000e+03 3.970465e+01
1.234000e+03 3.638666e+01
1.235000e+03 4.515330e+01
1.236000e+03 7.449890e+00
1.237000e+03 5.603300e+01
1.238000e+03 5.787539e+01
1.239000e+03 3.998698e+01
1.240000e+03 2.191077e+01
1.241000e+03 4.401576e+01
1.242000e+03 6.739025e+01
1.243000e+03 7.961140e+01
1.244000e+03 8.449300e+01
1.245000e+03 8.585663e+01
1.246000e+03 7.206991e+01
1.247000e+03 8.527469e+01
1.248000e+03 7.906013e+01
1.249000e+03 1.041284e+02
1.250000e+03 7.684767e+01
1.251000e+03 1.097760e+02
1.252000e+03 1.009925e+02
1.253000e+03 1.161136e+02
1.254000e+03 1.082601e+02
1.255000e+03 3.976885e+01
1.256000e+03 9.309078e+01
1.257000e+03 8.111050e+01
1.258000e+03 7.241116e+01
1.259000e+03 9.454853e+01
1.260000e+03 1.317692e+02
1.261000e+03 4.255920e+00
1.262000e+03 1.379682e+02
1.263000e+03 1.309539e+02
1.264000e+03 8.839987e+01
1.265000e+03 4.807364e+01
1.266000e+03 1.572473e+02
1.267000e+03 1.270865e+02
