# wavelength_A flux
5.000000e+02 3.664395e-42
5.010000e+02 4.777026e-42
5.020000e+02 6.220364e-42
5.030000e+02 8.092499e-42
5.040000e+02 1.051674e-41
5.050000e+02 4.187220e-41
5.060000e+02 5.416019e-41
5.070000e+02 6.950300e-41
5.080000e+02 8.990030e-41
5.090000e+02 1.156127e-40
5.100000e+02 2.557370e-42
5.110000e+02 1.906593e-40
5.120000e+02 2.428072e-40
5.130000e+02 3.131790e-40
5.140000e+02 4.008400e-40
5.150000e+02 5.124843e-40
5.160000e+02 6.543840e-40
5.170000e+02 8.358381e-40
5.180000e+02 1.065907e-39
5.190000e+02 1.358024e-39
5.200000e+02 1.728612e-39
5.210000e+02 2.198187e-39
5.220000e+02 2.779530e-39
5.230000e+02 3.545942e-39
5.240000e+02 4.499129e-39
5.250000e+02 5.702109e-39
5.260000e+02 7.220300e-39
5.270000e+02 9.134798e-39
5.280000e+02 1.154705e-38
5.290000e+02 1.458273e-38
5.300000e+02 1.840057e-38
5.310000e+02 2.320525e-38
5.320000e+02 2.923607e-38
5.330000e+02 3.680112e-38
5.340000e+02 4.628484e-38
5.350000e+02 5.816206e-38
5.360000e+02 7.300801e-38
5.370000e+02 5.156932e-38
5.380000e+02 1.148271e-37
5.390000e+02 1.438956e-37
5.400000e+02 1.801206e-37
5.410000e+02 2.251290e-37
5.420000e+02 2.815163e-37
5.430000e+02 3.515246e-37
5.440000e+02 4.386021e-37
5.450000e+02 5.468199e-37
5.460000e+02 6.811713e-37
5.470000e+02 8.479810e-37
5.480000e+02 1.054805e-36
5.490000e+02 1.311031e-36
5.500000e+02 1.628267e-36
5.510000e+02 2.020744e-36
5.520000e+02 2.505949e-36
5.530000e+02 3.105346e-36
5.540000e+02 3.845266e-36
5.550000e+02 4.757987e-36
5.560000e+02 5.883045e-36
5.570000e+02 7.268835e-36
5.580000e+02 8.974554e-36
5.590000e+02 1.107256e-35
5.600000e+02 1.365173e-35
5.610000e+02 1.681905e-35
5.620000e+02 2.070654e-35
5.630000e+02 2.547480e-35
5.640000e+02 3.131884e-35
5.650000e+02 3.847669e-35
5.660000e+02 4.723765e-35
5.670000e+02 5.795340e-35
5.680000e+02 7.105122e-35
5.690000e+02 8.704973e-35
5.700000e+02 1.065781e-34
5.710000e+02 1.303993e-34
5.720000e+02 1.594433e-34
5.730000e+02 1.948183e-34
5.740000e+02 2.378834e-34
5.750000e+02 2.902757e-34
5.760000e+02 3.519699e-34
5.770000e+02 4.317850e-34
5.780000e+02 5.258429e-34
5.790000e+02 6.399709e-34
5.800000e+02 7.783572e-34
5.810000e+02 9.460405e-34
5.820000e+02 1.148999e-33
5.830000e+02 1.394028e-33
5.840000e+02 1.668603e-33
5.850000e+02 2.044958e-33
5.860000e+02 2.485295e-33
5.870000e+02 3.010236e-33
5.880000e+02 3.643582e-33
5.890000e+02 4.406782e-33
5.900000e+02 5.321470e-33
5.910000e+02 6.434178e-33
5.920000e+02 7.767462e-33
5.930000e+02 9.371730e-33
5.940000e+02 1.130004e-32
5.950000e+02 1.361697e-32
5.960000e+02 1.639922e-32
5.970000e+02 1.973826e-32
5.980000e+02 2.374342e-32
5.990000e+02 2.854430e-32
6.000000e+02 3.429594e-32
6.010000e+02 4.117817e-32
6.020000e+02 4.942394e-32
6.030000e+02 5.928033e-32
6.040000e+02 7.106482e-32
6.050000e+02 8.513987e-32
6.060000e+02 1.019451e-31
6.070000e+02 1.219988e-31
6.080000e+02 1.459157e-31
6.090000e+02 1.744243e-31
6.100000e+02 2.083874e-31
6.110000e+02 2.488269e-31
6.120000e+02 2.969511e-31
6.130000e+02 3.541896e-31
6.140000e+02 4.222547e-31
6.150000e+02 5.030999e-31
6.160000e+02 5.991034e-31
6.170000e+02 7.130437e-31
6.180000e+02 8.482026e-31
6.190000e+02 1.008447e-30
6.200000e+02 1.198334e-30
6.210000e+02 1.423230e-30
6.220000e+02 1.689452e-30
6.230000e+02 2.004476e-30
6.240000e+02 2.376959e-30
6.250000e+02 2.817208e-30
6.260000e+02 3.337312e-30
6.270000e+02 3.951424e-30
6.280000e+02 4.676171e-30
6.290000e+02 5.531115e-30
6.300000e+02 6.538609e-30
6.310000e+02 7.600640e-30
6.320000e+02 9.125431e-30
6.330000e+02 1.075642e-29
6.340000e+02 1.271018e-29
6.350000e+02 1.498333e-29
6.360000e+02 1.766654e-29
6.370000e+02 2.081580e-29
6.380000e+02 2.451241e-29
6.390000e+02 2.885162e-29
6.400000e+02 3.394281e-29
6.410000e+02 3.991326e-29
6.420000e+02 4.691165e-29
6.430000e+02 5.511111e-29
6.440000e+02 6.471403e-29
6.450000e+02 7.595312e-29
6.460000e+02 8.910435e-29
6.470000e+02 1.044827e-28
6.480000e+02 1.224591e-28
6.490000e+02 1.434630e-28
6.500000e+02 1.679710e-28
6.510000e+02 1.966267e-28
6.520000e+02 2.300402e-28
6.530000e+02 2.690087e-28
6.540000e+02 3.144373e-28
6.550000e+02 3.673735e-28
6.560000e+02 4.290310e-28
6.570000e+02 5.008117e-28
6.580000e+02 5.843587e-28
6.590000e+02 6.815324e-28
6.600000e+02 7.945166e-28
6.610000e+02 9.258315e-28
6.620000e+02 1.078385e-27
6.630000e+02 1.255530e-27
6.640000e+02 1.461148e-27
6.650000e+02 1.699714e-27
6.660000e+02 1.977063e-27
6.670000e+02 2.297864e-27
6.680000e+02 2.669666e-27
6.690000e+02 3.100286e-27
6.700000e+02 3.598863e-27
6.710000e+02 4.175885e-27
6.720000e+02 4.843473e-27
6.730000e+02 5.615409e-27
6.740000e+02 6.507703e-27
6.750000e+02 7.538707e-27
6.760000e+02 8.729501e-27
6.770000e+02 1.010428e-26
6.780000e+02 1.169090e-26
6.790000e+02 1.352121e-26
6.800000e+02 1.563183e-26
6.810000e+02 1.806472e-26
6.820000e+02 2.086800e-26
6.830000e+02 2.409679e-26
6.840000e+02 2.781430e-26
6.850000e+02 3.209302e-26
6.860000e+02 3.701517e-26
6.870000e+02 4.267563e-26
6.880000e+02 4.918267e-26
6.890000e+02 5.665995e-26
6.900000e+02 6.524905e-26
6.910000e+02 7.511171e-26
6.920000e+02 8.643245e-26
6.930000e+02 9.942186e-26
6.940000e+02 1.143203e-25
6.950000e+02 1.314022e-25
6.960000e+02 1.509799e-25
6.970000e+02 1.734117e-25
6.980000e+02 1.991009e-25
6.990000e+02 2.285110e-25
7.000000e+02 2.621692e-25
7.010000e+02 3.006750e-25
7.020000e+02 3.447109e-25
7.030000e+02 3.950447e-25
7.040000e+02 4.525845e-25
7.050000e+02 5.183066e-25
7.060000e+02 5.699987e-25
7.070000e+02 6.790388e-25
7.080000e+02 7.768135e-25
7.090000e+02 8.883511e-25
7.100000e+02 1.015560e-24
7.110000e+02 1.160562e-24
7.120000e+02 1.325803e-24
7.130000e+02 1.514044e-24
7.140000e+02 1.728413e-24
7.150000e+02 1.972451e-24
7.160000e+02 2.250172e-24
7.170000e+02 2.566115e-24
7.180000e+02 2.925418e-24
7.190000e+02 3.333905e-24
7.200000e+02 3.798137e-24
7.210000e+02 4.325552e-24
7.220000e+02 4.924605e-24
7.230000e+02 5.604696e-24
7.240000e+02 6.376560e-24
7.250000e+02 7.252315e-24
7.260000e+02 8.245614e-24
7.270000e+02 9.371880e-24
7.280000e+02 1.064847e-23
7.290000e+02 1.209500e-23
7.300000e+02 1.373356e-23
7.310000e+02 1.558903e-23
7.320000e+02 1.768947e-23
7.330000e+02 2.007071e-23
7.340000e+02 2.276029e-23
7.350000e+02 2.580204e-23
7.360000e+02 2.923984e-23
7.370000e+02 3.312778e-23
7.380000e+02 3.751936e-23
7.390000e+02 4.247972e-23
7.400000e+02 4.808076e-23
7.410000e+02 5.440354e-23
7.420000e+02 6.153835e-23
7.430000e+02 6.958735e-23
7.440000e+02 7.866477e-23
7.450000e+02 8.889893e-23
7.460000e+02 1.004337e-22
7.470000e+02 1.134305e-22
7.480000e+02 1.280701e-22
7.490000e+02 1.445552e-22
7.500000e+02 1.631131e-22
7.510000e+02 1.839979e-22
7.520000e+02 2.074945e-22
7.530000e+02 2.339217e-22
7.540000e+02 2.636364e-22
7.550000e+02 2.970372e-22
7.560000e+02 3.345707e-22
7.570000e+02 3.765608e-22
7.580000e+02 4.240916e-22
7.590000e+02 4.772586e-22
7.600000e+02 5.369351e-22
7.610000e+02 6.038977e-22
7.620000e+02 6.790147e-22
7.630000e+02 7.632551e-22
7.640000e+02 8.577001e-22
7.650000e+02 9.635555e-22
7.660000e+02 1.082167e-21
7.670000e+02 1.215033e-21
7.680000e+02 1.363822e-21
7.690000e+02 1.510379e-21
7.700000e+02 1.716700e-21
7.710000e+02 1.925471e-21
7.720000e+02 2.158836e-21
7.730000e+02 2.419812e-21
7.740000e+02 2.711583e-21
7.750000e+02 3.037703e-21
7.760000e+02 3.401892e-21
7.770000e+02 3.809159e-21
7.780000e+02 4.263757e-21
7.790000e+02 4.771307e-21
7.800000e+02 5.337824e-21
7.810000e+02 5.969993e-21
7.820000e+02 6.675224e-21
7.830000e+02 7.461756e-21
7.840000e+02 8.338727e-21
7.850000e+02 9.316278e-21
7.860000e+02 1.040565e-20
7.870000e+02 1.162028e-20
7.880000e+02 1.297219e-20
7.890000e+02 1.447758e-20
7.900000e+02 1.615340e-20
7.910000e+02 1.801853e-20
7.920000e+02 2.007264e-20
7.930000e+02 2.239694e-20
7.940000e+02 2.496924e-20
7.950000e+02 2.782333e-20
7.960000e+02 3.099567e-20
7.970000e+02 3.452084e-20
7.980000e+02 3.843712e-20
7.990000e+02 4.278677e-20
8.000000e+02 4.761655e-20
8.010000e+02 5.297807e-20
8.020000e+02 5.892844e-20
8.030000e+02 6.553065e-20
8.040000e+02 7.285429e-20
8.050000e+02 7.606530e-20
8.060000e+02 8.864887e-20
8.070000e+02 9.996297e-20
8.080000e+02 1.106238e-19
8.090000e+02 1.232748e-19
8.100000e+02 1.368531e-19
8.110000e+02 1.518844e-19
8.120000e+02 1.685256e-19
8.130000e+02 1.869445e-19
8.140000e+02 2.073262e-19
8.150000e+02 2.298745e-19
8.160000e+02 2.548137e-19
8.170000e+02 2.823906e-19
8.180000e+02 3.128772e-19
8.190000e+02 3.465724e-19
8.200000e+02 3.838050e-19
8.210000e+02 4.249369e-19
8.220000e+02 4.703668e-19
8.230000e+02 5.205296e-19
8.240000e+02 5.759067e-19
8.250000e+02 6.370262e-19
8.260000e+02 7.044676e-19
8.270000e+02 7.788679e-19
8.280000e+02 8.609262e-19
8.290000e+02 9.514099e-19
8.300000e+02 1.051162e-18
8.310000e+02 1.161105e-18
8.320000e+02 1.282255e-18
8.330000e+02 1.415721e-18
8.340000e+02 1.562725e-18
8.350000e+02 1.721516e-18
8.360000e+02 1.902815e-18
8.370000e+02 2.098980e-18
8.380000e+02 2.314829e-18
8.390000e+02 2.552328e-18
8.400000e+02 2.813553e-18
8.410000e+02 3.100824e-18
8.420000e+02 3.416659e-18
8.430000e+02 3.763851e-18
8.440000e+02 4.145406e-18
8.450000e+02 4.564631e-18
8.460000e+02 5.025152e-18
8.470000e+02 5.530926e-18
8.480000e+02 6.086281e-18
8.490000e+02 6.695946e-18
8.500000e+02 7.365089e-18
8.510000e+02 8.099374e-18
8.520000e+02 8.904926e-18
8.530000e+02 9.788515e-18
8.540000e+02 1.075747e-17
8.550000e+02 1.181982e-17
8.560000e+02 1.298432e-17
8.570000e+02 1.426054e-17
8.580000e+02 1.557790e-17
8.590000e+02 1.719075e-17
8.600000e+02 1.886850e-17
8.610000e+02 2.067779e-17
8.620000e+02 2.271699e-17
8.630000e+02 2.491849e-17
8.640000e+02 2.732757e-17
8.650000e+02 2.996159e-17
8.660000e+02 3.284713e-17
8.670000e+02 3.600067e-17
8.680000e+02 3.944889e-17
8.690000e+02 4.321858e-17
8.700000e+02 4.733886e-17
8.710000e+02 5.184146e-17
8.720000e+02 5.676084e-17
8.730000e+02 6.213452e-17
8.740000e+02 6.800327e-17
8.750000e+02 7.441150e-17
8.760000e+02 8.140728e-17
8.770000e+02 8.904298e-17
8.780000e+02 9.737448e-17
8.790000e+02 1.064550e-16
8.800000e+02 1.163843e-16
8.810000e+02 1.272003e-16
8.820000e+02 1.389942e-16
8.830000e+02 1.518515e-16
8.840000e+02 1.658669e-16
8.850000e+02 1.811400e-16
8.860000e+02 1.977812e-16
8.870000e+02 2.159095e-16
8.880000e+02 2.356540e-16
8.890000e+02 2.571540e-16
8.900000e+02 2.805637e-16
8.910000e+02 3.060450e-16
8.920000e+02 3.337737e-16
8.930000e+02 3.639532e-16
8.940000e+02 3.967816e-16
8.950000e+02 4.324916e-16
8.960000e+02 4.713256e-16
8.970000e+02 5.135502e-16
8.980000e+02 5.594532e-16
8.990000e+02 6.093456e-16
9.000000e+02 6.635642e-16
9.010000e+02 7.224733e-16
9.020000e+02 7.864634e-16
9.030000e+02 8.558931e-16
9.040000e+02 9.314423e-16
9.050000e+02 1.013004e-15
9.060000e+02 1.102336e-15
9.070000e+02 1.198885e-15
9.080000e+02 1.303654e-15
9.090000e+02 1.417315e-15
9.100000e+02 1.540607e-15
9.110000e+02 1.674404e-15
9.120000e+02 1.820464e-15
9.130000e+02 1.707939e-15
9.140000e+02 2.602085e-14
9.150000e+02 9.276698e-11
9.160000e+02 1.171706e-09
9.170000e+02 7.555523e-10
9.180000e+02 1.262076e-10
9.190000e+02 4.656964e-09
9.200000e+02 2.044087e-08
9.210000e+02 3.577759e-15
9.220000e+02 3.501958e-08
9.230000e+02 5.429840e-11
9.240000e+02 3.556026e-08
9.250000e+02 4.204163e-08
9.260000e+02 1.927211e-10
9.270000e+02 1.029059e-08
9.280000e+02 2.365290e-07
9.290000e+02 1.581673e-07
9.300000e+02 2.283203e-08
9.310000e+02 1.636681e-10
9.320000e+02 1.422336e-07
9.330000e+02 3.883119e-07
9.340000e+02 4.812800e-07
9.350000e+02 1.842300e-10
9.360000e+02 5.422646e-08
9.370000e+02 3.630229e-11
9.380000e+02 3.274520e-11
9.390000e+02 5.063744e-08
9.400000e+02 4.472922e-07
9.410000e+02 1.478835e-09
9.420000e+02 8.981830e-07
9.430000e+02 5.359398e-07
9.440000e+02 9.810467e-07
9.450000e+02 9.878331e-07
9.460000e+02 8.096513e-07
9.470000e+02 1.743899e-09
9.480000e+02 2.551390e-08
9.490000e+02 6.369323e-09
9.500000e+02 1.756208e-11
9.510000e+02 7.221683e-08
9.520000e+02 5.000729e-07
9.530000e+02 7.946343e-08
9.540000e+02 3.346052e-09
9.550000e+02 8.080599e-07
9.560000e+02 2.319462e-08
9.570000e+02 5.469792e-08
9.580000e+02 6.734808e-10
9.590000e+02 2.675016e-06
9.600000e+02 2.189608e-10
9.610000e+02 2.760529e-06
9.620000e+02 2.508219e-06
9.630000e+02 6.353946e-07
9.640000e+02 3.112746e-10
9.650000e+02 8.526285e-09
9.660000e+02 1.479723e-06
9.670000e+02 1.906649e-07
9.680000e+02 9.410655e-08
9.690000e+02 1.229637e-06
9.700000e+02 6.138532e-07
9.710000e+02 4.556548e-08
9.720000e+02 1.028565e-09
9.730000e+02 7.306618e-10
9.740000e+02 9.604100e-08
9.750000e+02 5.613372e-07
9.760000e+02 2.011725e-06
9.770000e+02 3.250446e-06
9.780000e+02 3.919031e-06
9.790000e+02 5.538894e-06
9.800000e+02 6.370552e-06
9.810000e+02 5.926578e-06
9.820000e+02 3.112331e-06
9.830000e+02 8.194812e-06
9.840000e+02 1.094751e-07
9.850000e+02 2.976230e-06
9.860000e+02 4.195347e-06
9.870000e+02 1.050196e-05
9.880000e+02 2.140041e-08
9.890000e+02 1.069333e-05
9.900000e+02 6.914132e-07
9.910000e+02 2.114023e-06
9.920000e+02 2.869719e-09
9.930000e+02 7.984391e-06
9.940000e+02 1.164153e-10
9.950000e+02 2.634478e-07
9.960000e+02 1.242297e-07
9.970000e+02 1.335025e-09
9.980000e+02 1.615570e-05
9.990000e+02 2.045047e-06
1.000000e+03 1.752207e-05
1.001000e+03 1.643054e-05
1.002000e+03 2.189134e-05
1.003000e+03 4.919464e-06
1.004000e+03 4.138838e-08
1.005000e+03 1.409315e-05
1.006000e+03 2.527238e-05
1.007000e+03 2.608994e-05
1.008000e+03 2.588130e-05
1.009000e+03 3.007054e-06
1.010000e+03 2.776196e-05
1.011000e+03 2.853931e-05
1.012000e+03 2.869761e-05
1.013000e+03 2.881650e-05
1.014000e+03 1.070111e-08
1.015000e+03 6.199662e-08
1.016000e+03 9.147072e-06
1.017000e+03 9.036739e-09
1.018000e+03 5.516749e-06
1.019000e+03 7.768722e-08
1.020000e+03 1.525902e-05
1.021000e+03 1.693670e-07
1.022000e+03 2.078776e-06
1.023000e+03 1.960282e-07
1.024000e+03 2.197085e-07
1.025000e+03 3.225773e-09
1.026000e+03 5.050227e-10
1.027000e+03 1.082514e-07
1.028000e+03 9.544578e-09
1.029000e+03 1.807803e-08
1.030000e+03 1.761974e-05
1.031000e+03 4.570029e-05
1.032000e+03 4.831543e-05
1.033000e+03 2.743764e-07
1.034000e+03 1.163569e-04
1.035000e+03 3.667083e-09
1.036000e+03 6.271875e-08
1.037000e+03 2.834155e-04
1.038000e+03 3.272320e-04
1.039000e+03 3.278695e-04
1.040000e+03 3.947412e-04
1.041000e+03 3.193917e-04
1.042000e+03 4.604845e-04
1.043000e+03 2.456742e-04
1.044000e+03 5.268308e-04
1.045000e+03 8.437858e-09
1.046000e+03 5.355242e-04
1.047000e+03 4.638831e-04
1.048000e+03 1.057569e-05
1.049000e+03 5.107489e-04
1.050000e+03 2.290623e-04
1.051000e+03 8.878426e-05
1.052000e+03 7.587436e-04
1.053000e+03 8.101502e-04
1.054000e+03 1.012813e-07
1.055000e+03 1.758458e-04
1.056000e+03 8.668773e-04
1.057000e+03 6.162835e-04
1.058000e+03 2.218543e-04
1.059000e+03 5.230308e-06
1.060000e+03 6.762333e-06
1.061000e+03 1.063648e-03
1.062000e+03 9.380462e-05
1.063000e+03 9.076257e-08
1.064000e+03 5.122274e-09
1.065000e+03 1.816079e-07
1.066000e+03 7.539580e-06
1.067000e+03 4.088425e-05
1.068000e+03 1.433020e-03
1.069000e+03 6.778063e-06
1.070000e+03 1.044979e-03
1.071000e+03 1.576175e-03
1.072000e+03 1.650955e-03
1.073000e+03 6.447081e-07
1.074000e+03 1.514492e-03
1.075000e+03 1.432466e-03
1.076000e+03 3.394917e-04
1.077000e+03 8.414499e-07
1.078000e+03 2.672799e-04
1.079000e+03 1.212877e-03
1.080000e+03 1.334826e-03
1.081000e+03 2.260237e-03
1.082000e+03 2.200561e-03
1.083000e+03 1.897594e-03
1.084000e+03 2.047417e-03
1.085000e+03 7.558363e-04
1.086000e+03 2.737578e-03
1.087000e+03 1.914955e-04
1.088000e+03 2.889891e-03
1.089000e+03 2.963828e-03
1.090000e+03 1.138936e-03
1.091000e+03 1.659503e-03
1.092000e+03 1.110561e-03
1.093000e+03 2.889320e-03
1.094000e+03 2.958417e-03
1.095000e+03 3.673798e-03
1.096000e+03 7.395376e-05
1.097000e+03 3.548133e-03
1.098000e+03 1.869964e-03
1.099000e+03 2.355800e-03
1.100000e+03 1.518329e-05
1.101000e+03 6.275886e-05
1.102000e+03 2.505100e-03
1.103000e+03 4.718988e-03
1.104000e+03 4.957432e-03
1.105000e+03 5.099391e-03
1.106000e+03 3.284263e-03
1.107000e+03 4.467927e-05
1.108000e+03 5.552886e-03
1.109000e+03 1.588169e-03
1.110000e+03 5.041242e-03
1.111000e+03 5.634096e-03
1.112000e+03 6.103323e-03
1.113000e+03 5.232179e-03
1.114000e+03 2.868047e-03
1.115000e+03 9.981943e-04
1.116000e+03 4.390950e-04
1.117000e+03 7.463213e-03
1.118000e+03 2.509426e-03
1.119000e+03 7.554733e-03
1.120000e+03 9.382470e-04
1.121000e+03 8.327286e-03
1.122000e+03 4.796498e-03
1.123000e+03 1.143321e-02
1.124000e+03 1.349075e-02
1.125000e+03 1.195387e-02
1.126000e+03 1.055827e-02
1.127000e+03 1.044702e-02
1.128000e+03 8.921050e-03
1.129000e+03 9.601623e-03
1.130000e+03 9.376589e-03
1.131000e+03 8.279024e-03
1.132000e+03 8.071545e-04
1.133000e+03 6.305487e-03
1.134000e+03 8.300934e-03
1.135000e+03 2.146456e-04
1.136000e+03 6.495609e-03
1.137000e+03 6.786037e-03
1.138000e+03 7.897403e-03
1.139000e+03 8.040396e-03
1.140000e+03 7.710597e-03
1.141000e+03 6.770228e-03
1.142000e+03 7.873334e-03
1.143000e+03 6.859133e-03
1.144000e+03 7.432562e-03
1.145000e+03 3.456236e-04
1.146000e+03 8.056412e-03
1.147000e+03 8.126388e-03
1.148000e+03 4.357378e-03
1.149000e+03 8.004425e-03
1.150000e+03 7.836873e-03
1.151000e+03 7.866808e-03
1.152000e+03 7.709506e-03
1.153000e+03 7.491780e-03
1.154000e+03 7.260648e-03
1.155000e+03 7.291541e-03
1.156000e+03 2.916966e-03
1.157000e+03 6.974477e-03
1.158000e+03 6.940886e-03
1.159000e+03 7.023017e-03
1.160000e+03 6.890973e-03
1.161000e+03 6.477095e-03
1.162000e+03 4.321916e-03
1.163000e+03 5.382349e-03
1.164000e+03 1.121452e-05
1.165000e+03 3.674780e-03
1.166000e+03 1.835151e-03
1.167000e+03 1.138719e-03
1.168000e+03 7.197488e-03
1.169000e+03 7.163492e-03
1.170000e+03 1.208981e-03
1.171000e+03 3.224974e-03
1.172000e+03 2.580134e-03
1.173000e+03 2.128086e-03
1.174000e+03 2.125476e-03
1.175000e+03 1.282524e-05
1.176000e+03 2.697809e-06
1.177000e+03 9.179938e-03
1.178000e+03 8.643892e-03
1.179000e+03 8.225670e-03
1.180000e+03 7.544781e-03
1.181000e+03 7.399358e-03
1.182000e+03 7.132445e-03
1.183000e+03 6.815879e-03
1.184000e+03 6.498110e-03
1.185000e+03 6.292905e-03
1.186000e+03 4.277396e-03
1.187000e+03 5.843441e-03
1.188000e+03 5.618009e-03
1.189000e+03 5.517113e-03
1.190000e+03 5.343492e-03
1.191000e+03 5.031650e-03
1.192000e+03 4.489193e-03
1.193000e+03 4.354505e-03
1.194000e+03 4.260962e-03
1.195000e+03 4.048534e-03
1.196000e+03 6.206762e-02
1.197000e+03 5.907392e-02
1.198000e+03 4.039732e-02
1.199000e+03 5.146897e-02
1.200000e+03 4.071099e-02
1.201000e+03 4.251340e-02
1.202000e+03 3.645568e-02
1.203000e+03 3.241788e-02
1.204000e+03 2.484676e-02
1.205000e+03 2.195471e-02
1.206000e+03 1.701432e-02
1.207000e+03 1.372206e-03
1.208000e+03 7.791603e-03
1.209000e+03 5.501117e-03
1.210000e+03 1.881900e-05
1.211000e+03 1.717248e-03
1.212000e+03 7.640952e-04
1.213000e+03 2.825929e-04
1.214000e+03 7.044457e-05
1.215000e+03 6.258858e-06
1.216000e+03 1.230938e-06
1.217000e+03 4.130691e-05
1.218000e+03 2.246560e-04
1.219000e+03 7.247733e-04
1.220000e+03 1.832044e-03
1.221000e+03 3.785263e-03
1.222000e+03 7.278220e-03
1.223000e+03 1.185171e-02
1.224000e+03 1.761993e-02
1.225000e+03 2.179739e-02
1.226000e+03 3.652401e-02
1.227000e+03 4.853633e-02
1.228000e+03 6.142160e-02
1.229000e+03 7.629810e-02
1.230000e+03 3.765706e-03
1.231000e+03 8.146008e-02
1.232000e+03 1.199284e-01
1.233000e+03 1.365465e-01
1.234000e+03 1.142472e-01
1.235000e+03 1.676325e-01
1.236000e+03 1.770905e-01
1.237000e+03 1.976318e-01
1.238000e+03 2.127265e-01
1.239000e+03 2.223256e-01
1.240000e+03 3.329527e-02
1.241000e+03 2.374647e-01
1.242000e+03 2.693006e-01
1.243000e+03 2.837275e-01
1.244000e+03 2.979470e-01
1.245000e+03 2.702080e-01
1.246000e+03 3.226080e-01
1.247000e+03 3.301735e-01
1.248000e+03 1.225059e-01
1.249000e+03 3.527312e-01
1.250000e+03 3.441518e-01
1.251000e+03 3.937104e-01
1.252000e+03 3.802866e-01
1.253000e+03 4.144384e-01
1.254000e+03 4.136535e-01
1.255000e+03 8.257677e-02
1.256000e+03 4.000413e-01
1.257000e+03 3.348617e-01
1.258000e+03 3.986875e-01
1.259000e+03 4.326559e-01
1.260000e+03 4.836879e-01
1.261000e+03 2.224320e-02
1.262000e+03 5.033018e-01
1.263000e+03 3.771690e-01
1.264000e+03 4.937748e-01
1.265000e+03 4.125419e-02
1.266000e+03 5.872102e-01
1.267000e+03 6.194365e-01
