# wavelength_A flux
5.000000e+02 1.774598e-04
5.010000e+02 1.977942e-04
5.020000e+02 2.203591e-04
5.030000e+02 2.453881e-04
5.040000e+02 2.731382e-04
5.050000e+02 3.107090e-04
5.060000e+02 3.454924e-04
5.070000e+02 3.840021e-04
5.080000e+02 4.266190e-04
5.090000e+02 4.737780e-04
5.100000e+02 5.259067e-04
5.110000e+02 5.835216e-04
5.120000e+02 6.471734e-04
5.130000e+02 7.174662e-04
5.140000e+02 7.950607e-04
5.150000e+02 8.806728e-04
5.160000e+02 9.751169e-04
5.170000e+02 1.079181e-03
5.180000e+02 1.193963e-03
5.190000e+02 1.320372e-03
5.200000e+02 1.459574e-03
5.210000e+02 1.612800e-03
5.220000e+02 1.781205e-03
5.230000e+02 1.966819e-03
5.240000e+02 2.170699e-03
5.250000e+02 2.394817e-03
5.260000e+02 2.641011e-03
5.270000e+02 2.911384e-03
5.280000e+02 3.208198e-03
5.290000e+02 3.533224e-03
5.300000e+02 3.891217e-03
5.310000e+02 4.282940e-03
5.320000e+02 4.712422e-03
5.330000e+02 5.183010e-03
5.340000e+02 5.698465e-03
5.350000e+02 6.262853e-03
5.360000e+02 6.880563e-03
5.370000e+02 7.468174e-03
5.380000e+02 8.295674e-03
5.390000e+02 9.104110e-03
5.400000e+02 9.987667e-03
5.410000e+02 1.095223e-02
5.420000e+02 1.200712e-02
5.430000e+02 1.315833e-02
5.440000e+02 1.441473e-02
5.450000e+02 1.578526e-02
5.460000e+02 1.727794e-02
5.470000e+02 1.891064e-02
5.480000e+02 2.068746e-02
5.490000e+02 2.262362e-02
5.500000e+02 2.473245e-02
5.510000e+02 2.702836e-02
5.520000e+02 2.952783e-02
5.530000e+02 3.224763e-02
5.540000e+02 3.520621e-02
5.550000e+02 3.842348e-02
5.560000e+02 4.192093e-02
5.570000e+02 4.572173e-02
5.580000e+02 4.985087e-02
5.590000e+02 5.433417e-02
5.600000e+02 5.920278e-02
5.610000e+02 6.448691e-02
5.620000e+02 7.022030e-02
5.630000e+02 7.643916e-02
5.640000e+02 8.318250e-02
5.650000e+02 9.049220e-02
5.660000e+02 9.841372e-02
5.670000e+02 1.069953e-01
5.680000e+02 1.162893e-01
5.690000e+02 1.263516e-01
5.700000e+02 1.372425e-01
5.710000e+02 1.490257e-01
5.720000e+02 1.617731e-01
5.730000e+02 1.755581e-01
5.740000e+02 1.904607e-01
5.750000e+02 2.065697e-01
5.760000e+02 2.239466e-01
5.770000e+02 2.427644e-01
5.780000e+02 2.630607e-01
5.790000e+02 2.849709e-01
5.800000e+02 3.086165e-01
5.810000e+02 3.341274e-01
5.820000e+02 3.616427e-01
5.830000e+02 3.913088e-01
5.840000e+02 4.231843e-01
5.850000e+02 4.577390e-01
5.860000e+02 4.949026e-01
5.870000e+02 5.349058e-01
5.880000e+02 5.779806e-01
5.890000e+02 6.243411e-01
5.900000e+02 6.742534e-01
5.910000e+02 7.279458e-01
5.920000e+02 7.857006e-01
5.930000e+02 8.478072e-01
5.940000e+02 9.145762e-01
5.950000e+02 9.863006e-01
5.960000e+02 1.063448e+00
5.970000e+02 1.146271e+00
5.980000e+02 1.235230e+00
5.990000e+02 1.330743e+00
6.000000e+02 1.433266e+00
6.010000e+02 1.543162e+00
6.020000e+02 1.661295e+00
6.030000e+02 1.787894e+00
6.040000e+02 1.923652e+00
6.050000e+02 2.069188e+00
6.060000e+02 2.225164e+00
6.070000e+02 2.392306e+00
6.080000e+02 2.571351e+00
6.090000e+02 2.763104e+00
6.100000e+02 2.968417e+00
6.110000e+02 3.188199e+00
6.120000e+02 3.423411e+00
6.130000e+02 3.675076e+00
6.140000e+02 3.944277e+00
6.150000e+02 4.232176e+00
6.160000e+02 4.539990e+00
6.170000e+02 4.869023e+00
6.180000e+02 5.220654e+00
6.190000e+02 5.596348e+00
6.200000e+02 5.997660e+00
6.210000e+02 6.426236e+00
6.220000e+02 6.883823e+00
6.230000e+02 7.372274e+00
6.240000e+02 7.893408e+00
6.250000e+02 8.449585e+00
6.260000e+02 9.042864e+00
6.270000e+02 9.675553e+00
6.280000e+02 1.035020e+01
6.290000e+02 1.106938e+01
6.300000e+02 1.183587e+01
6.310000e+02 1.265247e+01
6.320000e+02 1.352265e+01
6.330000e+02 1.444932e+01
6.340000e+02 1.543610e+01
6.350000e+02 1.648663e+01
6.360000e+02 1.758113e+01
6.370000e+02 1.879472e+01
6.380000e+02 2.006072e+01
6.390000e+02 2.140736e+01
6.400000e+02 2.283949e+01
6.410000e+02 2.436223e+01
6.420000e+02 2.598096e+01
6.430000e+02 2.770140e+01
6.440000e+02 2.952953e+01
6.450000e+02 3.147076e+01
6.460000e+02 3.353366e+01
6.470000e+02 3.572424e+01
6.480000e+02 3.805021e+01
6.490000e+02 4.051920e+01
6.500000e+02 4.313956e+01
6.510000e+02 4.592001e+01
6.520000e+02 4.886976e+01
6.530000e+02 5.199848e+01
6.540000e+02 5.531638e+01
6.550000e+02 5.883422e+01
6.560000e+02 6.256329e+01
6.570000e+02 6.651432e+01
6.580000e+02 7.070334e+01
6.590000e+02 7.514024e+01
6.600000e+02 7.983980e+01
6.610000e+02 8.481712e+01
6.620000e+02 9.008711e+01
6.630000e+02 9.566605e+01
6.640000e+02 1.015711e+02
6.650000e+02 1.078197e+02
6.660000e+02 1.144292e+02
6.670000e+02 1.214231e+02
6.680000e+02 1.288202e+02
6.690000e+02 1.366422e+02
6.700000e+02 1.449120e+02
6.710000e+02 1.536541e+02
6.720000e+02 1.628841e+02
6.730000e+02 1.726561e+02
6.740000e+02 1.829705e+02
6.750000e+02 1.938658e+02
6.760000e+02 2.053725e+02
6.770000e+02 2.175228e+02
6.780000e+02 2.303504e+02
6.790000e+02 2.438908e+02
6.800000e+02 2.581811e+02
6.810000e+02 2.732601e+02
6.820000e+02 2.891686e+02
6.830000e+02 3.059495e+02
6.840000e+02 3.236474e+02
6.850000e+02 3.423015e+02
6.860000e+02 3.619770e+02
6.870000e+02 3.827096e+02
6.880000e+02 4.045699e+02
6.890000e+02 4.276028e+02
6.900000e+02 4.518688e+02
6.910000e+02 4.774326e+02
6.920000e+02 5.043565e+02
6.930000e+02 5.327091e+02
6.940000e+02 5.625612e+02
6.950000e+02 5.939869e+02
6.960000e+02 6.270639e+02
6.970000e+02 6.618646e+02
6.980000e+02 6.985000e+02
6.990000e+02 7.370326e+02
7.000000e+02 7.775638e+02
7.010000e+02 8.201906e+02
7.020000e+02 8.650142e+02
7.030000e+02 9.121205e+02
7.040000e+02 9.616589e+02
7.050000e+02 1.013726e+03
7.060000e+02 1.068441e+03
7.070000e+02 1.125932e+03
7.080000e+02 1.186330e+03
7.090000e+02 1.249766e+03
7.100000e+02 1.316398e+03
7.110000e+02 1.386361e+03
7.120000e+02 1.459817e+03
7.130000e+02 1.536927e+03
7.140000e+02 1.617862e+03
7.150000e+02 1.702797e+03
7.160000e+02 1.791920e+03
7.170000e+02 1.885414e+03
7.180000e+02 1.983475e+03
7.190000e+02 2.086365e+03
7.200000e+02 2.194239e+03
7.210000e+02 2.307293e+03
7.220000e+02 2.425867e+03
7.230000e+02 2.550146e+03
7.240000e+02 2.680411e+03
7.250000e+02 2.816915e+03
7.260000e+02 2.959902e+03
7.270000e+02 3.109735e+03
7.280000e+02 3.266678e+03
7.290000e+02 3.431048e+03
7.300000e+02 3.603170e+03
7.310000e+02 3.783387e+03
7.320000e+02 3.972051e+03
7.330000e+02 4.169531e+03
7.340000e+02 4.376212e+03
7.350000e+02 4.592492e+03
7.360000e+02 4.818782e+03
7.370000e+02 5.055525e+03
7.380000e+02 5.303095e+03
7.390000e+02 5.562085e+03
7.400000e+02 5.832903e+03
7.410000e+02 6.116105e+03
7.420000e+02 6.412141e+03
7.430000e+02 6.721633e+03
7.440000e+02 7.045087e+03
7.450000e+02 7.383110e+03
7.460000e+02 7.736301e+03
7.470000e+02 8.105313e+03
7.480000e+02 8.490795e+03
7.490000e+02 8.893430e+03
7.500000e+02 9.313926e+03
7.510000e+02 9.753019e+03
7.520000e+02 1.021147e+04
7.530000e+02 1.069008e+04
7.540000e+02 1.118967e+04
7.550000e+02 1.171108e+04
7.560000e+02 1.225521e+04
7.570000e+02 1.282275e+04
7.580000e+02 1.341533e+04
7.590000e+02 1.403320e+04
7.600000e+02 1.467777e+04
7.610000e+02 1.534976e+04
7.620000e+02 1.605071e+04
7.630000e+02 1.678155e+04
7.640000e+02 1.754348e+04
7.650000e+02 1.833772e+04
7.660000e+02 1.916555e+04
7.670000e+02 2.002828e+04
7.680000e+02 2.092717e+04
7.690000e+02 2.186392e+04
7.700000e+02 2.283972e+04
7.710000e+02 2.385617e+04
7.720000e+02 2.491481e+04
7.730000e+02 2.601732e+04
7.740000e+02 2.716536e+04
7.750000e+02 2.836067e+04
7.760000e+02 2.960291e+04
7.770000e+02 3.090036e+04
7.780000e+02 3.224853e+04
7.790000e+02 3.365157e+04
7.800000e+02 3.511152e+04
7.810000e+02 3.663055e+04
7.820000e+02 3.821084e+04
7.830000e+02 3.985465e+04
7.840000e+02 4.156446e+04
7.850000e+02 4.334260e+04
7.860000e+02 4.519161e+04
7.870000e+02 4.711428e+04
7.880000e+02 4.911303e+04
7.890000e+02 5.119079e+04
7.900000e+02 5.335043e+04
7.910000e+02 5.559493e+04
7.920000e+02 5.792739e+04
7.930000e+02 6.035098e+04
7.940000e+02 6.286806e+04
7.950000e+02 6.548385e+04
7.960000e+02 6.820097e+04
7.970000e+02 7.102294e+04
7.980000e+02 7.395369e+04
7.990000e+02 7.699652e+04
8.000000e+02 8.015635e+04
8.010000e+02 8.343670e+04
8.020000e+02 8.684224e+04
8.030000e+02 9.037693e+04
8.040000e+02 9.404547e+04
8.050000e+02 9.785249e+04
8.060000e+02 1.018028e+05
8.070000e+02 1.059015e+05
8.080000e+02 1.101535e+05
8.090000e+02 1.145643e+05
8.100000e+02 1.191393e+05
8.110000e+02 1.238840e+05
8.120000e+02 1.288044e+05
8.130000e+02 1.339064e+05
8.140000e+02 1.391962e+05
8.150000e+02 1.446798e+05
8.160000e+02 1.503647e+05
8.170000e+02 1.562567e+05
8.180000e+02 1.623632e+05
8.190000e+02 1.686913e+05
8.200000e+02 1.752482e+05
8.210000e+02 1.820420e+05
8.220000e+02 1.890802e+05
8.230000e+02 1.963710e+05
8.240000e+02 2.039197e+05
8.250000e+02 2.117409e+05
8.260000e+02 2.198405e+05
8.270000e+02 2.282276e+05
8.280000e+02 2.369115e+05
8.290000e+02 2.459019e+05
8.300000e+02 2.552088e+05
8.310000e+02 2.648424e+05
8.320000e+02 2.748132e+05
8.330000e+02 2.851320e+05
8.340000e+02 2.958101e+05
8.350000e+02 3.068359e+05
8.360000e+02 3.182889e+05
8.370000e+02 3.301162e+05
8.380000e+02 3.423475e+05
8.390000e+02 3.550027e+05
8.400000e+02 3.680892e+05
8.410000e+02 3.816227e+05
8.420000e+02 3.956101e+05
8.430000e+02 4.100861e+05
8.440000e+02 4.250459e+05
8.450000e+02 4.405110e+05
8.460000e+02 4.564972e+05
8.470000e+02 4.730204e+05
8.480000e+02 4.900972e+05
8.490000e+02 5.077447e+05
8.500000e+02 5.259802e+05
8.510000e+02 5.448194e+05
8.520000e+02 5.642846e+05
8.530000e+02 5.843846e+05
8.540000e+02 6.051594e+05
8.550000e+02 6.266146e+05
8.560000e+02 6.487733e+05
8.570000e+02 6.716567e+05
8.580000e+02 6.952862e+05
8.590000e+02 7.196846e+05
8.600000e+02 7.448743e+05
8.610000e+02 7.708791e+05
8.620000e+02 7.977228e+05
8.630000e+02 8.254295e+05
8.640000e+02 8.540259e+05
8.650000e+02 8.835302e+05
8.660000e+02 9.139859e+05
8.670000e+02 9.454098e+05
8.680000e+02 9.778314e+05
8.690000e+02 1.011280e+06
8.700000e+02 1.045783e+06
8.710000e+02 1.081377e+06
8.720000e+02 1.118087e+06
8.730000e+02 1.155947e+06
8.740000e+02 1.194991e+06
8.750000e+02 1.235252e+06
8.760000e+02 1.276765e+06
8.770000e+02 1.319562e+06
8.780000e+02 1.363688e+06
8.790000e+02 1.409172e+06
8.800000e+02 1.456056e+06
8.810000e+02 1.504352e+06
8.820000e+02 1.554152e+06
8.830000e+02 1.605472e+06
8.840000e+02 1.658353e+06
8.850000e+02 1.712842e+06
8.860000e+02 1.768980e+06
8.870000e+02 1.826814e+06
8.880000e+02 1.886391e+06
8.890000e+02 1.947758e+06
8.900000e+02 2.010964e+06
8.910000e+02 2.076059e+06
8.920000e+02 2.140684e+06
8.930000e+02 2.212125e+06
8.940000e+02 2.283202e+06
8.950000e+02 2.356379e+06
8.960000e+02 2.431721e+06
8.970000e+02 2.509278e+06
8.980000e+02 2.589112e+06
8.990000e+02 2.671282e+06
9.000000e+02 2.755853e+06
9.010000e+02 2.842887e+06
9.020000e+02 2.932450e+06
9.030000e+02 3.024608e+06
9.040000e+02 3.119396e+06
9.050000e+02 3.216979e+06
9.060000e+02 3.317346e+06
9.070000e+02 3.420472e+06
9.080000e+02 3.526716e+06
9.090000e+02 3.635940e+06
9.100000e+02 3.748273e+06
9.110000e+02 3.863808e+06
9.120000e+02 3.982677e+06
9.130000e+02 4.062367e+06
9.140000e+02 4.265899e+06
9.150000e+02 9.837475e+06
9.160000e+02 3.444994e+07
9.170000e+02 3.769140e+07
9.180000e+02 2.968360e+07
9.190000e+02 5.951243e+07
9.200000e+02 7.217514e+07
9.210000e+02 5.069554e+06
9.220000e+02 8.017552e+07
9.230000e+02 3.833694e+07
9.240000e+02 7.029911e+07
9.250000e+02 8.675003e+07
9.260000e+02 5.606096e+07
9.270000e+02 8.960986e+07
9.280000e+02 9.583537e+07
9.290000e+02 8.196550e+07
9.300000e+02 9.468520e+07
9.310000e+02 6.740082e+07
9.320000e+02 1.043034e+08
9.330000e+02 1.076510e+08
9.340000e+02 1.106554e+08
9.350000e+02 3.392024e+07
9.360000e+02 1.148487e+08
9.370000e+02 2.292388e+07
9.380000e+02 4.568521e+07
9.390000e+02 1.218236e+08
9.400000e+02 1.264115e+08
9.410000e+02 6.451581e+07
9.420000e+02 1.326297e+08
9.430000e+02 1.356292e+08
9.440000e+02 8.089783e+07
9.450000e+02 1.416794e+08
9.460000e+02 1.447151e+08
9.470000e+02 1.030078e+08
9.480000e+02 1.336145e+08
9.490000e+02 1.449005e+08
9.500000e+02 3.017503e+07
9.510000e+02 1.510072e+08
9.520000e+02 1.644848e+08
9.530000e+02 1.655061e+08
9.540000e+02 1.400676e+08
9.550000e+02 1.761758e+08
9.560000e+02 1.533895e+08
9.570000e+02 1.409472e+08
9.580000e+02 1.838304e+08
9.590000e+02 1.929521e+08
9.600000e+02 4.133885e+07
9.610000e+02 2.010844e+08
9.620000e+02 2.049755e+08
9.630000e+02 2.102739e+08
9.640000e+02 1.836666e+07
9.650000e+02 1.979925e+08
9.660000e+02 2.238674e+08
9.670000e+02 2.265860e+08
9.680000e+02 2.292374e+08
9.690000e+02 2.363529e+08
9.700000e+02 2.417090e+08
9.710000e+02 2.424081e+08
9.720000e+02 2.080062e+08
9.730000e+02 2.014353e+08
9.740000e+02 2.573915e+08
9.750000e+02 2.682431e+08
9.760000e+02 2.754556e+08
9.770000e+02 2.814778e+08
9.780000e+02 2.866838e+08
9.790000e+02 2.939019e+08
9.800000e+02 2.999688e+08
9.810000e+02 3.061570e+08
9.820000e+02 3.095363e+08
9.830000e+02 3.189091e+08
9.840000e+02 1.187166e+08
9.850000e+02 3.319933e+08
9.860000e+02 3.385599e+08
9.870000e+02 3.457293e+08
9.880000e+02 3.477087e+08
9.890000e+02 2.555140e+08
9.900000e+02 4.280247e+07
9.910000e+02 3.688666e+08
9.920000e+02 3.251910e+08
9.930000e+02 3.651963e+08
9.940000e+02 5.954691e+07
9.950000e+02 9.593174e+07
9.960000e+02 1.060607e+08
9.970000e+02 8.542032e+07
9.980000e+02 4.295813e+08
9.990000e+02 4.266093e+08
1.000000e+03 4.481643e+08
1.001000e+03 4.572513e+08
1.002000e+03 4.659148e+08
1.003000e+03 4.179705e+08
1.004000e+03 4.818125e+08
1.005000e+03 4.278581e+08
1.006000e+03 5.038191e+08
1.007000e+03 5.120658e+08
1.008000e+03 5.226503e+08
1.009000e+03 5.128925e+08
1.010000e+03 5.438420e+08
1.011000e+03 5.543421e+08
1.012000e+03 5.646600e+08
1.013000e+03 5.754867e+08
1.014000e+03 5.640618e+08
1.015000e+03 5.807213e+08
1.016000e+03 6.052784e+08
1.017000e+03 6.010840e+08
1.018000e+03 6.294151e+08
1.019000e+03 6.358637e+08
1.020000e+03 6.527194e+08
1.021000e+03 4.389328e+08
1.022000e+03 6.336763e+08
1.023000e+03 6.634243e+08
1.024000e+03 6.305271e+08
1.025000e+03 4.554986e+08
1.026000e+03 1.998865e+08
1.027000e+03 6.277039e+08
1.028000e+03 2.093308e+08
1.029000e+03 7.399748e+08
1.030000e+03 7.696936e+08
1.031000e+03 8.001939e+08
1.032000e+03 8.113917e+08
1.033000e+03 4.436815e+08
1.034000e+03 8.532777e+08
1.035000e+03 1.873601e+08
1.036000e+03 8.279181e+08
1.037000e+03 1.171004e+08
1.038000e+03 9.206690e+08
1.039000e+03 9.256630e+08
1.040000e+03 9.550700e+08
1.041000e+03 9.660850e+08
1.042000e+03 9.609633e+08
1.043000e+03 9.863837e+08
1.044000e+03 1.021912e+09
1.045000e+03 1.043676e+09
1.046000e+03 1.065357e+09
1.047000e+03 1.081593e+09
1.048000e+03 1.081995e+09
1.049000e+03 1.088120e+09
1.050000e+03 1.143589e+09
1.051000e+03 1.162638e+09
1.052000e+03 1.185901e+09
1.053000e+03 1.179185e+09
1.054000e+03 1.181794e+09
1.055000e+03 1.242597e+09
1.056000e+03 1.272971e+09
1.057000e+03 1.293230e+09
1.058000e+03 1.315804e+09
1.059000e+03 1.331068e+09
1.060000e+03 1.353611e+09
1.061000e+03 1.387862e+09
1.062000e+03 1.411073e+09
1.063000e+03 6.064883e+08
1.064000e+03 2.953658e+08
1.065000e+03 1.467594e+09
1.066000e+03 1.313572e+09
1.067000e+03 1.459552e+09
1.068000e+03 1.588783e+09
1.069000e+03 1.563964e+09
1.070000e+03 1.602855e+09
1.071000e+03 1.673519e+09
1.072000e+03 1.701804e+09
1.073000e+03 1.697218e+09
1.074000e+03 1.757308e+09
1.075000e+03 1.785157e+09
1.076000e+03 1.820841e+09
1.077000e+03 1.842035e+09
1.078000e+03 1.879269e+09
1.079000e+03 1.904290e+09
1.080000e+03 1.943709e+09
1.081000e+03 1.978678e+09
1.082000e+03 2.011415e+09
1.083000e+03 2.039836e+09
1.084000e+03 1.979471e+09
1.085000e+03 1.530386e+09
1.086000e+03 2.151268e+09
1.087000e+03 2.171142e+09
1.088000e+03 2.215678e+09
1.089000e+03 2.258390e+09
1.090000e+03 2.285986e+09
1.091000e+03 2.324959e+09
1.092000e+03 2.372307e+09
1.093000e+03 2.409198e+09
1.094000e+03 2.449938e+09
1.095000e+03 2.487014e+09
1.096000e+03 2.529634e+09
1.097000e+03 2.543269e+09
1.098000e+03 2.551134e+09
1.099000e+03 2.649606e+09
1.100000e+03 2.626481e+09
1.101000e+03 2.499397e+09
1.102000e+03 5.336265e+09
1.103000e+03 1.571091e+10
1.104000e+03 6.727184e+09
1.105000e+03 2.677471e+09
1.106000e+03 3.480604e+10
1.107000e+03 2.112920e+10
1.108000e+03 3.607429e+10
1.109000e+03 1.812323e+10
1.110000e+03 5.806171e+09
1.111000e+03 5.921602e+09
1.112000e+03 3.156346e+10
1.113000e+03 3.910984e+10
1.114000e+03 2.065687e+09
1.115000e+03 3.565281e+10
1.116000e+03 3.540050e+10
1.117000e+03 2.330180e+09
1.118000e+03 2.594662e+10
1.119000e+03 4.078567e+10
1.120000e+03 3.832041e+10
1.121000e+03 3.346107e+10
1.122000e+03 7.010099e+08
1.123000e+03 4.362529e+09
1.124000e+03 4.340618e+10
1.125000e+03 1.632159e+10
1.126000e+03 4.498298e+10
1.127000e+03 4.345002e+10
1.128000e+03 1.898075e+10
1.129000e+03 4.449102e+10
1.130000e+03 3.534315e+10
1.131000e+03 4.779755e+10
1.132000e+03 1.970098e+09
1.133000e+03 3.448969e+10
1.134000e+03 4.647822e+10
1.135000e+03 1.073136e+09
1.136000e+03 4.643102e+10
1.137000e+03 5.104859e+10
1.138000e+03 5.047443e+10
1.139000e+03 5.103314e+10
1.140000e+03 1.277194e+09
1.141000e+03 5.343906e+10
1.142000e+03 5.020523e+10
1.143000e+03 5.431652e+10
1.144000e+03 5.557434e+10
1.145000e+03 3.850226e+10
1.146000e+03 5.661841e+10
1.147000e+03 5.641247e+10
1.148000e+03 5.176706e+10
1.149000e+03 5.850480e+10
1.150000e+03 5.578929e+10
1.151000e+03 5.960267e+10
1.152000e+03 5.964291e+10
1.153000e+03 1.327555e+10
1.154000e+03 3.232911e+09
1.155000e+03 4.306158e+10
1.156000e+03 1.420530e+10
1.157000e+03 6.376215e+10
1.158000e+03 1.792437e+09
1.159000e+03 5.185376e+10
1.160000e+03 6.004899e+10
1.161000e+03 6.691768e+10
1.162000e+03 1.113978e+10
1.163000e+03 6.346047e+10
1.164000e+03 3.022801e+09
1.165000e+03 6.989333e+10
1.166000e+03 6.906527e+10
1.167000e+03 6.569218e+10
1.168000e+03 7.241257e+10
1.169000e+03 7.114800e+10
1.170000e+03 7.393872e+10
1.171000e+03 7.454329e+10
1.172000e+03 6.979736e+10
1.173000e+03 7.615625e+10
1.174000e+03 6.678067e+10
1.175000e+03 3.270836e+09
1.176000e+03 2.509947e+09
1.177000e+03 7.865144e+10
1.178000e+03 7.001445e+10
1.179000e+03 8.097373e+10
1.180000e+03 5.886466e+10
1.181000e+03 8.128018e+10
1.182000e+03 8.338057e+10
1.183000e+03 8.378728e+10
1.184000e+03 8.428857e+10
1.185000e+03 8.081049e+10
1.186000e+03 8.368406e+10
1.187000e+03 8.619092e+10
1.188000e+03 8.147865e+10
1.189000e+03 2.787086e+09
1.190000e+03 1.197278e+10
1.191000e+03 8.497040e+10
1.192000e+03 8.602208e+10
1.193000e+03 2.412532e+09
1.194000e+03 3.184746e+09
1.195000e+03 4.971534e+10
1.196000e+03 8.512841e+10
1.197000e+03 9.997181e+10
1.198000e+03 9.912563e+10
1.199000e+03 9.796658e+10
1.200000e+03 8.659597e+10
1.201000e+03 9.112987e+10
1.202000e+03 8.842360e+10
1.203000e+03 9.466886e+10
1.204000e+03 8.354542e+10
1.205000e+03 8.034453e+10
1.206000e+03 6.373560e+10
1.207000e+03 2.462620e+10
1.208000e+03 5.525281e+10
1.209000e+03 4.189974e+10
1.210000e+03 4.673753e+09
1.211000e+03 2.613353e+10
1.212000e+03 1.733936e+10
1.213000e+03 1.112360e+10
1.214000e+03 6.491352e+09
1.215000e+03 3.984871e+09
1.216000e+03 3.574482e+09
1.217000e+03 5.634966e+09
1.218000e+03 9.957263e+09
1.219000e+03 1.687116e+10
1.220000e+03 2.607014e+10
1.221000e+03 3.723438e+10
1.222000e+03 4.956179e+10
1.223000e+03 6.278156e+10
1.224000e+03 7.641077e+10
1.225000e+03 8.816747e+10
1.226000e+03 1.023860e+11
1.227000e+03 1.155368e+11
1.228000e+03 1.277244e+11
1.229000e+03 1.397583e+11
1.230000e+03 1.506379e+11
1.231000e+03 1.612561e+11
1.232000e+03 1.756780e+11
1.233000e+03 1.860251e+11
1.234000e+03 1.266852e+11
1.235000e+03 2.038349e+11
1.236000e+03 2.061270e+11
1.237000e+03 2.212321e+11
1.238000e+03 2.275682e+11
1.239000e+03 2.356429e+11
1.240000e+03 2.193883e+11
1.241000e+03 4.055727e+11
1.242000e+03 2.112225e+11
1.243000e+03 3.182834e+11
1.244000e+03 1.239803e+11
1.245000e+03 1.903388e+11
1.246000e+03 6.097924e+11
1.247000e+03 6.273455e+11
1.248000e+03 1.336067e+11
1.249000e+03 1.670129e+11
1.250000e+03 7.364681e+11
1.251000e+03 7.691785e+11
1.252000e+03 7.427312e+11
1.253000e+03 8.250421e+11
1.254000e+03 8.117219e+11
1.255000e+03 8.615077e+11
1.256000e+03 8.424456e+11
1.257000e+03 9.104065e+11
1.258000e+03 8.406507e+11
1.259000e+03 8.725744e+11
1.260000e+03 7.677324e+11
1.261000e+03 7.374177e+09
1.262000e+03 7.634584e+10
1.263000e+03 1.002675e+12
1.264000e+03 8.470027e+11
1.265000e+03 7.139705e+09
1.266000e+03 1.021166e+12
1.267000e+03 1.028773e+12
