# wavelength_A flux
5.000000e+02 1.951696e-19
5.010000e+02 2.332784e-19
5.020000e+02 2.786238e-19
5.030000e+02 3.325411e-19
5.040000e+02 3.966038e-19
5.050000e+02 4.283751e-19
5.060000e+02 5.105697e-19
5.070000e+02 6.080977e-19
5.080000e+02 7.237376e-19
5.090000e+02 8.607556e-19
5.100000e+02 1.023000e-18
5.110000e+02 1.214952e-18
5.120000e+02 1.441926e-18
5.130000e+02 1.710116e-18
5.140000e+02 2.026788e-18
5.150000e+02 2.400582e-18
5.160000e+02 2.841073e-18
5.170000e+02 3.360868e-18
5.180000e+02 3.971723e-18
5.190000e+02 4.691269e-18
5.200000e+02 5.537490e-18
5.210000e+02 6.532083e-18
5.220000e+02 7.703801e-18
5.230000e+02 9.071366e-18
5.240000e+02 1.067938e-17
5.250000e+02 1.256437e-17
5.260000e+02 1.477275e-17
5.270000e+02 1.735821e-17
5.280000e+02 2.038319e-17
5.290000e+02 2.394575e-17
5.300000e+02 2.805348e-17
5.310000e+02 3.288026e-17
5.320000e+02 3.851353e-17
5.330000e+02 4.508423e-17
5.340000e+02 5.274359e-17
5.350000e+02 6.166680e-17
5.360000e+02 7.205787e-17
5.370000e+02 8.833821e-17
5.380000e+02 9.820864e-17
5.390000e+02 1.145432e-16
5.400000e+02 1.335113e-16
5.410000e+02 1.555947e-16
5.420000e+02 1.810986e-16
5.430000e+02 2.107221e-16
5.440000e+02 2.450579e-16
5.450000e+02 2.848241e-16
5.460000e+02 3.311083e-16
5.470000e+02 3.841022e-16
5.480000e+02 4.456704e-16
5.490000e+02 5.168104e-16
5.500000e+02 5.989738e-16
5.510000e+02 6.938105e-16
5.520000e+02 8.032182e-16
5.530000e+02 9.293655e-16
5.540000e+02 1.074735e-15
5.550000e+02 1.242164e-15
5.560000e+02 1.434897e-15
5.570000e+02 1.656640e-15
5.580000e+02 1.911624e-15
5.590000e+02 2.204677e-15
5.600000e+02 2.541305e-15
5.610000e+02 2.927786e-15
5.620000e+02 3.371271e-15
5.630000e+02 3.879906e-15
5.640000e+02 4.462961e-15
5.650000e+02 5.131025e-15
5.660000e+02 5.895963e-15
5.670000e+02 6.771545e-15
5.680000e+02 7.773173e-15
5.690000e+02 8.918466e-15
5.700000e+02 1.022738e-14
5.710000e+02 1.172248e-14
5.720000e+02 1.342949e-14
5.730000e+02 1.537746e-14
5.740000e+02 1.759931e-14
5.750000e+02 2.013113e-14
5.760000e+02 2.302809e-14
5.770000e+02 2.630465e-14
5.780000e+02 3.004695e-14
5.790000e+02 3.430522e-14
5.800000e+02 3.914834e-14
5.810000e+02 4.465412e-14
5.820000e+02 5.091057e-14
5.830000e+02 5.801848e-14
5.840000e+02 6.615508e-14
5.850000e+02 7.525328e-14
5.860000e+02 8.561575e-14
5.870000e+02 9.738127e-14
5.880000e+02 1.107144e-13
5.890000e+02 1.258240e-13
5.900000e+02 1.429150e-13
5.910000e+02 1.622648e-13
5.920000e+02 1.841497e-13
5.930000e+02 2.088944e-13
5.940000e+02 2.368592e-13
5.950000e+02 2.684495e-13
5.960000e+02 3.041192e-13
5.970000e+02 3.443783e-13
5.980000e+02 3.897976e-13
5.990000e+02 4.410166e-13
6.000000e+02 4.987513e-13
6.010000e+02 5.640863e-13
6.020000e+02 6.370683e-13
6.030000e+02 7.195513e-13
6.040000e+02 8.123677e-13
6.050000e+02 9.167746e-13
6.060000e+02 1.034172e-12
6.070000e+02 1.166112e-12
6.080000e+02 1.314346e-12
6.090000e+02 1.480815e-12
6.100000e+02 1.667695e-12
6.110000e+02 1.877379e-12
6.120000e+02 2.112581e-12
6.130000e+02 2.376294e-12
6.140000e+02 2.671857e-12
6.150000e+02 3.002984e-12
6.160000e+02 3.373811e-12
6.170000e+02 3.788934e-12
6.180000e+02 4.253466e-12
6.190000e+02 4.773088e-12
6.200000e+02 5.354103e-12
6.210000e+02 6.003525e-12
6.220000e+02 6.729128e-12
6.230000e+02 7.539543e-12
6.240000e+02 8.444336e-12
6.250000e+02 9.454128e-12
6.260000e+02 1.058068e-11
6.270000e+02 1.183703e-11
6.280000e+02 1.323760e-11
6.290000e+02 1.479840e-11
6.300000e+02 1.653713e-11
6.310000e+02 1.849860e-11
6.320000e+02 2.062859e-11
6.330000e+02 2.302880e-11
6.340000e+02 2.569486e-11
6.350000e+02 2.866241e-11
6.360000e+02 3.196011e-11
6.370000e+02 3.562355e-11
6.380000e+02 3.969391e-11
6.390000e+02 4.421370e-11
6.400000e+02 4.923078e-11
6.410000e+02 5.479794e-11
6.420000e+02 6.097335e-11
6.430000e+02 6.782113e-11
6.440000e+02 7.541188e-11
6.450000e+02 8.382339e-11
6.460000e+02 9.314113e-11
6.470000e+02 1.034594e-10
6.480000e+02 1.148817e-10
6.490000e+02 1.275221e-10
6.500000e+02 1.415066e-10
6.510000e+02 1.569702e-10
6.520000e+02 1.740666e-10
6.530000e+02 1.929612e-10
6.540000e+02 2.138362e-10
6.550000e+02 2.368917e-10
6.560000e+02 2.623474e-10
6.570000e+02 2.904618e-10
6.580000e+02 3.214454e-10
6.590000e+02 3.556413e-10
6.600000e+02 3.933526e-10
6.610000e+02 4.349157e-10
6.620000e+02 4.807224e-10
6.630000e+02 5.311853e-10
6.640000e+02 5.867608e-10
6.650000e+02 6.479516e-10
6.660000e+02 7.152922e-10
6.670000e+02 7.893908e-10
6.680000e+02 8.708960e-10
6.690000e+02 9.605212e-10
6.700000e+02 1.059046e-09
6.710000e+02 1.167320e-09
6.720000e+02 1.286274e-09
6.730000e+02 1.416922e-09
6.740000e+02 1.560370e-09
6.750000e+02 1.717827e-09
6.760000e+02 1.890609e-09
6.770000e+02 2.080154e-09
6.780000e+02 2.288025e-09
6.790000e+02 2.515930e-09
6.800000e+02 2.765727e-09
6.810000e+02 3.039439e-09
6.820000e+02 3.339272e-09
6.830000e+02 3.667622e-09
6.840000e+02 4.027103e-09
6.850000e+02 4.420589e-09
6.860000e+02 4.851062e-09
6.870000e+02 5.322008e-09
6.880000e+02 5.836984e-09
6.890000e+02 6.400015e-09
6.900000e+02 7.015393e-09
6.910000e+02 7.687799e-09
6.920000e+02 8.422318e-09
6.930000e+02 9.224470e-09
6.940000e+02 1.010024e-08
6.950000e+02 1.105614e-08
6.960000e+02 1.209920e-08
6.970000e+02 1.323747e-08
6.980000e+02 1.447807e-08
6.990000e+02 1.583114e-08
7.000000e+02 1.730604e-08
7.010000e+02 1.891330e-08
7.020000e+02 2.066435e-08
7.030000e+02 2.257156e-08
7.040000e+02 2.464830e-08
7.050000e+02 2.690908e-08
7.060000e+02 2.936962e-08
7.070000e+02 3.204670e-08
7.080000e+02 3.495883e-08
7.090000e+02 3.812618e-08
7.100000e+02 4.156899e-08
7.110000e+02 4.531160e-08
7.120000e+02 4.937862e-08
7.130000e+02 5.379708e-08
7.140000e+02 5.859615e-08
7.150000e+02 6.380740e-08
7.160000e+02 6.946463e-08
7.170000e+02 7.560524e-08
7.180000e+02 8.226924e-08
7.190000e+02 8.949463e-08
7.200000e+02 9.733316e-08
7.210000e+02 1.058324e-07
7.220000e+02 1.150458e-07
7.230000e+02 1.250309e-07
7.240000e+02 1.358500e-07
7.250000e+02 1.475698e-07
7.260000e+02 1.602626e-07
7.270000e+02 1.740050e-07
7.280000e+02 1.888813e-07
7.290000e+02 2.049811e-07
7.300000e+02 2.224009e-07
7.310000e+02 2.412446e-07
7.320000e+02 2.616238e-07
7.330000e+02 2.836587e-07
7.340000e+02 3.074784e-07
7.350000e+02 3.332215e-07
7.360000e+02 3.610377e-07
7.370000e+02 3.910851e-07
7.380000e+02 4.235378e-07
7.390000e+02 4.585794e-07
7.400000e+02 4.964118e-07
7.410000e+02 5.372371e-07
7.420000e+02 5.812981e-07
7.430000e+02 6.288236e-07
7.440000e+02 6.800886e-07
7.450000e+02 7.353706e-07
7.460000e+02 7.949714e-07
7.470000e+02 8.592144e-07
7.480000e+02 9.284464e-07
7.490000e+02 1.003039e-06
7.500000e+02 1.083390e-06
7.510000e+02 1.169925e-06
7.520000e+02 1.263101e-06
7.530000e+02 1.363406e-06
7.540000e+02 1.471363e-06
7.550000e+02 1.587533e-06
7.560000e+02 1.712512e-06
7.570000e+02 1.847025e-06
7.580000e+02 1.991507e-06
7.590000e+02 2.146956e-06
7.600000e+02 2.314026e-06
7.610000e+02 2.493592e-06
7.620000e+02 2.686538e-06
7.630000e+02 2.893825e-06
7.640000e+02 3.116469e-06
7.650000e+02 3.355562e-06
7.660000e+02 3.612258e-06
7.670000e+02 3.887810e-06
7.680000e+02 4.183585e-06
7.690000e+02 4.500861e-06
7.700000e+02 4.841282e-06
7.710000e+02 5.206420e-06
7.720000e+02 5.597986e-06
7.730000e+02 6.017817e-06
7.740000e+02 6.467864e-06
7.750000e+02 6.950207e-06
7.760000e+02 7.468775e-06
7.770000e+02 8.020805e-06
7.780000e+02 8.613938e-06
7.790000e+02 9.249155e-06
7.800000e+02 9.929311e-06
7.810000e+02 1.065744e-05
7.820000e+02 1.143680e-05
7.830000e+02 1.227082e-05
7.840000e+02 1.316317e-05
7.850000e+02 1.411776e-05
7.860000e+02 1.513877e-05
7.870000e+02 1.623046e-05
7.880000e+02 1.739775e-05
7.890000e+02 1.864553e-05
7.900000e+02 1.997913e-05
7.910000e+02 2.140417e-05
7.920000e+02 2.292666e-05
7.930000e+02 2.455297e-05
7.940000e+02 2.628986e-05
7.950000e+02 2.814454e-05
7.960000e+02 3.012463e-05
7.970000e+02 3.223824e-05
7.980000e+02 3.449397e-05
7.990000e+02 3.690097e-05
8.000000e+02 3.946892e-05
8.010000e+02 4.220824e-05
8.020000e+02 4.512947e-05
8.030000e+02 4.824455e-05
8.040000e+02 5.156564e-05
8.050000e+02 5.510575e-05
8.060000e+02 5.887869e-05
8.070000e+02 6.289909e-05
8.080000e+02 6.718245e-05
8.090000e+02 7.174519e-05
8.100000e+02 7.660474e-05
8.110000e+02 8.177952e-05
8.120000e+02 8.728908e-05
8.130000e+02 9.315406e-05
8.140000e+02 9.939641e-05
8.150000e+02 1.060393e-04
8.160000e+02 1.131072e-04
8.170000e+02 1.206263e-04
8.180000e+02 1.286238e-04
8.190000e+02 1.371289e-04
8.200000e+02 1.461723e-04
8.210000e+02 1.557867e-04
8.220000e+02 1.660063e-04
8.230000e+02 1.768675e-04
8.240000e+02 1.884089e-04
8.250000e+02 2.006709e-04
8.260000e+02 2.136967e-04
8.270000e+02 2.275314e-04
8.280000e+02 2.422232e-04
8.290000e+02 2.578226e-04
8.300000e+02 2.743832e-04
8.310000e+02 2.919614e-04
8.320000e+02 3.106168e-04
8.330000e+02 3.304125e-04
8.340000e+02 3.514150e-04
8.350000e+02 3.737369e-04
8.360000e+02 3.973270e-04
8.370000e+02 4.223837e-04
8.380000e+02 4.489617e-04
8.390000e+02 4.771232e-04
8.400000e+02 5.069821e-04
8.410000e+02 5.386277e-04
8.420000e+02 5.721744e-04
8.430000e+02 6.076919e-04
8.440000e+02 6.453312e-04
8.450000e+02 6.851990e-04
8.460000e+02 7.274211e-04
8.470000e+02 7.721301e-04
8.480000e+02 8.194653e-04
8.490000e+02 8.695740e-04
8.500000e+02 9.226108e-04
8.510000e+02 9.787387e-04
8.520000e+02 1.038132e-03
8.530000e+02 1.100964e-03
8.540000e+02 1.167426e-03
8.550000e+02 1.237727e-03
8.560000e+02 1.312073e-03
8.570000e+02 1.390685e-03
8.580000e+02 1.473796e-03
8.590000e+02 1.561651e-03
8.600000e+02 1.654508e-03
8.610000e+02 1.752639e-03
8.620000e+02 1.856328e-03
8.630000e+02 1.965878e-03
8.640000e+02 2.081595e-03
8.650000e+02 2.203827e-03
8.660000e+02 2.332897e-03
8.670000e+02 2.469191e-03
8.680000e+02 2.613088e-03
8.690000e+02 2.764990e-03
8.700000e+02 2.925321e-03
8.710000e+02 3.094526e-03
8.720000e+02 3.273072e-03
8.730000e+02 3.461451e-03
8.740000e+02 3.660177e-03
8.750000e+02 3.869791e-03
8.760000e+02 4.090860e-03
8.770000e+02 4.323991e-03
8.780000e+02 4.569774e-03
8.790000e+02 4.828900e-03
8.800000e+02 5.102044e-03
8.810000e+02 5.389927e-03
8.820000e+02 5.693305e-03
8.830000e+02 6.012972e-03
8.840000e+02 6.349758e-03
8.850000e+02 6.704536e-03
8.860000e+02 7.078220e-03
8.870000e+02 7.471764e-03
8.880000e+02 7.886175e-03
8.890000e+02 8.322502e-03
8.900000e+02 8.781848e-03
8.910000e+02 9.265367e-03
8.920000e+02 9.786339e-03
8.930000e+02 1.030981e-02
8.940000e+02 1.087333e-02
8.950000e+02 1.146621e-02
8.960000e+02 1.208990e-02
8.970000e+02 1.274593e-02
8.980000e+02 1.343588e-02
8.990000e+02 1.416142e-02
9.000000e+02 1.492431e-02
9.010000e+02 1.572635e-02
9.020000e+02 1.656946e-02
9.030000e+02 1.745564e-02
9.040000e+02 1.838697e-02
9.050000e+02 1.936568e-02
9.060000e+02 2.039394e-02
9.070000e+02 2.147448e-02
9.080000e+02 2.260906e-02
9.090000e+02 2.380099e-02
9.100000e+02 2.505276e-02
9.110000e+02 2.636714e-02
9.120000e+02 2.774670e-02
9.130000e+02 2.942242e-02
9.140000e+02 2.830863e-02
9.150000e+02 5.068220e-01
9.160000e+02 8.100762e-01
9.170000e+02 7.704617e-01
9.180000e+02 8.701888e-01
9.190000e+02 9.265909e-01
9.200000e+02 9.668573e-01
9.210000e+02 4.402788e-02
9.220000e+02 1.042283e+00
9.230000e+02 1.067280e+00
9.240000e+02 1.064673e+00
9.250000e+02 1.119828e+00
9.260000e+02 1.213965e+00
9.270000e+02 1.134030e+00
9.280000e+02 1.335567e+00
9.290000e+02 1.373540e+00
9.300000e+02 1.396418e+00
9.310000e+02 1.300731e+00
9.320000e+02 1.568370e+00
9.330000e+02 1.627996e+00
9.340000e+02 1.694746e+00
9.350000e+02 1.204836e-02
9.360000e+02 1.350660e+00
9.370000e+02 1.374044e-02
9.380000e+02 2.069399e-01
9.390000e+02 1.892547e+00
9.400000e+02 2.145312e+00
9.410000e+02 4.235268e-02
9.420000e+02 2.322443e+00
9.430000e+02 2.336668e+00
9.440000e+02 1.460058e+00
9.450000e+02 2.604844e+00
9.460000e+02 2.692406e+00
9.470000e+02 9.198602e-01
9.480000e+02 9.311728e-01
9.490000e+02 2.954204e+00
9.500000e+02 2.691686e-02
9.510000e+02 3.134042e+00
9.520000e+02 3.405644e+00
9.530000e+02 2.531160e+00
9.540000e+02 1.313782e+00
9.550000e+02 3.699454e+00
9.560000e+02 9.112976e-01
9.570000e+02 4.977250e-01
9.580000e+02 1.000275e+00
9.590000e+02 4.580143e+00
9.600000e+02 4.171896e-02
9.610000e+02 4.899287e+00
9.620000e+02 5.029974e+00
9.630000e+02 5.028321e+00
9.640000e+02 2.696352e-01
9.650000e+02 2.762479e+00
9.660000e+02 5.709480e+00
9.670000e+02 5.058704e+00
9.680000e+02 4.577122e+00
9.690000e+02 6.464047e+00
9.700000e+02 6.768882e+00
9.710000e+02 5.734077e+00
9.720000e+02 4.598907e+00
9.730000e+02 5.174858e+00
9.740000e+02 7.587191e+00
9.750000e+02 7.816649e+00
9.760000e+02 8.708517e+00
9.770000e+02 9.059723e+00
9.780000e+02 9.215749e+00
9.790000e+02 9.839823e+00
9.800000e+02 1.019600e+01
9.810000e+02 1.041558e+01
9.820000e+02 1.005911e+01
9.830000e+02 1.140862e+01
9.840000e+02 6.406833e-01
9.850000e+02 1.160995e+01
9.860000e+02 1.215888e+01
9.870000e+02 1.324097e+01
9.880000e+02 7.051403e+00
9.890000e+02 1.033034e+01
9.900000e+02 2.472545e-01
9.910000e+02 1.106440e+01
9.920000e+02 2.100474e+00
9.930000e+02 1.304615e+01
9.940000e+02 4.791927e-01
9.950000e+02 4.262749e-01
9.960000e+02 1.198490e+01
9.970000e+02 2.196579e-01
9.980000e+02 1.933994e+01
9.990000e+02 1.130451e+01
1.000000e+03 2.038064e+01
1.001000e+03 2.209707e+01
1.002000e+03 2.288112e+01
1.003000e+03 2.005559e+01
1.004000e+03 1.305213e+01
1.005000e+03 2.179074e+01
1.006000e+03 2.636937e+01
1.007000e+03 2.726229e+01
1.008000e+03 2.805058e+01
1.009000e+03 2.584883e+01
1.010000e+03 3.027774e+01
1.011000e+03 3.139723e+01
1.012000e+03 3.244029e+01
1.013000e+03 3.354805e+01
1.014000e+03 4.397989e+00
1.015000e+03 1.486527e+01
1.016000e+03 3.348811e+01
1.017000e+03 4.655022e+00
1.018000e+03 3.536713e+01
1.019000e+03 1.726736e+01
1.020000e+03 4.188207e+01
1.021000e+03 1.923244e+00
1.022000e+03 2.208391e+01
1.023000e+03 2.167073e+01
1.024000e+03 2.570698e+01
1.025000e+03 2.563074e+00
1.026000e+03 1.102834e+00
1.027000e+03 2.651446e+01
1.028000e+03 8.345108e-01
1.029000e+03 7.497204e+00
1.030000e+03 5.400043e+01
1.031000e+03 5.848582e+01
1.032000e+03 5.907218e+01
1.033000e+03 1.498108e+00
1.034000e+03 6.673739e+01
1.035000e+03 1.718452e+00
1.036000e+03 1.061855e+01
1.037000e+03 7.552115e+01
1.038000e+03 7.886118e+01
1.039000e+03 7.930835e+01
1.040000e+03 8.431840e+01
1.041000e+03 8.160702e+01
1.042000e+03 9.017770e+01
1.043000e+03 7.330842e+01
1.044000e+03 9.665493e+01
1.045000e+03 9.920305e+01
1.046000e+03 1.032263e+02
1.047000e+03 1.045410e+02
1.048000e+03 7.350282e+01
1.049000e+03 9.812700e+01
1.050000e+03 1.131763e+02
1.051000e+03 1.129887e+02
1.052000e+03 1.259074e+02
1.053000e+03 1.298340e+02
1.054000e+03 1.706785e+01
1.055000e+03 1.264773e+02
1.056000e+03 1.438509e+02
1.057000e+03 1.466328e+02
1.058000e+03 1.448596e+02
1.059000e+03 1.343112e+02
1.060000e+03 1.076202e+02
1.061000e+03 1.680085e+02
1.062000e+03 1.559163e+02
1.063000e+03 3.052919e+00
1.064000e+03 8.044830e+00
1.065000e+03 3.027167e+01
1.066000e+03 4.066441e+01
1.067000e+03 1.492731e+02
1.068000e+03 2.118829e+02
1.069000e+03 9.851637e+01
1.070000e+03 2.218266e+02
1.071000e+03 2.332813e+02
1.072000e+03 2.407538e+02
1.073000e+03 6.067392e+01
1.074000e+03 2.515841e+02
1.075000e+03 2.563850e+02
1.076000e+03 2.721294e+02
1.077000e+03 2.882768e+01
1.078000e+03 2.639510e+02
1.079000e+03 2.900696e+02
1.080000e+03 2.996555e+02
1.081000e+03 3.175054e+02
1.082000e+03 3.256456e+02
1.083000e+03 3.338720e+02
1.084000e+03 3.460659e+02
1.085000e+03 8.748279e+01
1.086000e+03 3.704597e+02
1.087000e+03 3.060003e+02
1.088000e+03 3.880111e+02
1.089000e+03 4.045902e+02
1.090000e+03 3.900273e+02
1.091000e+03 4.019432e+02
1.092000e+03 4.316341e+02
1.093000e+03 4.522629e+02
1.094000e+03 4.636245e+02
1.095000e+03 4.806973e+02
1.096000e+03 2.851335e+02
1.097000e+03 4.768109e+02
1.098000e+03 5.029999e+02
1.099000e+03 5.249382e+02
1.100000e+03 2.856781e+02
1.101000e+03 3.855152e+02
1.102000e+03 1.136401e+03
1.103000e+03 3.645110e+03
1.104000e+03 1.531393e+03
1.105000e+03 5.791147e+02
1.106000e+03 6.571577e+03
1.107000e+03 8.639924e+02
1.108000e+03 7.071604e+03
1.109000e+03 3.443023e+03
1.110000e+03 2.309515e+03
1.111000e+03 1.480249e+03
1.112000e+03 7.026098e+03
1.113000e+03 7.738437e+03
1.114000e+03 4.230464e+02
1.115000e+03 5.522499e+03
1.116000e+03 4.977368e+03
1.117000e+03 4.600322e+02
1.118000e+03 4.080787e+03
1.119000e+03 8.651521e+03
1.120000e+03 5.324199e+03
1.121000e+03 8.801094e+03
1.122000e+03 1.198887e+02
1.123000e+03 1.433866e+03
1.124000e+03 9.585685e+03
1.125000e+03 6.271750e+03
1.126000e+03 9.997765e+03
1.127000e+03 9.690298e+03
1.128000e+03 4.632568e+03
1.129000e+03 1.013464e+04
1.130000e+03 9.126120e+03
1.131000e+03 1.069392e+04
1.132000e+03 6.430957e+01
1.133000e+03 8.012861e+03
1.134000e+03 1.060332e+04
1.135000e+03 4.078418e+01
1.136000e+03 1.058299e+04
1.137000e+03 1.207481e+04
1.138000e+03 1.197380e+04
1.139000e+03 1.233363e+04
1.140000e+03 1.089155e+02
1.141000e+03 1.297855e+04
1.142000e+03 1.321292e+04
1.143000e+03 1.294375e+04
1.144000e+03 1.353759e+04
1.145000e+03 3.686137e+03
1.146000e+03 1.418223e+04
1.147000e+03 1.412662e+04
1.148000e+03 1.053620e+04
1.149000e+03 1.483678e+04
1.150000e+03 1.495858e+04
1.151000e+03 1.530015e+04
1.152000e+03 1.571930e+04
1.153000e+03 6.139297e+03
1.154000e+03 1.482217e+04
1.155000e+03 1.641075e+04
1.156000e+03 6.566316e+03
1.157000e+03 1.685082e+04
1.158000e+03 2.556666e+02
1.159000e+03 1.595381e+04
1.160000e+03 1.757771e+04
1.161000e+03 1.830502e+04
1.162000e+03 5.182951e+03
1.163000e+03 1.778288e+04
1.164000e+03 1.044141e+02
1.165000e+03 1.960065e+04
1.166000e+03 1.996252e+04
1.167000e+03 2.037949e+04
1.168000e+03 2.100912e+04
1.169000e+03 2.066028e+04
1.170000e+03 2.174088e+04
1.171000e+03 2.235691e+04
1.172000e+03 2.247709e+04
1.173000e+03 2.339388e+04
1.174000e+03 1.348632e+04
1.175000e+03 1.657969e+02
1.176000e+03 3.174727e+02
1.177000e+03 2.543286e+04
1.178000e+03 2.574592e+04
1.179000e+03 2.641489e+04
1.180000e+03 2.224344e+04
1.181000e+03 2.737310e+04
1.182000e+03 2.808865e+04
1.183000e+03 2.850191e+04
1.184000e+03 2.894908e+04
1.185000e+03 2.955162e+04
1.186000e+03 2.566615e+04
1.187000e+03 3.045596e+04
1.188000e+03 3.007213e+04
1.189000e+03 4.572227e+02
1.190000e+03 8.165338e+03
1.191000e+03 3.164103e+04
1.192000e+03 3.193965e+04
1.193000e+03 1.231607e+03
1.194000e+03 5.415820e+02
1.195000e+03 2.886799e+04
1.196000e+03 3.255054e+04
1.197000e+03 6.730409e+04
1.198000e+03 5.925505e+04
1.199000e+03 6.345391e+04
1.200000e+03 5.087820e+04
1.201000e+03 5.706977e+04
1.202000e+03 5.496678e+04
1.203000e+03 8.278505e+04
1.204000e+03 6.528698e+04
1.205000e+03 6.210641e+04
1.206000e+03 5.801443e+04
1.207000e+03 1.428434e+03
1.208000e+03 3.310333e+04
1.209000e+03 2.041890e+04
1.210000e+03 7.015049e+02
1.211000e+03 7.440543e+03
1.212000e+03 3.305804e+03
1.213000e+03 1.363141e+03
1.214000e+03 5.430422e+02
1.215000e+03 6.297303e+02
1.216000e+03 1.419141e+03
1.217000e+03 4.808479e+02
1.218000e+03 1.111678e+03
1.219000e+03 2.991289e+03
1.220000e+03 7.086285e+03
1.221000e+03 1.429574e+04
1.222000e+03 2.550147e+04
1.223000e+03 3.978906e+04
1.224000e+03 5.606995e+04
1.225000e+03 6.701688e+04
1.226000e+03 1.012638e+05
1.227000e+03 1.230426e+05
1.228000e+03 1.444975e+05
1.229000e+03 1.763755e+05
1.230000e+03 1.265960e+05
1.231000e+03 1.977272e+05
1.232000e+03 2.540540e+05
1.233000e+03 2.805717e+05
1.234000e+03 1.352324e+05
1.235000e+03 3.293650e+05
1.236000e+03 3.267164e+05
1.237000e+03 3.755619e+05
1.238000e+03 3.974928e+05
1.239000e+03 4.154767e+05
1.240000e+03 2.007862e+05
1.241000e+03 5.012609e+05
1.242000e+03 4.423535e+05
1.243000e+03 5.287326e+05
1.244000e+03 3.674918e+05
1.245000e+03 4.659457e+05
1.246000e+03 6.579374e+05
1.247000e+03 6.728007e+05
1.248000e+03 3.135219e+05
1.249000e+03 4.891936e+05
1.250000e+03 6.714562e+05
1.251000e+03 7.810639e+05
1.252000e+03 7.801924e+05
1.253000e+03 8.256659e+05
1.254000e+03 8.382299e+05
1.255000e+03 7.353928e+05
1.256000e+03 8.691282e+05
1.257000e+03 8.244741e+05
1.258000e+03 8.781762e+05
1.259000e+03 9.337807e+05
1.260000e+03 8.648825e+05
1.261000e+03 5.828977e+03
1.262000e+03 3.592049e+05
1.263000e+03 9.517456e+05
1.264000e+03 9.790489e+05
1.265000e+03 8.523875e+03
1.266000e+03 1.083559e+06
1.267000e+03 1.103024e+06
