# wavelength_A flux
5.000000e+02 1.433012e-02
5.010000e+02 1.583345e-02
5.020000e+02 1.748720e-02
5.030000e+02 1.930569e-02
5.040000e+02 2.130451e-02
5.050000e+02 2.394000e-02
5.060000e+02 2.639308e-02
5.070000e+02 2.908631e-02
5.080000e+02 3.204154e-02
5.090000e+02 3.528420e-02
5.100000e+02 3.883827e-02
5.110000e+02 4.273359e-02
5.120000e+02 4.700078e-02
5.130000e+02 5.167423e-02
5.140000e+02 5.679018e-02
5.150000e+02 6.238872e-02
5.160000e+02 6.851399e-02
5.170000e+02 7.520939e-02
5.180000e+02 8.253264e-02
5.190000e+02 9.053236e-02
5.200000e+02 9.927051e-02
5.210000e+02 1.088114e-01
5.220000e+02 1.192155e-01
5.230000e+02 1.305882e-01
5.240000e+02 1.429805e-01
5.250000e+02 1.564958e-01
5.260000e+02 1.712249e-01
5.270000e+02 1.872731e-01
5.280000e+02 2.047487e-01
5.290000e+02 2.237439e-01
5.300000e+02 2.444942e-01
5.310000e+02 2.670323e-01
5.320000e+02 2.915474e-01
5.330000e+02 3.182020e-01
5.340000e+02 3.471740e-01
5.350000e+02 3.786540e-01
5.360000e+02 4.128459e-01
5.370000e+02 4.455745e-01
5.380000e+02 4.902752e-01
5.390000e+02 5.340176e-01
5.400000e+02 5.814617e-01
5.410000e+02 6.328797e-01
5.420000e+02 6.886836e-01
5.430000e+02 7.491341e-01
5.440000e+02 8.146208e-01
5.450000e+02 8.855457e-01
5.460000e+02 9.622228e-01
5.470000e+02 1.045451e+00
5.480000e+02 1.135363e+00
5.490000e+02 1.232643e+00
5.500000e+02 1.337834e+00
5.510000e+02 1.451549e+00
5.520000e+02 1.574440e+00
5.530000e+02 1.707205e+00
5.540000e+02 1.850598e+00
5.550000e+02 2.005412e+00
5.560000e+02 2.172514e+00
5.570000e+02 2.352840e+00
5.580000e+02 2.547343e+00
5.590000e+02 2.757127e+00
5.600000e+02 2.983298e+00
5.610000e+02 3.227067e+00
5.620000e+02 3.489726e+00
5.630000e+02 3.772660e+00
5.640000e+02 4.077344e+00
5.650000e+02 4.405355e+00
5.660000e+02 4.758389e+00
5.670000e+02 5.138151e+00
5.680000e+02 5.546736e+00
5.690000e+02 5.986113e+00
5.700000e+02 6.458434e+00
5.710000e+02 6.966085e+00
5.720000e+02 7.511565e+00
5.730000e+02 8.097519e+00
5.740000e+02 8.726767e+00
5.750000e+02 9.402438e+00
5.760000e+02 1.012663e+01
5.770000e+02 1.090559e+01
5.780000e+02 1.174025e+01
5.790000e+02 1.263538e+01
5.800000e+02 1.359513e+01
5.810000e+02 1.462388e+01
5.820000e+02 1.572628e+01
5.830000e+02 1.690722e+01
5.840000e+02 1.816810e+01
5.850000e+02 1.952561e+01
5.860000e+02 2.097662e+01
5.870000e+02 2.252871e+01
5.880000e+02 2.418939e+01
5.890000e+02 2.596552e+01
5.900000e+02 2.786558e+01
5.910000e+02 2.989681e+01
5.920000e+02 3.206805e+01
5.930000e+02 3.438820e+01
5.940000e+02 3.686721e+01
5.950000e+02 3.951395e+01
5.960000e+02 4.234244e+01
5.970000e+02 4.536137e+01
5.980000e+02 4.858369e+01
5.990000e+02 5.202216e+01
6.000000e+02 5.569071e+01
6.010000e+02 5.960140e+01
6.020000e+02 6.377506e+01
6.030000e+02 6.822351e+01
6.040000e+02 7.296510e+01
6.050000e+02 7.801782e+01
6.060000e+02 8.340072e+01
6.070000e+02 8.913468e+01
6.080000e+02 9.524058e+01
6.090000e+02 1.017413e+02
6.100000e+02 1.086607e+02
6.110000e+02 1.160244e+02
6.120000e+02 1.238589e+02
6.130000e+02 1.321926e+02
6.140000e+02 1.410551e+02
6.150000e+02 1.504784e+02
6.160000e+02 1.604953e+02
6.170000e+02 1.711404e+02
6.180000e+02 1.824484e+02
6.190000e+02 1.944650e+02
6.200000e+02 2.072278e+02
6.210000e+02 2.207802e+02
6.220000e+02 2.351682e+02
6.230000e+02 2.504400e+02
6.240000e+02 2.666464e+02
6.250000e+02 2.838411e+02
6.260000e+02 3.020807e+02
6.270000e+02 3.214227e+02
6.280000e+02 3.419334e+02
6.290000e+02 3.636768e+02
6.300000e+02 3.867181e+02
6.310000e+02 4.111360e+02
6.320000e+02 4.370122e+02
6.330000e+02 4.644182e+02
6.340000e+02 4.934321e+02
6.350000e+02 5.241634e+02
6.360000e+02 5.561284e+02
6.370000e+02 5.911299e+02
6.380000e+02 6.275676e+02
6.390000e+02 6.661187e+02
6.400000e+02 7.068981e+02
6.410000e+02 7.500259e+02
6.420000e+02 7.956288e+02
6.430000e+02 8.438403e+02
6.440000e+02 8.947988e+02
6.450000e+02 9.486504e+02
6.460000e+02 1.005549e+03
6.470000e+02 1.065655e+03
6.480000e+02 1.129143e+03
6.490000e+02 1.196171e+03
6.500000e+02 1.266953e+03
6.510000e+02 1.341672e+03
6.520000e+02 1.420530e+03
6.530000e+02 1.503744e+03
6.540000e+02 1.591537e+03
6.550000e+02 1.684146e+03
6.560000e+02 1.781816e+03
6.570000e+02 1.884783e+03
6.580000e+02 1.993373e+03
6.590000e+02 2.107825e+03
6.600000e+02 2.228444e+03
6.610000e+02 2.355507e+03
6.620000e+02 2.489411e+03
6.630000e+02 2.630459e+03
6.640000e+02 2.779009e+03
6.650000e+02 2.935426e+03
6.660000e+02 3.100112e+03
6.670000e+02 3.273461e+03
6.680000e+02 3.455903e+03
6.690000e+02 3.647882e+03
6.700000e+02 3.849860e+03
6.710000e+02 4.062333e+03
6.720000e+02 4.286210e+03
6.730000e+02 4.520783e+03
6.740000e+02 4.767850e+03
6.750000e+02 5.027572e+03
6.760000e+02 5.300555e+03
6.770000e+02 5.587428e+03
6.780000e+02 5.888849e+03
6.790000e+02 6.205505e+03
6.800000e+02 6.538113e+03
6.810000e+02 6.887420e+03
6.820000e+02 7.254207e+03
6.830000e+02 7.639287e+03
6.840000e+02 8.043508e+03
6.850000e+02 8.467745e+03
6.860000e+02 8.912952e+03
6.870000e+02 9.379903e+03
6.880000e+02 9.869962e+03
6.890000e+02 1.038394e+04
6.900000e+02 1.092279e+04
6.910000e+02 1.148800e+04
6.920000e+02 1.208056e+04
6.930000e+02 1.270170e+04
6.940000e+02 1.335273e+04
6.950000e+02 1.403496e+04
6.960000e+02 1.474978e+04
6.970000e+02 1.549851e+04
6.980000e+02 1.628307e+04
6.990000e+02 1.710461e+04
7.000000e+02 1.796489e+04
7.010000e+02 1.886560e+04
7.020000e+02 1.980853e+04
7.030000e+02 2.079549e+04
7.040000e+02 2.182839e+04
7.050000e+02 2.290923e+04
7.060000e+02 2.404005e+04
7.070000e+02 2.522302e+04
7.080000e+02 2.646035e+04
7.090000e+02 2.775431e+04
7.100000e+02 2.910746e+04
7.110000e+02 3.052214e+04
7.120000e+02 3.200100e+04
7.130000e+02 3.354675e+04
7.140000e+02 3.516195e+04
7.150000e+02 3.684986e+04
7.160000e+02 3.861348e+04
7.170000e+02 4.045576e+04
7.180000e+02 4.237923e+04
7.190000e+02 4.438932e+04
7.200000e+02 4.648793e+04
7.210000e+02 4.867907e+04
7.220000e+02 5.096650e+04
7.230000e+02 5.335416e+04
7.240000e+02 5.584609e+04
7.250000e+02 5.844648e+04
7.260000e+02 6.115975e+04
7.270000e+02 6.399040e+04
7.280000e+02 6.694312e+04
7.290000e+02 7.002277e+04
7.300000e+02 7.323453e+04
7.310000e+02 7.658325e+04
7.320000e+02 8.007476e+04
7.330000e+02 8.371441e+04
7.340000e+02 8.750817e+04
7.350000e+02 9.146147e+04
7.360000e+02 9.558152e+04
7.370000e+02 9.987443e+04
7.380000e+02 1.043467e+05
7.390000e+02 1.090047e+05
7.400000e+02 1.138566e+05
7.410000e+02 1.189100e+05
7.420000e+02 1.241715e+05
7.430000e+02 1.296481e+05
7.440000e+02 1.353511e+05
7.450000e+02 1.412875e+05
7.460000e+02 1.474650e+05
7.470000e+02 1.538947e+05
7.480000e+02 1.605849e+05
7.490000e+02 1.675455e+05
7.500000e+02 1.747865e+05
7.510000e+02 1.823184e+05
7.520000e+02 1.901518e+05
7.530000e+02 1.982980e+05
7.540000e+02 2.067683e+05
7.550000e+02 2.155747e+05
7.560000e+02 2.247295e+05
7.570000e+02 2.342430e+05
7.580000e+02 2.441353e+05
7.590000e+02 2.544124e+05
7.600000e+02 2.650922e+05
7.610000e+02 2.761877e+05
7.620000e+02 2.877142e+05
7.630000e+02 2.996849e+05
7.640000e+02 3.121199e+05
7.650000e+02 3.250336e+05
7.660000e+02 3.384431e+05
7.670000e+02 3.523598e+05
7.680000e+02 3.668124e+05
7.690000e+02 3.818167e+05
7.700000e+02 3.973891e+05
7.710000e+02 4.135503e+05
7.720000e+02 4.303208e+05
7.730000e+02 4.477217e+05
7.740000e+02 4.657747e+05
7.750000e+02 4.845022e+05
7.760000e+02 5.039087e+05
7.770000e+02 5.240742e+05
7.780000e+02 5.449671e+05
7.790000e+02 5.666316e+05
7.800000e+02 5.890936e+05
7.810000e+02 6.123802e+05
7.820000e+02 6.365191e+05
7.830000e+02 6.615384e+05
7.840000e+02 6.874690e+05
7.850000e+02 7.143399e+05
7.860000e+02 7.421769e+05
7.870000e+02 7.710251e+05
7.880000e+02 8.009094e+05
7.890000e+02 8.318652e+05
7.900000e+02 8.639279e+05
7.910000e+02 8.971179e+05
7.920000e+02 9.315034e+05
7.930000e+02 9.671075e+05
7.940000e+02 1.003970e+06
7.950000e+02 1.042131e+06
7.960000e+02 1.081633e+06
7.970000e+02 1.122519e+06
7.980000e+02 1.164817e+06
7.990000e+02 1.208604e+06
8.000000e+02 1.253912e+06
8.010000e+02 1.300788e+06
8.020000e+02 1.349285e+06
8.030000e+02 1.399451e+06
8.040000e+02 1.451339e+06
8.050000e+02 1.505004e+06
8.060000e+02 1.560500e+06
8.070000e+02 1.617886e+06
8.080000e+02 1.677205e+06
8.090000e+02 1.738546e+06
8.100000e+02 1.801957e+06
8.110000e+02 1.867507e+06
8.120000e+02 1.935252e+06
8.130000e+02 2.005226e+06
8.140000e+02 2.077573e+06
8.150000e+02 2.152324e+06
8.160000e+02 2.229560e+06
8.170000e+02 2.309348e+06
8.180000e+02 2.391770e+06
8.190000e+02 2.476902e+06
8.200000e+02 2.564827e+06
8.210000e+02 2.655630e+06
8.220000e+02 2.749393e+06
8.230000e+02 2.846206e+06
8.240000e+02 2.946160e+06
8.250000e+02 3.049347e+06
8.260000e+02 3.155862e+06
8.270000e+02 3.265803e+06
8.280000e+02 3.379270e+06
8.290000e+02 3.496337e+06
8.300000e+02 3.617168e+06
8.310000e+02 3.741841e+06
8.320000e+02 3.870469e+06
8.330000e+02 4.003166e+06
8.340000e+02 4.139969e+06
8.350000e+02 4.280966e+06
8.360000e+02 4.426759e+06
8.370000e+02 4.576938e+06
8.380000e+02 4.731767e+06
8.390000e+02 4.891448e+06
8.400000e+02 5.056072e+06
8.410000e+02 5.225788e+06
8.420000e+02 5.400661e+06
8.430000e+02 5.581040e+06
8.440000e+02 5.766908e+06
8.450000e+02 5.958461e+06
8.460000e+02 6.155806e+06
8.470000e+02 6.359212e+06
8.480000e+02 6.568788e+06
8.490000e+02 6.784678e+06
8.500000e+02 7.007112e+06
8.510000e+02 7.236241e+06
8.520000e+02 7.472242e+06
8.530000e+02 7.715259e+06
8.540000e+02 7.965526e+06
8.550000e+02 8.223303e+06
8.560000e+02 8.488733e+06
8.570000e+02 8.762022e+06
8.580000e+02 9.043381e+06
8.590000e+02 9.333027e+06
8.600000e+02 9.631179e+06
8.610000e+02 9.938064e+06
8.620000e+02 1.025391e+07
8.630000e+02 1.057896e+07
8.640000e+02 1.091346e+07
8.650000e+02 1.125764e+07
8.660000e+02 1.161178e+07
8.670000e+02 1.197612e+07
8.680000e+02 1.235093e+07
8.690000e+02 1.273648e+07
8.700000e+02 1.313305e+07
8.710000e+02 1.354095e+07
8.720000e+02 1.396043e+07
8.730000e+02 1.439181e+07
8.740000e+02 1.483539e+07
8.750000e+02 1.529148e+07
8.760000e+02 1.576041e+07
8.770000e+02 1.624247e+07
8.780000e+02 1.673806e+07
8.790000e+02 1.724747e+07
8.800000e+02 1.777105e+07
8.810000e+02 1.830917e+07
8.820000e+02 1.886219e+07
8.830000e+02 1.943048e+07
8.840000e+02 2.001442e+07
8.850000e+02 2.061440e+07
8.860000e+02 2.123082e+07
8.870000e+02 2.186408e+07
8.880000e+02 2.251460e+07
8.890000e+02 2.318258e+07
8.900000e+02 2.386890e+07
8.910000e+02 2.457376e+07
8.920000e+02 2.528485e+07
8.930000e+02 2.604098e+07
8.940000e+02 2.680427e+07
8.950000e+02 2.758795e+07
8.960000e+02 2.839260e+07
8.970000e+02 2.921863e+07
8.980000e+02 3.006660e+07
8.990000e+02 3.093701e+07
9.000000e+02 3.183042e+07
9.010000e+02 3.274735e+07
9.020000e+02 3.368838e+07
9.030000e+02 3.465406e+07
9.040000e+02 3.564454e+07
9.050000e+02 3.666142e+07
9.060000e+02 3.770462e+07
9.070000e+02 3.877460e+07
9.080000e+02 3.987276e+07
9.090000e+02 4.099899e+07
9.100000e+02 4.215421e+07
9.110000e+02 4.333915e+07
9.120000e+02 4.455484e+07
9.130000e+02 4.556330e+07
9.140000e+02 4.726979e+07
9.150000e+02 8.121530e+07
9.160000e+02 2.035365e+08
9.170000e+02 2.245251e+08
9.180000e+02 1.729177e+08
9.190000e+02 4.207514e+08
9.200000e+02 6.164234e+08
9.210000e+02 5.659740e+07
9.220000e+02 7.673556e+08
9.230000e+02 2.233431e+08
9.240000e+02 6.642790e+08
9.250000e+02 8.837407e+08
9.260000e+02 3.472323e+08
9.270000e+02 8.402457e+08
9.280000e+02 1.022862e+09
9.290000e+02 8.537457e+08
9.300000e+02 8.760358e+08
9.310000e+02 4.270063e+08
9.320000e+02 1.074483e+09
9.330000e+02 1.163896e+09
9.340000e+02 1.204712e+09
9.350000e+02 3.870304e+08
9.360000e+02 1.219248e+09
9.370000e+02 2.557290e+08
9.380000e+02 3.431115e+08
9.390000e+02 1.228916e+09
9.400000e+02 1.348293e+09
9.410000e+02 7.317603e+08
9.420000e+02 1.430345e+09
9.430000e+02 1.461407e+09
9.440000e+02 8.133239e+08
9.450000e+02 1.518913e+09
9.460000e+02 1.544955e+09
9.470000e+02 1.112765e+09
9.480000e+02 1.410335e+09
9.490000e+02 1.286133e+09
9.500000e+02 3.115792e+08
9.510000e+02 1.486900e+09
9.520000e+02 1.710300e+09
9.530000e+02 1.756252e+09
9.540000e+02 1.464778e+09
9.550000e+02 1.850785e+09
9.560000e+02 1.652198e+09
9.570000e+02 1.500478e+09
9.580000e+02 1.955751e+09
9.590000e+02 2.009320e+09
9.600000e+02 4.355258e+08
9.610000e+02 2.087128e+09
9.620000e+02 2.116546e+09
9.630000e+02 2.171896e+09
9.640000e+02 1.786904e+08
9.650000e+02 2.036172e+09
9.660000e+02 2.295785e+09
9.670000e+02 2.322480e+09
9.680000e+02 2.349883e+09
9.690000e+02 2.395258e+09
9.700000e+02 2.423955e+09
9.710000e+02 2.360644e+09
9.720000e+02 1.621431e+09
9.730000e+02 1.503610e+09
9.740000e+02 2.469447e+09
9.750000e+02 2.658090e+09
9.760000e+02 2.744780e+09
9.770000e+02 2.806851e+09
9.780000e+02 2.859975e+09
9.790000e+02 2.923127e+09
9.800000e+02 2.978595e+09
9.810000e+02 3.035911e+09
9.820000e+02 3.060477e+09
9.830000e+02 3.147123e+09
9.840000e+02 1.120198e+09
9.850000e+02 3.266043e+09
9.860000e+02 3.325181e+09
9.870000e+02 3.380551e+09
9.880000e+02 3.408040e+09
9.890000e+02 2.325496e+09
9.900000e+02 3.904032e+08
9.910000e+02 3.604207e+09
9.920000e+02 3.228612e+09
9.930000e+02 3.523832e+09
9.940000e+02 5.600018e+08
9.950000e+02 8.638254e+08
9.960000e+02 8.230310e+08
9.970000e+02 7.978995e+08
9.980000e+02 4.105575e+09
9.990000e+02 4.064721e+09
1.000000e+03 4.261457e+09
1.001000e+03 4.339864e+09
1.002000e+03 4.412083e+09
1.003000e+03 3.777628e+09
1.004000e+03 4.571035e+09
1.005000e+03 3.906793e+09
1.006000e+03 4.731229e+09
1.007000e+03 4.799689e+09
1.008000e+03 4.887799e+09
1.009000e+03 4.723809e+09
1.010000e+03 5.063990e+09
1.011000e+03 5.150299e+09
1.012000e+03 5.234378e+09
1.013000e+03 5.324643e+09
1.014000e+03 5.415377e+09
1.015000e+03 5.389925e+09
1.016000e+03 5.582969e+09
1.017000e+03 5.683931e+09
1.018000e+03 5.769592e+09
1.019000e+03 5.859268e+09
1.020000e+03 5.937288e+09
1.021000e+03 4.132488e+09
1.022000e+03 5.775609e+09
1.023000e+03 6.026436e+09
1.024000e+03 5.556349e+09
1.025000e+03 3.744665e+09
1.026000e+03 1.610048e+09
1.027000e+03 5.355800e+09
1.028000e+03 1.888569e+09
1.029000e+03 6.775690e+09
1.030000e+03 6.832501e+09
1.031000e+03 7.157534e+09
1.032000e+03 7.185756e+09
1.033000e+03 4.021740e+09
1.034000e+03 7.580950e+09
1.035000e+03 1.642240e+09
1.036000e+03 7.548051e+09
1.037000e+03 9.615580e+08
1.038000e+03 8.109955e+09
1.039000e+03 8.110406e+09
1.040000e+03 8.383652e+09
1.041000e+03 8.464392e+09
1.042000e+03 8.215998e+09
1.043000e+03 8.617372e+09
1.044000e+03 8.865363e+09
1.045000e+03 9.067399e+09
1.046000e+03 9.235588e+09
1.047000e+03 9.366998e+09
1.048000e+03 9.351159e+09
1.049000e+03 9.411929e+09
1.050000e+03 9.848563e+09
1.051000e+03 1.000701e+10
1.052000e+03 1.016537e+10
1.053000e+03 9.949700e+09
1.054000e+03 1.047011e+10
1.055000e+03 1.060380e+10
1.056000e+03 1.082394e+10
1.057000e+03 1.098019e+10
1.058000e+03 1.115014e+10
1.059000e+03 1.133651e+10
1.060000e+03 1.151689e+10
1.061000e+03 1.169682e+10
1.062000e+03 1.187820e+10
1.063000e+03 5.336790e+09
1.064000e+03 2.409711e+09
1.065000e+03 1.268350e+10
1.066000e+03 1.127018e+10
1.067000e+03 1.190364e+10
1.068000e+03 1.329305e+10
1.069000e+03 1.342304e+10
1.070000e+03 1.315947e+10
1.071000e+03 1.392594e+10
1.072000e+03 1.413361e+10
1.073000e+03 1.435249e+10
1.074000e+03 1.456564e+10
1.075000e+03 1.477135e+10
1.076000e+03 1.500778e+10
1.077000e+03 1.516914e+10
1.078000e+03 1.544315e+10
1.079000e+03 1.559268e+10
1.080000e+03 1.589575e+10
1.081000e+03 1.616623e+10
1.082000e+03 1.640086e+10
1.083000e+03 1.658358e+10
1.084000e+03 1.486551e+10
1.085000e+03 1.254621e+10
1.086000e+03 1.740277e+10
1.087000e+03 1.764175e+10
1.088000e+03 1.785392e+10
1.089000e+03 1.815809e+10
1.090000e+03 1.837425e+10
1.091000e+03 1.869362e+10
1.092000e+03 1.897926e+10
1.093000e+03 1.923855e+10
1.094000e+03 1.953555e+10
1.095000e+03 1.977042e+10
1.096000e+03 2.008448e+10
1.097000e+03 2.019318e+10
1.098000e+03 1.994815e+10
1.099000e+03 2.091923e+10
1.100000e+03 2.092006e+10
1.101000e+03 1.979677e+10
1.102000e+03 4.083238e+10
1.103000e+03 1.073451e+11
1.104000e+03 4.990381e+10
1.105000e+03 2.095474e+10
1.106000e+03 2.170599e+11
1.107000e+03 2.157961e+11
1.108000e+03 2.211999e+11
1.109000e+03 1.199741e+11
1.110000e+03 3.557890e+10
1.111000e+03 4.449944e+10
1.112000e+03 1.968740e+11
1.113000e+03 2.348522e+11
1.114000e+03 1.599205e+10
1.115000e+03 2.312796e+11
1.116000e+03 2.403797e+11
1.117000e+03 1.810684e+10
1.118000e+03 1.832488e+11
1.119000e+03 2.472740e+11
1.120000e+03 2.509653e+11
1.121000e+03 1.944024e+11
1.122000e+03 4.994204e+09
1.123000e+03 3.214628e+10
1.124000e+03 2.591742e+11
1.125000e+03 9.662205e+10
1.126000e+03 2.660617e+11
1.127000e+03 2.582050e+11
1.128000e+03 1.170200e+11
1.129000e+03 2.695457e+11
1.130000e+03 2.008570e+11
1.131000e+03 2.822508e+11
1.132000e+03 1.390053e+10
1.133000e+03 2.375614e+11
1.134000e+03 2.825016e+11
1.135000e+03 7.396884e+09
1.136000e+03 2.863867e+11
1.137000e+03 3.002993e+11
1.138000e+03 3.048874e+11
1.139000e+03 3.003751e+11
1.140000e+03 9.086468e+09
1.141000e+03 3.144021e+11
1.142000e+03 2.843308e+11
1.143000e+03 3.188833e+11
1.144000e+03 3.236372e+11
1.145000e+03 2.786973e+11
1.146000e+03 3.282164e+11
1.147000e+03 3.293278e+11
1.148000e+03 3.337036e+11
1.149000e+03 3.401334e+11
1.150000e+03 3.266963e+11
1.151000e+03 3.449102e+11
1.152000e+03 3.443106e+11
1.153000e+03 7.881042e+10
1.154000e+03 2.134845e+10
1.155000e+03 2.626357e+11
1.156000e+03 9.385134e+10
1.157000e+03 3.664367e+11
1.158000e+03 1.228259e+10
1.159000e+03 3.046297e+11
1.160000e+03 3.517079e+11
1.161000e+03 3.835398e+11
1.162000e+03 6.333520e+10
1.163000e+03 3.703755e+11
1.164000e+03 2.094255e+10
1.165000e+03 3.983280e+11
1.166000e+03 3.928075e+11
1.167000e+03 3.664896e+11
1.168000e+03 4.104516e+11
1.169000e+03 4.034945e+11
1.170000e+03 4.196130e+11
1.171000e+03 4.236796e+11
1.172000e+03 4.000245e+11
1.173000e+03 4.285179e+11
1.174000e+03 4.115394e+11
1.175000e+03 2.214763e+10
1.176000e+03 1.666895e+10
1.177000e+03 4.369898e+11
1.178000e+03 3.807404e+11
1.179000e+03 4.522027e+11
1.180000e+03 3.286580e+11
1.181000e+03 4.501958e+11
1.182000e+03 4.657524e+11
1.183000e+03 4.686419e+11
1.184000e+03 4.723509e+11
1.185000e+03 4.410936e+11
1.186000e+03 4.772558e+11
1.187000e+03 4.796834e+11
1.188000e+03 4.520862e+11
1.189000e+03 1.815210e+10
1.190000e+03 7.771393e+10
1.191000e+03 4.718136e+11
1.192000e+03 4.758894e+11
1.193000e+03 1.523974e+10
1.194000e+03 2.070322e+10
1.195000e+03 2.579311e+11
1.196000e+03 4.707282e+11
1.197000e+03 5.252577e+11
1.198000e+03 5.307447e+11
1.199000e+03 5.178221e+11
1.200000e+03 4.724866e+11
1.201000e+03 4.853377e+11
1.202000e+03 4.768525e+11
1.203000e+03 4.937791e+11
1.204000e+03 4.524510e+11
1.205000e+03 4.273234e+11
1.206000e+03 3.213088e+11
1.207000e+03 1.562329e+11
1.208000e+03 3.030805e+11
1.209000e+03 2.309849e+11
1.210000e+03 2.954964e+10
1.211000e+03 1.511626e+11
1.212000e+03 1.028208e+11
1.213000e+03 6.698736e+10
1.214000e+03 3.958370e+10
1.215000e+03 2.423410e+10
1.216000e+03 2.167183e+10
1.217000e+03 3.425574e+10
1.218000e+03 5.989025e+10
1.219000e+03 9.934600e+10
1.220000e+03 1.503544e+11
1.221000e+03 2.093824e+11
1.222000e+03 2.734265e+11
1.223000e+03 3.395198e+11
1.224000e+03 4.056135e+11
1.225000e+03 4.694639e+11
1.226000e+03 5.253513e+11
1.227000e+03 5.877232e+11
1.228000e+03 6.509635e+11
1.229000e+03 6.963274e+11
1.230000e+03 7.507628e+11
1.231000e+03 8.027513e+11
1.232000e+03 8.492971e+11
1.233000e+03 8.922150e+11
1.234000e+03 6.486283e+11
1.235000e+03 9.651141e+11
1.236000e+03 1.006383e+12
1.237000e+03 1.037345e+12
1.238000e+03 1.072307e+12
1.239000e+03 1.104033e+12
1.240000e+03 1.029146e+12
1.241000e+03 1.791326e+12
1.242000e+03 1.003717e+12
1.243000e+03 1.423881e+12
1.244000e+03 6.077544e+11
1.245000e+03 9.073812e+11
1.246000e+03 2.457598e+12
1.247000e+03 2.584443e+12
1.248000e+03 6.522736e+11
1.249000e+03 7.997382e+11
1.250000e+03 2.897882e+12
1.251000e+03 2.951799e+12
1.252000e+03 2.896492e+12
1.253000e+03 3.200306e+12
1.254000e+03 3.261896e+12
1.255000e+03 3.276473e+12
1.256000e+03 3.292328e+12
1.257000e+03 3.505087e+12
1.258000e+03 3.529207e+12
1.259000e+03 3.460594e+12
1.260000e+03 3.089383e+12
1.261000e+03 4.244287e+10
1.262000e+03 3.813571e+11
1.263000e+03 3.827875e+12
1.264000e+03 3.597485e+12
1.265000e+03 4.049404e+10
1.266000e+03 4.029044e+12
1.267000e+03 4.224591e+12
