# wavelength_A flux
5.000000e+02 1.752265e-31
5.010000e+02 2.211612e-31
5.020000e+02 2.788734e-31
5.030000e+02 3.513149e-31
5.040000e+02 4.421603e-31
5.050000e+02 5.599261e-31
5.060000e+02 7.032761e-31
5.070000e+02 8.824355e-31
5.080000e+02 1.106370e-30
5.090000e+02 1.385788e-30
5.100000e+02 1.722914e-30
5.110000e+02 2.168329e-30
5.120000e+02 2.708472e-30
5.130000e+02 3.380756e-30
5.140000e+02 4.215866e-30
5.150000e+02 5.252673e-30
5.160000e+02 6.538783e-30
5.170000e+02 8.132901e-30
5.180000e+02 1.010692e-29
5.190000e+02 1.254939e-29
5.200000e+02 1.556893e-29
5.210000e+02 1.929875e-29
5.220000e+02 2.390105e-29
5.230000e+02 2.957889e-29
5.240000e+02 3.657377e-29
5.250000e+02 4.518552e-29
5.260000e+02 5.577934e-29
5.270000e+02 6.880090e-29
5.280000e+02 8.479369e-29
5.290000e+02 1.044199e-28
5.300000e+02 1.284861e-28
5.310000e+02 1.579731e-28
5.320000e+02 1.940736e-28
5.330000e+02 2.382365e-28
5.340000e+02 2.922201e-28
5.350000e+02 3.581575e-28
5.360000e+02 4.386327e-28
5.370000e+02 5.357128e-28
5.380000e+02 6.563813e-28
5.390000e+02 8.020256e-28
5.400000e+02 9.792433e-28
5.410000e+02 1.194712e-27
5.420000e+02 1.456519e-27
5.430000e+02 1.774365e-27
5.440000e+02 2.159973e-27
5.450000e+02 2.627446e-27
5.460000e+02 3.193753e-27
5.470000e+02 3.879291e-27
5.480000e+02 4.708568e-27
5.490000e+02 5.711003e-27
5.500000e+02 6.921891e-27
5.510000e+02 8.383541e-27
5.520000e+02 1.014664e-26
5.530000e+02 1.227188e-26
5.540000e+02 1.483185e-26
5.550000e+02 1.791334e-26
5.560000e+02 2.162005e-26
5.570000e+02 2.607576e-26
5.580000e+02 3.142818e-26
5.590000e+02 3.785340e-26
5.600000e+02 4.556127e-26
5.610000e+02 5.480162e-26
5.620000e+02 6.587175e-26
5.630000e+02 7.912520e-26
5.640000e+02 9.498209e-26
5.650000e+02 1.139414e-25
5.660000e+02 1.365953e-25
5.670000e+02 1.636461e-25
5.680000e+02 1.959265e-25
5.690000e+02 2.344226e-25
5.700000e+02 2.803021e-25
5.710000e+02 3.349460e-25
5.720000e+02 3.999877e-25
5.730000e+02 4.773568e-25
5.740000e+02 5.693323e-25
5.750000e+02 6.786036e-25
5.760000e+02 8.083426e-25
5.770000e+02 9.622901e-25
5.780000e+02 1.144847e-24
5.790000e+02 1.361201e-24
5.800000e+02 1.617453e-24
5.810000e+02 1.920777e-24
5.820000e+02 2.279605e-24
5.830000e+02 2.703838e-24
5.840000e+02 3.205038e-24
5.850000e+02 3.797023e-24
5.860000e+02 4.495631e-24
5.870000e+02 5.319618e-24
5.880000e+02 6.290937e-24
5.890000e+02 7.435272e-24
5.900000e+02 8.782665e-24
5.910000e+02 1.036824e-23
5.920000e+02 1.223303e-23
5.930000e+02 1.442497e-23
5.940000e+02 1.699999e-23
5.950000e+02 2.002336e-23
5.960000e+02 2.357113e-23
5.970000e+02 2.773197e-23
5.980000e+02 3.260912e-23
5.990000e+02 3.832274e-23
6.000000e+02 4.501263e-23
6.010000e+02 5.284134e-23
6.020000e+02 6.199776e-23
6.030000e+02 7.270130e-23
6.040000e+02 8.520665e-23
6.050000e+02 9.980933e-23
6.060000e+02 1.168520e-22
6.070000e+02 1.367319e-22
6.080000e+02 1.599092e-22
6.090000e+02 1.869166e-22
6.100000e+02 2.183707e-22
6.110000e+02 2.549846e-22
6.120000e+02 2.975828e-22
6.130000e+02 3.471181e-22
6.140000e+02 4.046905e-22
6.150000e+02 4.715703e-22
6.160000e+02 5.492229e-22
6.170000e+02 6.393381e-22
6.180000e+02 7.438636e-22
6.190000e+02 8.650436e-22
6.200000e+02 1.005462e-21
6.210000e+02 1.168093e-21
6.220000e+02 1.356357e-21
6.230000e+02 1.574190e-21
6.240000e+02 1.826111e-21
6.250000e+02 2.117315e-21
6.260000e+02 2.453765e-21
6.270000e+02 2.842305e-21
6.280000e+02 3.290786e-21
6.290000e+02 3.808209e-21
6.300000e+02 4.404891e-21
6.310000e+02 5.092594e-21
6.320000e+02 5.885016e-21
6.330000e+02 6.797476e-21
6.340000e+02 7.847746e-21
6.350000e+02 9.056078e-21
6.360000e+02 1.044563e-20
6.370000e+02 1.204284e-20
6.380000e+02 1.387792e-20
6.390000e+02 1.598534e-20
6.400000e+02 1.840442e-20
6.410000e+02 2.118001e-20
6.420000e+02 2.436323e-20
6.430000e+02 2.801232e-20
6.440000e+02 3.219364e-20
6.450000e+02 3.698268e-20
6.460000e+02 4.246538e-20
6.470000e+02 4.873949e-20
6.480000e+02 5.591612e-20
6.490000e+02 6.412157e-20
6.500000e+02 7.349929e-20
6.510000e+02 8.421219e-20
6.520000e+02 9.644515e-20
6.530000e+02 1.104079e-19
6.540000e+02 1.263385e-19
6.550000e+02 1.445064e-19
6.560000e+02 1.652174e-19
6.570000e+02 1.888175e-19
6.580000e+02 2.156987e-19
6.590000e+02 2.463045e-19
6.600000e+02 2.811366e-19
6.610000e+02 3.207627e-19
6.620000e+02 3.658242e-19
6.630000e+02 4.170458e-19
6.640000e+02 4.752463e-19
6.650000e+02 5.413501e-19
6.660000e+02 6.164005e-19
6.670000e+02 7.015744e-19
6.680000e+02 7.981994e-19
6.690000e+02 9.077717e-19
6.700000e+02 1.031978e-18
6.710000e+02 1.172717e-18
6.720000e+02 1.332128e-18
6.730000e+02 1.512619e-18
6.740000e+02 1.716898e-18
6.750000e+02 1.948012e-18
6.760000e+02 2.209387e-18
6.770000e+02 2.504873e-18
6.780000e+02 2.838795e-18
6.790000e+02 3.216012e-18
6.800000e+02 3.641977e-18
6.810000e+02 4.122811e-18
6.820000e+02 4.665380e-18
6.830000e+02 5.277385e-18
6.840000e+02 5.967457e-18
6.850000e+02 6.745271e-18
6.860000e+02 7.621664e-18
6.870000e+02 8.608770e-18
6.880000e+02 9.720175e-18
6.890000e+02 1.097108e-17
6.900000e+02 1.237849e-17
6.910000e+02 1.396143e-17
6.920000e+02 1.574115e-17
6.930000e+02 1.774140e-17
6.940000e+02 1.998874e-17
6.950000e+02 2.251278e-17
6.960000e+02 2.534663e-17
6.970000e+02 2.852718e-17
6.980000e+02 3.209564e-17
6.990000e+02 3.609793e-17
7.000000e+02 4.058526e-17
7.010000e+02 4.561469e-17
7.020000e+02 5.124980e-17
7.030000e+02 5.756139e-17
7.040000e+02 6.462830e-17
7.050000e+02 7.253827e-17
7.060000e+02 8.138889e-17
7.070000e+02 9.128878e-17
7.080000e+02 1.023586e-16
7.090000e+02 1.147326e-16
7.100000e+02 1.285599e-16
7.110000e+02 1.440061e-16
7.120000e+02 1.612551e-16
7.130000e+02 1.805111e-16
7.140000e+02 2.020007e-16
7.150000e+02 2.259753e-16
7.160000e+02 2.527137e-16
7.170000e+02 2.825250e-16
7.180000e+02 3.157518e-16
7.190000e+02 3.527738e-16
7.200000e+02 3.940115e-16
7.210000e+02 4.399304e-16
7.220000e+02 4.910462e-16
7.230000e+02 5.479293e-16
7.240000e+02 6.112108e-16
7.250000e+02 6.815888e-16
7.260000e+02 7.598351e-16
7.270000e+02 8.468029e-16
7.280000e+02 9.434348e-16
7.290000e+02 1.050772e-15
7.300000e+02 1.169966e-15
7.310000e+02 1.302284e-15
7.320000e+02 1.449130e-15
7.330000e+02 1.612048e-15
7.340000e+02 1.792746e-15
7.350000e+02 1.993104e-15
7.360000e+02 2.215196e-15
7.370000e+02 2.461306e-15
7.380000e+02 2.733954e-15
7.390000e+02 3.035914e-15
7.400000e+02 3.370239e-15
7.410000e+02 3.740292e-15
7.420000e+02 4.149773e-15
7.430000e+02 4.602755e-15
7.440000e+02 5.103716e-15
7.450000e+02 5.657580e-15
7.460000e+02 6.269763e-15
7.470000e+02 6.946214e-15
7.480000e+02 7.693471e-15
7.490000e+02 8.518716e-15
7.500000e+02 9.429834e-15
7.510000e+02 1.043548e-14
7.520000e+02 1.154517e-14
7.530000e+02 1.276931e-14
7.540000e+02 1.411936e-14
7.550000e+02 1.560784e-14
7.560000e+02 1.724852e-14
7.570000e+02 1.905646e-14
7.580000e+02 2.104819e-14
7.590000e+02 2.324179e-14
7.600000e+02 2.565710e-14
7.610000e+02 2.831580e-14
7.620000e+02 3.124164e-14
7.630000e+02 3.446064e-14
7.640000e+02 3.800123e-14
7.650000e+02 4.189451e-14
7.660000e+02 4.617450e-14
7.670000e+02 5.087841e-14
7.680000e+02 5.604689e-14
7.690000e+02 6.172434e-14
7.700000e+02 6.795930e-14
7.710000e+02 7.480477e-14
7.720000e+02 8.231861e-14
7.730000e+02 9.056400e-14
7.740000e+02 9.960988e-14
7.750000e+02 1.095315e-13
7.760000e+02 1.204108e-13
7.770000e+02 1.323374e-13
7.780000e+02 1.454088e-13
7.790000e+02 1.597314e-13
7.800000e+02 1.754210e-13
7.810000e+02 1.926039e-13
7.820000e+02 2.114177e-13
7.830000e+02 2.320121e-13
7.840000e+02 2.545501e-13
7.850000e+02 2.792093e-13
7.860000e+02 3.061828e-13
7.870000e+02 3.356808e-13
7.880000e+02 3.679317e-13
7.890000e+02 4.031842e-13
7.900000e+02 4.417084e-13
7.910000e+02 4.837981e-13
7.920000e+02 5.297725e-13
7.930000e+02 5.799782e-13
7.940000e+02 6.347921e-13
7.950000e+02 6.946231e-13
7.960000e+02 7.599154e-13
7.970000e+02 8.311510e-13
7.980000e+02 9.088530e-13
7.990000e+02 9.935891e-13
8.000000e+02 1.085975e-12
8.010000e+02 1.186678e-12
8.020000e+02 1.296423e-12
8.030000e+02 1.415994e-12
8.040000e+02 1.546242e-12
8.050000e+02 1.688089e-12
8.060000e+02 1.842532e-12
8.070000e+02 2.010654e-12
8.080000e+02 2.193625e-12
8.090000e+02 2.392713e-12
8.100000e+02 2.609290e-12
8.110000e+02 2.844841e-12
8.120000e+02 3.100972e-12
8.130000e+02 3.379422e-12
8.140000e+02 3.682068e-12
8.150000e+02 4.010944e-12
8.160000e+02 4.368246e-12
8.170000e+02 4.756347e-12
8.180000e+02 5.177813e-12
8.190000e+02 5.635415e-12
8.200000e+02 6.132146e-12
8.210000e+02 6.671240e-12
8.220000e+02 7.256184e-12
8.230000e+02 7.890747e-12
8.240000e+02 8.578994e-12
8.250000e+02 9.325313e-12
8.260000e+02 1.013443e-11
8.270000e+02 1.101147e-11
8.280000e+02 1.196191e-11
8.290000e+02 1.299170e-11
8.300000e+02 1.410723e-11
8.310000e+02 1.531540e-11
8.320000e+02 1.662363e-11
8.330000e+02 1.803994e-11
8.340000e+02 1.957293e-11
8.350000e+02 2.123189e-11
8.360000e+02 2.302681e-11
8.370000e+02 2.496845e-11
8.380000e+02 2.706839e-11
8.390000e+02 2.933909e-11
8.400000e+02 3.179395e-11
8.410000e+02 3.444738e-11
8.420000e+02 3.731488e-11
8.430000e+02 4.041314e-11
8.440000e+02 4.376007e-11
8.450000e+02 4.737493e-11
8.460000e+02 5.127842e-11
8.470000e+02 5.549277e-11
8.480000e+02 6.004187e-11
8.490000e+02 6.495140e-11
8.500000e+02 7.024888e-11
8.510000e+02 7.596392e-11
8.520000e+02 8.212823e-11
8.530000e+02 8.877592e-11
8.540000e+02 9.594355e-11
8.550000e+02 1.036703e-10
8.560000e+02 1.119984e-10
8.570000e+02 1.209728e-10
8.580000e+02 1.306419e-10
8.590000e+02 1.410577e-10
8.600000e+02 1.522757e-10
8.610000e+02 1.643555e-10
8.620000e+02 1.773609e-10
8.630000e+02 1.913605e-10
8.640000e+02 2.064273e-10
8.650000e+02 2.226400e-10
8.660000e+02 2.400824e-10
8.670000e+02 2.588446e-10
8.680000e+02 2.790228e-10
8.690000e+02 3.007201e-10
8.700000e+02 3.240466e-10
8.710000e+02 3.491203e-10
8.720000e+02 3.760674e-10
8.730000e+02 4.050227e-10
8.740000e+02 4.361306e-10
8.750000e+02 4.695453e-10
8.760000e+02 5.054315e-10
8.770000e+02 5.439656e-10
8.780000e+02 5.853357e-10
8.790000e+02 6.297430e-10
8.800000e+02 6.774024e-10
8.810000e+02 7.285432e-10
8.820000e+02 7.834107e-10
8.830000e+02 8.422663e-10
8.840000e+02 9.053894e-10
8.850000e+02 9.730781e-10
8.860000e+02 1.045650e-09
8.870000e+02 1.123446e-09
8.880000e+02 1.206826e-09
8.890000e+02 1.296178e-09
8.900000e+02 1.391914e-09
8.910000e+02 1.494471e-09
8.920000e+02 1.604320e-09
8.930000e+02 1.721958e-09
8.940000e+02 1.847918e-09
8.950000e+02 1.982767e-09
8.960000e+02 2.127109e-09
8.970000e+02 2.281586e-09
8.980000e+02 2.446885e-09
8.990000e+02 2.623736e-09
9.000000e+02 2.812914e-09
9.010000e+02 3.015248e-09
9.020000e+02 3.231619e-09
9.030000e+02 3.462963e-09
9.040000e+02 3.710278e-09
9.050000e+02 3.974626e-09
9.060000e+02 4.257135e-09
9.070000e+02 4.559006e-09
9.080000e+02 4.881516e-09
9.090000e+02 5.226023e-09
9.100000e+02 5.593971e-09
9.110000e+02 5.986895e-09
9.120000e+02 6.406426e-09
9.130000e+02 6.854297e-09
9.140000e+02 7.594650e-09
9.150000e+02 1.920826e-06
9.160000e+02 8.518331e-06
9.170000e+02 9.443652e-08
9.180000e+02 2.475931e-06
9.190000e+02 2.366737e-05
9.200000e+02 5.886007e-05
9.210000e+02 1.170450e-08
9.220000e+02 1.045845e-05
9.230000e+02 1.360037e-07
9.240000e+02 1.459775e-07
9.250000e+02 1.462146e-06
9.260000e+02 3.310681e-06
9.270000e+02 1.314416e-07
9.280000e+02 2.371521e-04
9.290000e+02 2.874124e-04
9.300000e+02 7.402953e-05
9.310000e+02 2.059570e-07
9.320000e+02 2.407626e-04
9.330000e+02 8.277711e-06
9.340000e+02 2.292974e-06
9.350000e+02 1.073991e-06
9.360000e+02 3.985778e-07
9.370000e+02 1.214952e-07
9.380000e+02 7.044878e-07
9.390000e+02 1.225029e-06
9.400000e+02 8.985830e-05
9.410000e+02 1.518314e-05
9.420000e+02 8.663541e-04
9.430000e+02 1.783294e-06
9.440000e+02 9.926339e-04
9.450000e+02 7.284739e-04
9.460000e+02 2.682071e-05
9.470000e+02 8.001825e-08
9.480000e+02 2.107292e-04
9.490000e+02 4.450052e-05
9.500000e+02 1.572883e-06
9.510000e+02 2.725386e-05
9.520000e+02 5.534015e-05
9.530000e+02 4.269118e-07
9.540000e+02 1.089219e-07
9.550000e+02 4.452653e-06
9.560000e+02 6.420770e-04
9.570000e+02 2.449739e-06
9.580000e+02 1.234075e-07
9.590000e+02 1.729564e-04
9.600000e+02 2.933819e-06
9.610000e+02 3.864392e-05
9.620000e+02 1.434978e-05
9.630000e+02 2.676563e-06
9.640000e+02 6.762220e-07
9.650000e+02 2.555607e-07
9.660000e+02 4.793779e-06
9.670000e+02 8.918578e-07
9.680000e+02 6.345799e-07
9.690000e+02 2.896762e-05
9.700000e+02 3.987045e-05
9.710000e+02 1.416713e-06
9.720000e+02 7.410144e-07
9.730000e+02 1.342518e-05
9.740000e+02 4.499007e-05
9.750000e+02 1.053297e-05
9.760000e+02 4.044464e-04
9.770000e+02 1.685708e-04
9.780000e+02 6.539241e-05
9.790000e+02 3.641792e-03
9.800000e+02 2.520964e-03
9.810000e+02 4.050648e-05
9.820000e+02 7.732364e-06
9.830000e+02 1.369626e-03
9.840000e+02 2.020485e-04
9.850000e+02 1.902589e-05
9.860000e+02 3.246542e-05
9.870000e+02 1.414975e-03
9.880000e+02 9.005889e-07
9.890000e+02 2.138995e-04
9.900000e+02 7.725331e-04
9.910000e+02 8.409230e-06
9.920000e+02 9.126089e-07
9.930000e+02 6.666392e-03
9.940000e+02 2.291112e-06
9.950000e+02 2.874653e-04
9.960000e+02 2.603163e-06
9.970000e+02 5.615762e-04
9.980000e+02 8.317471e-04
9.990000e+02 1.485697e-05
1.000000e+03 1.321979e-02
1.001000e+03 9.334692e-03
1.002000e+03 4.815878e-03
1.003000e+03 1.498219e-05
1.004000e+03 1.945067e-06
1.005000e+03 5.426258e-05
1.006000e+03 2.892345e-03
1.007000e+03 6.201074e-03
1.008000e+03 1.379994e-03
1.009000e+03 2.409934e-05
1.010000e+03 1.420494e-03
1.011000e+03 2.055226e-03
1.012000e+03 2.055480e-03
1.013000e+03 1.888167e-03
1.014000e+03 3.092864e-06
1.015000e+03 3.570458e-06
1.016000e+03 7.442641e-05
1.017000e+03 3.636116e-06
1.018000e+03 2.326490e-05
1.019000e+03 4.179776e-06
1.020000e+03 4.673682e-03
1.021000e+03 4.852936e-05
1.022000e+03 6.984174e-05
1.023000e+03 6.262679e-06
1.024000e+03 1.516713e-03
1.025000e+03 5.576461e-06
1.026000e+03 1.050919e-05
1.027000e+03 2.881711e-04
1.028000e+03 6.863405e-05
1.029000e+03 6.888295e-06
1.030000e+03 2.748491e-04
1.031000e+03 5.682141e-04
1.032000e+03 7.724428e-03
1.033000e+03 5.032239e-04
1.034000e+03 7.277587e-04
1.035000e+03 5.156337e-05
1.036000e+03 9.934185e-06
1.037000e+03 5.287517e-03
1.038000e+03 3.912340e-02
1.039000e+03 5.524211e-03
1.040000e+03 5.015886e-03
1.041000e+03 4.026877e-02
1.042000e+03 1.985662e-02
1.043000e+03 2.346208e-02
1.044000e+03 1.594349e-01
1.045000e+03 3.540261e-05
1.046000e+03 4.986493e-03
1.047000e+03 1.932245e-03
1.048000e+03 4.624855e-05
1.049000e+03 1.853109e-03
1.050000e+03 5.435413e-04
1.051000e+03 3.035311e-04
1.052000e+03 2.661811e-02
1.053000e+03 5.199395e-02
1.054000e+03 2.482720e-05
1.055000e+03 6.726955e-02
1.056000e+03 7.568068e-02
1.057000e+03 5.744148e-03
1.058000e+03 2.932656e-04
1.059000e+03 2.903342e-04
1.060000e+03 7.506460e-05
1.061000e+03 9.869128e-03
1.062000e+03 1.629970e-04
1.063000e+03 9.186084e-03
1.064000e+03 7.659197e-05
1.065000e+03 4.278123e-05
1.066000e+03 1.476152e-02
1.067000e+03 2.179615e-04
1.068000e+03 2.055015e-01
1.069000e+03 7.167942e-05
1.070000e+03 2.649069e-03
1.071000e+03 4.301342e-02
1.072000e+03 1.722617e-01
1.073000e+03 6.322563e-05
1.074000e+03 6.565811e-03
1.075000e+03 3.801525e-03
1.076000e+03 1.949981e-01
1.077000e+03 2.755057e-04
1.078000e+03 4.334301e-04
1.079000e+03 1.952302e-03
1.080000e+03 8.107415e-03
1.081000e+03 3.784409e-02
1.082000e+03 2.068517e-02
1.083000e+03 1.085900e-02
1.084000e+03 6.806745e-01
1.085000e+03 2.781600e-03
1.086000e+03 3.151070e-01
1.087000e+03 5.837381e-04
1.088000e+03 8.601019e-01
1.089000e+03 9.247332e-01
1.090000e+03 2.215638e-03
1.091000e+03 3.324509e-03
1.092000e+03 5.634317e-01
1.093000e+03 8.370274e-01
1.094000e+03 2.789138e-02
1.095000e+03 1.461139e+00
1.096000e+03 1.634072e-01
1.097000e+03 1.486726e-01
1.098000e+03 1.043356e+00
1.099000e+03 8.303642e-03
1.100000e+03 2.623834e-04
1.101000e+03 5.183504e-04
1.102000e+03 5.636751e-03
1.103000e+03 9.650164e-01
1.104000e+03 1.651554e+00
1.105000e+03 1.292198e+00
1.106000e+03 2.686498e-02
1.107000e+03 4.039407e-04
1.108000e+03 1.845583e-01
1.109000e+03 3.364861e-03
1.110000e+03 1.853768e+00
1.111000e+03 6.490486e-01
1.112000e+03 8.025629e-02
1.113000e+03 1.417124e+00
1.114000e+03 4.787396e-02
1.115000e+03 4.215976e-03
1.116000e+03 1.622532e-03
1.117000e+03 7.407704e-01
1.118000e+03 5.705260e-03
1.119000e+03 9.188013e-02
1.120000e+03 2.339005e-03
1.121000e+03 4.433209e-01
1.122000e+03 3.666584e+00
1.123000e+03 1.045474e+00
1.124000e+03 1.240446e+00
1.125000e+03 4.924919e-01
1.126000e+03 8.653068e+00
1.127000e+03 6.392922e-01
1.128000e+03 3.547850e+00
1.129000e+03 2.851591e-01
1.130000e+03 2.108703e+00
1.131000e+03 3.736320e+00
1.132000e+03 4.348457e-03
1.133000e+03 3.134608e-02
1.134000e+03 3.681402e-01
1.135000e+03 3.205656e+00
1.136000e+03 6.518686e-02
1.137000e+03 1.412573e+00
1.138000e+03 2.990959e-01
1.139000e+03 3.659615e+00
1.140000e+03 3.243133e+00
1.141000e+03 3.104067e+00
1.142000e+03 4.938936e+00
1.143000e+03 3.875318e-01
1.144000e+03 4.738361e+00
1.145000e+03 2.831340e-03
1.146000e+03 5.528486e+00
1.147000e+03 3.706212e+00
1.148000e+03 1.818335e-02
1.149000e+03 1.621671e+00
1.150000e+03 1.099864e+00
1.151000e+03 4.837003e+00
1.152000e+03 2.144381e+00
1.153000e+03 3.922048e+00
1.154000e+03 6.197299e+00
1.155000e+03 1.529545e+00
1.156000e+03 4.773040e+00
1.157000e+03 5.585328e+00
1.158000e+03 4.802694e-01
1.159000e+03 4.708825e+00
1.160000e+03 6.550035e-01
1.161000e+03 3.899557e+00
1.162000e+03 8.097315e-02
1.163000e+03 2.924862e-01
1.164000e+03 3.340238e-02
1.165000e+03 1.775640e+00
1.166000e+03 1.052138e+00
1.167000e+03 9.625636e-01
1.168000e+03 5.668038e+00
1.169000e+03 6.519924e+00
1.170000e+03 6.541036e-01
1.171000e+03 2.781301e+00
1.172000e+03 1.031397e+00
1.173000e+03 2.466297e+00
1.174000e+03 1.567996e-02
1.175000e+03 2.028972e-02
1.176000e+03 7.882774e-03
1.177000e+03 8.165378e+00
1.178000e+03 7.961555e+00
1.179000e+03 6.359376e+00
1.180000e+03 2.276955e+00
1.181000e+03 7.014758e+00
1.182000e+03 5.643194e+00
1.183000e+03 2.331343e+00
1.184000e+03 1.862796e+00
1.185000e+03 2.403353e+00
1.186000e+03 7.791765e-02
1.187000e+03 4.110978e+00
1.188000e+03 1.429623e+00
1.189000e+03 5.772512e+00
1.190000e+03 5.456151e+00
1.191000e+03 3.723961e+00
1.192000e+03 4.543567e+00
1.193000e+03 3.176897e+00
1.194000e+03 4.390310e+00
1.195000e+03 4.118609e+00
1.196000e+03 1.888537e+01
1.197000e+03 4.914754e+01
1.198000e+03 2.353721e-01
1.199000e+03 4.360481e+01
1.200000e+03 7.774467e-01
1.201000e+03 2.973488e+01
1.202000e+03 5.223001e+00
1.203000e+03 1.844688e+01
1.204000e+03 8.584025e-01
1.205000e+03 1.230228e+01
1.206000e+03 1.215068e+01
1.207000e+03 2.978305e+00
1.208000e+03 6.978475e+00
1.209000e+03 6.560557e+00
1.210000e+03 3.764367e-02
1.211000e+03 2.757986e+00
1.212000e+03 1.127146e+00
1.213000e+03 7.358320e-01
1.214000e+03 2.391532e-01
1.215000e+03 3.777342e-02
1.216000e+03 2.672391e-02
1.217000e+03 1.532039e-01
1.218000e+03 6.203946e-01
1.219000e+03 1.520874e+00
1.220000e+03 8.573710e-01
1.221000e+03 5.246632e+00
1.222000e+03 6.219425e+00
1.223000e+03 5.564930e+00
1.224000e+03 1.593350e+01
1.225000e+03 4.254303e-01
1.226000e+03 3.175068e+01
1.227000e+03 3.547543e+01
1.228000e+03 3.164614e+00
1.229000e+03 3.149513e+01
1.230000e+03 2.113458e+01
1.231000e+03 1.734688e+00
1.232000e+03 9.847311e+01
1.233000e+03 1.173538e+02
1.234000e+03 1.182713e+02
1.235000e+03 8.564788e+01
1.236000e+03 5.048479e+00
1.237000e+03 1.512656e+02
1.238000e+03 1.179762e+02
1.239000e+03 3.360262e+01
1.240000e+03 8.672731e+01
1.241000e+03 3.972149e+01
1.242000e+03 1.020120e+02
1.243000e+03 2.198932e+02
1.244000e+03 2.550433e+02
1.245000e+03 2.083534e+02
1.246000e+03 8.230628e+01
1.247000e+03 1.395272e+02
1.248000e+03 2.494404e+02
1.249000e+03 3.531356e+02
1.250000e+03 1.873258e+02
1.251000e+03 3.178136e+02
1.252000e+03 1.792133e+02
1.253000e+03 3.685148e+02
1.254000e+03 2.030505e+02
1.255000e+03 1.036674e+02
1.256000e+03 1.464724e+02
1.257000e+03 2.100280e+02
1.258000e+03 5.749994e+01
1.259000e+03 1.009353e+02
1.260000e+03 3.579361e+02
1.261000e+03 1.301315e+01
1.262000e+03 4.219221e+02
1.263000e+03 2.659877e+02
1.264000e+03 7.854019e+01
1.265000e+03 1.210787e+02
1.266000e+03 4.032412e+02
1.267000e+03 1.349976e+02
