# wavelength_A flux
5.000000e+02 1.695718e-16
5.010000e+02 1.998002e-16
5.020000e+02 2.352585e-16
5.030000e+02 2.768240e-16
5.040000e+02 3.255163e-16
5.050000e+02 3.788245e-16
5.060000e+02 4.449289e-16
5.070000e+02 5.222259e-16
5.080000e+02 6.125520e-16
5.090000e+02 7.180357e-16
5.100000e+02 8.411423e-16
5.110000e+02 9.847239e-16
5.120000e+02 1.152081e-15
5.130000e+02 1.347029e-15
5.140000e+02 1.573974e-15
5.150000e+02 1.838015e-15
5.160000e+02 2.144992e-15
5.170000e+02 2.501754e-15
5.180000e+02 2.915952e-15
5.190000e+02 3.396714e-15
5.200000e+02 3.954339e-15
5.210000e+02 4.600734e-15
5.220000e+02 5.349843e-15
5.230000e+02 6.216602e-15
5.240000e+02 7.219848e-15
5.250000e+02 8.380041e-15
5.260000e+02 9.720993e-15
5.270000e+02 1.126995e-14
5.280000e+02 1.305815e-14
5.290000e+02 1.512297e-14
5.300000e+02 1.750056e-14
5.310000e+02 2.024255e-14
5.320000e+02 2.340089e-14
5.330000e+02 2.703680e-14
5.340000e+02 3.122014e-14
5.350000e+02 3.603071e-14
5.360000e+02 4.155963e-14
5.370000e+02 4.811644e-14
5.380000e+02 5.520179e-14
5.390000e+02 6.356730e-14
5.400000e+02 7.316143e-14
5.410000e+02 8.416172e-14
5.420000e+02 9.675700e-14
5.430000e+02 1.111815e-13
5.440000e+02 1.276894e-13
5.450000e+02 1.465712e-13
5.460000e+02 1.681698e-13
5.470000e+02 1.928215e-13
5.480000e+02 2.209894e-13
5.490000e+02 2.531416e-13
5.500000e+02 2.898236e-13
5.510000e+02 3.316521e-13
5.520000e+02 3.793255e-13
5.530000e+02 4.336335e-13
5.540000e+02 4.954686e-13
5.550000e+02 5.658396e-13
5.560000e+02 6.458855e-13
5.570000e+02 7.368922e-13
5.580000e+02 8.403102e-13
5.590000e+02 9.577757e-13
5.600000e+02 1.091133e-12
5.610000e+02 1.242460e-12
5.620000e+02 1.414096e-12
5.630000e+02 1.608676e-12
5.640000e+02 1.829163e-12
5.650000e+02 2.078891e-12
5.660000e+02 2.361604e-12
5.670000e+02 2.681514e-12
5.680000e+02 3.043348e-12
5.690000e+02 3.452414e-12
5.700000e+02 3.914667e-12
5.710000e+02 4.436785e-12
5.720000e+02 5.026259e-12
5.730000e+02 5.691481e-12
5.740000e+02 6.441850e-12
5.750000e+02 7.287856e-12
5.760000e+02 8.241581e-12
5.770000e+02 9.315461e-12
5.780000e+02 1.052494e-11
5.790000e+02 1.188625e-11
5.800000e+02 1.341780e-11
5.810000e+02 1.514014e-11
5.820000e+02 1.707621e-11
5.830000e+02 1.925166e-11
5.840000e+02 2.169667e-11
5.850000e+02 2.443832e-11
5.860000e+02 2.751607e-11
5.870000e+02 3.096893e-11
5.880000e+02 3.484058e-11
5.890000e+02 3.918013e-11
5.900000e+02 4.404170e-11
5.910000e+02 4.948635e-11
5.920000e+02 5.558135e-11
5.930000e+02 6.240166e-11
5.940000e+02 7.003055e-11
5.950000e+02 7.856047e-11
5.960000e+02 8.809407e-11
5.970000e+02 9.874526e-11
5.980000e+02 1.106404e-10
5.990000e+02 1.239195e-10
6.000000e+02 1.387380e-10
6.010000e+02 1.552693e-10
6.020000e+02 1.736997e-10
6.030000e+02 1.942444e-10
6.040000e+02 2.171356e-10
6.050000e+02 2.426317e-10
6.060000e+02 2.710184e-10
6.070000e+02 3.026114e-10
6.080000e+02 3.377600e-10
6.090000e+02 3.768497e-10
6.100000e+02 4.203067e-10
6.110000e+02 4.686008e-10
6.120000e+02 5.222512e-10
6.130000e+02 5.818301e-10
6.140000e+02 6.479688e-10
6.150000e+02 7.213631e-10
6.160000e+02 8.027799e-10
6.170000e+02 8.930640e-10
6.180000e+02 9.931457e-10
6.190000e+02 1.104049e-09
6.200000e+02 1.226901e-09
6.210000e+02 1.362942e-09
6.220000e+02 1.513535e-09
6.230000e+02 1.680179e-09
6.240000e+02 1.864522e-09
6.250000e+02 2.068373e-09
6.260000e+02 2.293721e-09
6.270000e+02 2.542748e-09
6.280000e+02 2.817850e-09
6.290000e+02 3.121653e-09
6.300000e+02 3.457042e-09
6.310000e+02 3.827507e-09
6.320000e+02 4.235523e-09
6.330000e+02 4.685888e-09
6.340000e+02 5.182394e-09
6.350000e+02 5.729644e-09
6.360000e+02 6.332582e-09
6.370000e+02 6.996681e-09
6.380000e+02 7.727918e-09
6.390000e+02 8.532814e-09
6.400000e+02 9.418507e-09
6.410000e+02 1.039280e-08
6.420000e+02 1.146422e-08
6.430000e+02 1.264207e-08
6.440000e+02 1.393654e-08
6.450000e+02 1.535871e-08
6.460000e+02 1.692071e-08
6.470000e+02 1.863576e-08
6.480000e+02 2.051827e-08
6.490000e+02 2.258397e-08
6.500000e+02 2.485001e-08
6.510000e+02 2.733504e-08
6.520000e+02 3.005942e-08
6.530000e+02 3.304532e-08
6.540000e+02 3.631687e-08
6.550000e+02 3.990031e-08
6.560000e+02 4.382424e-08
6.570000e+02 4.811986e-08
6.580000e+02 5.282063e-08
6.590000e+02 5.796368e-08
6.600000e+02 6.358884e-08
6.610000e+02 6.973951e-08
6.620000e+02 7.646290e-08
6.630000e+02 8.381021e-08
6.640000e+02 9.183706e-08
6.650000e+02 1.006038e-07
6.660000e+02 1.101760e-07
6.670000e+02 1.206247e-07
6.680000e+02 1.320270e-07
6.690000e+02 1.444664e-07
6.700000e+02 1.580336e-07
6.710000e+02 1.728267e-07
6.720000e+02 1.889520e-07
6.730000e+02 2.065248e-07
6.740000e+02 2.256697e-07
6.750000e+02 2.465219e-07
6.760000e+02 2.692274e-07
6.770000e+02 2.939443e-07
6.780000e+02 3.208437e-07
6.790000e+02 3.501105e-07
6.800000e+02 3.819447e-07
6.810000e+02 4.165624e-07
6.820000e+02 4.541970e-07
6.830000e+02 4.951009e-07
6.840000e+02 5.395466e-07
6.850000e+02 5.878283e-07
6.860000e+02 6.402634e-07
6.870000e+02 6.971948e-07
6.880000e+02 7.589923e-07
6.890000e+02 8.260548e-07
6.900000e+02 8.988126e-07
6.910000e+02 9.777293e-07
6.920000e+02 1.063305e-06
6.930000e+02 1.156078e-06
6.940000e+02 1.256630e-06
6.950000e+02 1.365585e-06
6.960000e+02 1.483617e-06
6.970000e+02 1.611451e-06
6.980000e+02 1.749865e-06
6.990000e+02 1.899701e-06
7.000000e+02 2.061861e-06
7.010000e+02 2.237318e-06
7.020000e+02 2.427116e-06
7.030000e+02 2.632377e-06
7.040000e+02 2.854310e-06
7.050000e+02 3.094211e-06
7.060000e+02 3.353475e-06
7.070000e+02 3.633598e-06
7.080000e+02 3.936188e-06
7.090000e+02 4.262971e-06
7.100000e+02 4.615800e-06
7.110000e+02 4.996663e-06
7.120000e+02 5.407694e-06
7.130000e+02 5.851180e-06
7.140000e+02 6.329575e-06
7.150000e+02 6.845511e-06
7.160000e+02 7.401808e-06
7.170000e+02 8.001491e-06
7.180000e+02 8.647798e-06
7.190000e+02 9.344191e-06
7.200000e+02 1.009440e-05
7.210000e+02 1.090239e-05
7.220000e+02 1.177244e-05
7.230000e+02 1.270909e-05
7.240000e+02 1.371723e-05
7.250000e+02 1.480208e-05
7.260000e+02 1.596923e-05
7.270000e+02 1.722464e-05
7.280000e+02 1.857470e-05
7.290000e+02 2.002625e-05
7.300000e+02 2.158657e-05
7.310000e+02 2.326347e-05
7.320000e+02 2.506527e-05
7.330000e+02 2.700087e-05
7.340000e+02 2.907978e-05
7.350000e+02 3.131214e-05
7.360000e+02 3.370877e-05
7.370000e+02 3.628124e-05
7.380000e+02 3.904189e-05
7.390000e+02 4.200386e-05
7.400000e+02 4.518120e-05
7.410000e+02 4.858887e-05
7.420000e+02 5.224284e-05
7.430000e+02 5.616011e-05
7.440000e+02 6.035883e-05
7.450000e+02 6.485830e-05
7.460000e+02 6.967912e-05
7.470000e+02 7.484323e-05
7.480000e+02 8.037396e-05
7.490000e+02 8.629620e-05
7.500000e+02 9.263640e-05
7.510000e+02 9.942276e-05
7.520000e+02 1.066852e-04
7.530000e+02 1.144558e-04
7.540000e+02 1.227683e-04
7.550000e+02 1.316589e-04
7.560000e+02 1.411660e-04
7.570000e+02 1.513304e-04
7.580000e+02 1.621955e-04
7.590000e+02 1.738073e-04
7.600000e+02 1.862150e-04
7.610000e+02 1.994705e-04
7.620000e+02 2.136291e-04
7.630000e+02 2.287497e-04
7.640000e+02 2.448945e-04
7.650000e+02 2.621298e-04
7.660000e+02 2.805258e-04
7.670000e+02 3.001572e-04
7.680000e+02 3.211031e-04
7.690000e+02 3.434475e-04
7.700000e+02 3.672794e-04
7.710000e+02 3.926934e-04
7.720000e+02 4.197895e-04
7.730000e+02 4.486741e-04
7.740000e+02 4.794596e-04
7.750000e+02 5.122654e-04
7.760000e+02 5.472173e-04
7.770000e+02 5.844511e-04
7.780000e+02 6.241069e-04
7.790000e+02 6.663355e-04
7.800000e+02 7.112960e-04
7.810000e+02 7.591571e-04
7.820000e+02 8.100969e-04
7.830000e+02 8.643043e-04
7.840000e+02 9.219791e-04
7.850000e+02 9.833326e-04
7.860000e+02 1.048588e-03
7.870000e+02 1.117983e-03
7.880000e+02 1.191767e-03
7.890000e+02 1.270204e-03
7.900000e+02 1.353574e-03
7.910000e+02 1.442173e-03
7.920000e+02 1.536312e-03
7.930000e+02 1.636323e-03
7.940000e+02 1.742553e-03
7.950000e+02 1.855372e-03
7.960000e+02 1.975167e-03
7.970000e+02 2.102351e-03
7.980000e+02 2.237356e-03
7.990000e+02 2.380642e-03
8.000000e+02 2.532690e-03
8.010000e+02 2.694012e-03
8.020000e+02 2.865147e-03
8.030000e+02 3.046661e-03
8.040000e+02 3.239154e-03
8.050000e+02 3.443258e-03
8.060000e+02 3.659640e-03
8.070000e+02 3.889003e-03
8.080000e+02 4.132086e-03
8.090000e+02 4.389673e-03
8.100000e+02 4.662585e-03
8.110000e+02 4.951689e-03
8.120000e+02 5.257900e-03
8.130000e+02 5.582180e-03
8.140000e+02 5.925545e-03
8.150000e+02 6.289060e-03
8.160000e+02 6.673853e-03
8.170000e+02 7.081105e-03
8.180000e+02 7.512065e-03
8.190000e+02 7.968044e-03
8.200000e+02 8.450422e-03
8.210000e+02 8.960654e-03
8.220000e+02 9.500267e-03
8.230000e+02 1.007087e-02
8.240000e+02 1.067415e-02
8.250000e+02 1.131190e-02
8.260000e+02 1.198597e-02
8.270000e+02 1.269834e-02
8.280000e+02 1.345108e-02
8.290000e+02 1.424635e-02
8.300000e+02 1.508645e-02
8.310000e+02 1.597376e-02
8.320000e+02 1.691082e-02
8.330000e+02 1.790026e-02
8.340000e+02 1.894488e-02
8.350000e+02 2.004751e-02
8.360000e+02 2.121146e-02
8.370000e+02 2.243972e-02
8.380000e+02 2.373574e-02
8.390000e+02 2.510308e-02
8.400000e+02 2.654545e-02
8.410000e+02 2.806676e-02
8.420000e+02 2.967110e-02
8.430000e+02 3.136285e-02
8.440000e+02 3.314644e-02
8.450000e+02 3.502662e-02
8.460000e+02 3.700837e-02
8.470000e+02 3.909688e-02
8.480000e+02 4.129763e-02
8.490000e+02 4.361632e-02
8.500000e+02 4.605896e-02
8.510000e+02 4.863182e-02
8.520000e+02 5.134150e-02
8.530000e+02 5.419490e-02
8.540000e+02 5.719925e-02
8.550000e+02 6.036211e-02
8.560000e+02 6.369141e-02
8.570000e+02 6.719547e-02
8.580000e+02 7.088297e-02
8.590000e+02 7.476302e-02
8.600000e+02 7.884515e-02
8.610000e+02 8.313935e-02
8.620000e+02 8.765604e-02
8.630000e+02 9.240616e-02
8.640000e+02 9.740113e-02
8.650000e+02 1.026529e-01
8.660000e+02 1.081741e-01
8.670000e+02 1.139776e-01
8.680000e+02 1.200772e-01
8.690000e+02 1.264873e-01
8.700000e+02 1.332227e-01
8.710000e+02 1.402992e-01
8.720000e+02 1.477330e-01
8.730000e+02 1.555413e-01
8.740000e+02 1.637419e-01
8.750000e+02 1.723535e-01
8.760000e+02 1.813956e-01
8.770000e+02 1.908886e-01
8.780000e+02 2.008537e-01
8.790000e+02 2.113132e-01
8.800000e+02 2.222903e-01
8.810000e+02 2.338092e-01
8.820000e+02 2.458953e-01
8.830000e+02 2.585749e-01
8.840000e+02 2.718757e-01
8.850000e+02 2.858265e-01
8.860000e+02 3.004572e-01
8.870000e+02 3.157994e-01
8.880000e+02 3.318855e-01
8.890000e+02 3.487499e-01
8.900000e+02 3.664281e-01
8.910000e+02 3.849573e-01
8.920000e+02 4.043445e-01
8.930000e+02 4.247251e-01
8.940000e+02 4.460462e-01
8.950000e+02 4.683834e-01
8.960000e+02 4.917826e-01
8.970000e+02 5.162914e-01
8.980000e+02 5.419596e-01
8.990000e+02 5.688389e-01
9.000000e+02 5.969835e-01
9.010000e+02 6.264496e-01
9.020000e+02 6.572958e-01
9.030000e+02 6.895832e-01
9.040000e+02 7.233754e-01
9.050000e+02 7.587388e-01
9.060000e+02 7.957422e-01
9.070000e+02 8.344571e-01
9.080000e+02 8.749597e-01
9.090000e+02 9.173265e-01
9.100000e+02 9.616390e-01
9.110000e+02 1.007982e+00
9.120000e+02 1.056444e+00
9.130000e+02 1.106375e+00
9.140000e+02 1.158403e+00
9.150000e+02 1.053095e+01
9.160000e+02 1.856487e+01
9.170000e+02 1.722364e+01
9.180000e+02 1.920780e+01
9.190000e+02 2.180566e+01
9.200000e+02 2.281573e+01
9.210000e+02 1.603084e+00
9.220000e+02 2.443795e+01
9.230000e+02 2.193079e+01
9.240000e+02 2.284568e+01
9.250000e+02 2.602165e+01
9.260000e+02 2.776889e+01
9.270000e+02 2.566116e+01
9.280000e+02 3.088090e+01
9.290000e+02 3.207793e+01
9.300000e+02 3.250420e+01
9.310000e+02 2.823891e+01
9.320000e+02 3.585321e+01
9.330000e+02 3.716805e+01
9.340000e+02 3.858267e+01
9.350000e+02 1.912777e+00
9.360000e+02 3.310963e+01
9.370000e+02 2.128645e+00
9.380000e+02 1.255149e+01
9.390000e+02 4.105082e+01
9.400000e+02 4.801656e+01
9.410000e+02 5.228151e+00
9.420000e+02 5.125537e+01
9.430000e+02 4.858104e+01
9.440000e+02 3.703292e+01
9.450000e+02 5.755961e+01
9.460000e+02 5.914632e+01
9.470000e+02 3.346281e+01
9.480000e+02 4.611141e+01
9.490000e+02 6.512924e+01
9.500000e+02 3.681538e+00
9.510000e+02 6.783511e+01
9.520000e+02 7.345129e+01
9.530000e+02 5.025741e+01
9.540000e+02 3.515943e+01
9.550000e+02 7.832856e+01
9.560000e+02 6.340256e+01
9.570000e+02 2.090586e+01
9.580000e+02 2.565948e+01
9.590000e+02 9.634571e+01
9.600000e+02 5.820381e+00
9.610000e+02 1.020855e+02
9.620000e+02 1.031181e+02
9.630000e+02 1.037942e+02
9.640000e+02 1.029672e+01
9.650000e+02 6.346719e+01
9.660000e+02 1.154638e+02
9.670000e+02 1.014780e+02
9.680000e+02 8.755990e+01
9.690000e+02 1.322518e+02
9.700000e+02 1.364922e+02
9.710000e+02 1.119520e+02
9.720000e+02 1.053025e+02
9.730000e+02 1.215041e+02
9.740000e+02 1.546230e+02
9.750000e+02 1.562214e+02
9.760000e+02 1.740444e+02
9.770000e+02 1.797008e+02
9.780000e+02 1.813547e+02
9.790000e+02 1.944356e+02
9.800000e+02 2.010641e+02
9.810000e+02 2.025472e+02
9.820000e+02 1.895025e+02
9.830000e+02 2.225754e+02
9.840000e+02 3.440438e+01
9.850000e+02 2.257056e+02
9.860000e+02 2.327963e+02
9.870000e+02 2.550223e+02
9.880000e+02 1.394856e+02
9.890000e+02 2.011571e+02
9.900000e+02 2.305353e+01
9.910000e+02 2.079710e+02
9.920000e+02 6.779510e+01
9.930000e+02 2.772097e+02
9.940000e+02 3.069739e+01
9.950000e+02 3.098703e+01
9.960000e+02 2.217182e+02
9.970000e+02 2.555359e+01
9.980000e+02 3.614347e+02
9.990000e+02 2.443654e+02
1.000000e+03 3.861510e+02
1.001000e+03 4.071586e+02
1.002000e+03 4.202016e+02
1.003000e+03 3.599331e+02
1.004000e+03 2.485551e+02
1.005000e+03 3.953707e+02
1.006000e+03 4.782036e+02
1.007000e+03 4.942804e+02
1.008000e+03 5.073922e+02
1.009000e+03 4.604579e+02
1.010000e+03 5.420441e+02
1.011000e+03 5.613068e+02
1.012000e+03 5.774235e+02
1.013000e+03 5.950295e+02
1.014000e+03 1.322112e+02
1.015000e+03 2.880367e+02
1.016000e+03 5.753419e+02
1.017000e+03 1.437132e+02
1.018000e+03 6.066043e+02
1.019000e+03 3.273376e+02
1.020000e+03 7.364074e+02
1.021000e+03 1.522269e+02
1.022000e+03 4.945619e+02
1.023000e+03 3.914195e+02
1.024000e+03 6.781191e+02
1.025000e+03 1.272523e+02
1.026000e+03 9.670097e+01
1.027000e+03 6.478848e+02
1.028000e+03 8.635028e+01
1.029000e+03 2.240305e+02
1.030000e+03 9.502226e+02
1.031000e+03 9.764195e+02
1.032000e+03 1.044503e+03
1.033000e+03 1.175929e+02
1.034000e+03 1.113313e+03
1.035000e+03 1.274244e+02
1.036000e+03 3.103207e+02
1.037000e+03 1.248135e+03
1.038000e+03 1.303695e+03
1.039000e+03 1.322974e+03
1.040000e+03 1.382892e+03
1.041000e+03 1.401074e+03
1.042000e+03 1.469477e+03
1.043000e+03 1.325575e+03
1.044000e+03 1.568276e+03
1.045000e+03 1.604594e+03
1.046000e+03 1.662533e+03
1.047000e+03 1.662701e+03
1.048000e+03 1.152927e+03
1.049000e+03 1.717407e+03
1.050000e+03 1.794862e+03
1.051000e+03 1.778108e+03
1.052000e+03 1.991583e+03
1.053000e+03 2.048934e+03
1.054000e+03 4.817429e+02
1.055000e+03 2.173165e+03
1.056000e+03 2.249075e+03
1.057000e+03 2.274995e+03
1.058000e+03 2.235106e+03
1.059000e+03 1.988930e+03
1.060000e+03 1.660105e+03
1.061000e+03 2.573706e+03
1.062000e+03 2.360757e+03
1.063000e+03 3.406407e+02
1.064000e+03 3.871326e+02
1.065000e+03 7.672393e+02
1.066000e+03 2.094854e+03
1.067000e+03 2.266141e+03
1.068000e+03 3.199624e+03
1.069000e+03 1.555978e+03
1.070000e+03 3.316748e+03
1.071000e+03 3.489567e+03
1.072000e+03 3.590554e+03
1.073000e+03 1.232380e+03
1.074000e+03 3.686794e+03
1.075000e+03 3.719484e+03
1.076000e+03 4.024544e+03
1.077000e+03 1.501869e+03
1.078000e+03 3.825247e+03
1.079000e+03 4.213026e+03
1.080000e+03 4.385986e+03
1.081000e+03 4.604108e+03
1.082000e+03 4.711941e+03
1.083000e+03 4.808674e+03
1.084000e+03 5.031433e+03
1.085000e+03 2.817503e+03
1.086000e+03 5.321958e+03
1.087000e+03 4.238477e+03
1.088000e+03 5.579930e+03
1.089000e+03 5.772206e+03
1.090000e+03 5.437527e+03
1.091000e+03 5.601496e+03
1.092000e+03 6.248110e+03
1.093000e+03 6.413217e+03
1.094000e+03 6.538881e+03
1.095000e+03 6.775434e+03
1.096000e+03 5.609804e+03
1.097000e+03 7.003651e+03
1.098000e+03 7.313759e+03
1.099000e+03 7.310338e+03
1.100000e+03 4.502713e+03
1.101000e+03 5.387275e+03
1.102000e+03 1.650365e+04
1.103000e+03 6.090994e+04
1.104000e+03 2.220009e+04
1.105000e+03 8.055766e+03
1.106000e+03 9.380012e+04
1.107000e+03 9.646203e+03
1.108000e+03 1.105185e+05
1.109000e+03 4.324906e+04
1.110000e+03 4.004998e+04
1.111000e+03 2.187168e+04
1.112000e+03 1.096527e+05
1.113000e+03 1.219895e+05
1.114000e+03 5.873113e+03
1.115000e+03 6.836899e+04
1.116000e+03 5.754220e+04
1.117000e+03 5.415781e+03
1.118000e+03 5.677430e+04
1.119000e+03 1.319796e+05
1.120000e+03 6.028148e+04
1.121000e+03 1.360865e+05
1.122000e+03 2.829461e+03
1.123000e+03 2.755388e+04
1.124000e+03 1.506442e+05
1.125000e+03 1.035315e+05
1.126000e+03 1.585856e+05
1.127000e+03 1.547095e+05
1.128000e+03 7.000074e+04
1.129000e+03 1.565926e+05
1.130000e+03 1.625224e+05
1.131000e+03 1.705839e+05
1.132000e+03 3.759953e+03
1.133000e+03 1.022803e+05
1.134000e+03 1.684981e+05
1.135000e+03 2.942266e+03
1.136000e+03 1.490392e+05
1.137000e+03 1.917138e+05
1.138000e+03 1.826860e+05
1.139000e+03 1.969298e+05
1.140000e+03 3.692789e+03
1.141000e+03 2.066575e+05
1.142000e+03 2.109163e+05
1.143000e+03 2.065828e+05
1.144000e+03 2.181302e+05
1.145000e+03 4.392738e+04
1.146000e+03 2.277238e+05
1.147000e+03 2.275092e+05
1.148000e+03 1.273027e+05
1.149000e+03 2.366883e+05
1.150000e+03 2.352532e+05
1.151000e+03 2.469478e+05
1.152000e+03 2.524467e+05
1.153000e+03 1.154299e+05
1.154000e+03 2.379745e+05
1.155000e+03 2.615902e+05
1.156000e+03 1.475371e+05
1.157000e+03 2.725823e+05
1.158000e+03 6.768923e+03
1.159000e+03 2.621565e+05
1.160000e+03 2.734255e+05
1.161000e+03 2.958408e+05
1.162000e+03 8.936856e+04
1.163000e+03 2.659361e+05
1.164000e+03 6.822562e+03
1.165000e+03 3.168978e+05
1.166000e+03 3.199009e+05
1.167000e+03 3.253415e+05
1.168000e+03 3.398997e+05
1.169000e+03 3.379522e+05
1.170000e+03 3.474102e+05
1.171000e+03 3.592139e+05
1.172000e+03 3.477563e+05
1.173000e+03 3.770068e+05
1.174000e+03 1.606506e+05
1.175000e+03 9.796812e+03
1.176000e+03 1.193000e+04
1.177000e+03 4.092461e+05
1.178000e+03 4.137542e+05
1.179000e+03 4.242063e+05
1.180000e+03 3.507241e+05
1.181000e+03 4.403342e+05
1.182000e+03 4.499755e+05
1.183000e+03 4.518118e+05
1.184000e+03 4.570153e+05
1.185000e+03 4.709331e+05
1.186000e+03 3.592676e+05
1.187000e+03 4.875820e+05
1.188000e+03 4.657516e+05
1.189000e+03 1.530569e+04
1.190000e+03 1.741762e+05
1.191000e+03 5.087652e+05
1.192000e+03 5.179178e+05
1.193000e+03 2.123688e+04
1.194000e+03 1.699897e+04
1.195000e+03 4.655372e+05
1.196000e+03 5.344061e+05
1.197000e+03 9.205385e+05
1.198000e+03 7.285594e+05
1.199000e+03 8.909724e+05
1.200000e+03 6.988877e+05
1.201000e+03 8.311629e+05
1.202000e+03 7.892322e+05
1.203000e+03 1.100586e+06
1.204000e+03 8.020053e+05
1.205000e+03 8.973560e+05
1.206000e+03 8.569024e+05
1.207000e+03 5.767975e+04
1.208000e+03 5.692756e+05
1.209000e+03 3.990732e+05
1.210000e+03 2.800519e+04
1.211000e+03 1.860302e+05
1.212000e+03 1.024564e+05
1.213000e+03 5.279548e+04
1.214000e+03 2.881340e+04
1.215000e+03 2.885608e+04
1.216000e+03 3.598741e+04
1.217000e+03 2.774442e+04
1.218000e+03 4.694718e+04
1.219000e+03 9.699012e+04
1.220000e+03 1.819724e+05
1.221000e+03 3.201580e+05
1.222000e+03 4.949125e+05
1.223000e+03 6.985246e+05
1.224000e+03 9.107704e+05
1.225000e+03 8.589601e+05
1.226000e+03 1.428590e+06
1.227000e+03 1.654877e+06
1.228000e+03 1.719903e+06
1.229000e+03 2.141698e+06
1.230000e+03 2.269986e+06
1.231000e+03 2.091668e+06
1.232000e+03 2.848522e+06
1.233000e+03 3.072899e+06
1.234000e+03 1.771293e+06
1.235000e+03 3.456373e+06
1.236000e+03 3.061642e+06
1.237000e+03 3.826086e+06
1.238000e+03 3.974842e+06
1.239000e+03 4.090465e+06
1.240000e+03 2.685013e+06
1.241000e+03 4.710692e+06
1.242000e+03 4.253632e+06
1.243000e+03 5.038482e+06
1.244000e+03 3.639016e+06
1.245000e+03 4.480430e+06
1.246000e+03 5.937263e+06
1.247000e+03 6.084416e+06
1.248000e+03 3.499529e+06
1.249000e+03 4.717192e+06
1.250000e+03 5.932840e+06
1.251000e+03 6.911436e+06
1.252000e+03 6.885404e+06
1.253000e+03 7.241803e+06
1.254000e+03 7.299028e+06
1.255000e+03 7.146926e+06
1.256000e+03 7.488533e+06
1.257000e+03 7.311146e+06
1.258000e+03 7.530644e+06
1.259000e+03 8.003827e+06
1.260000e+03 7.801735e+06
1.261000e+03 1.122804e+05
1.262000e+03 3.421324e+06
1.263000e+03 8.526451e+06
1.264000e+03 8.402643e+06
1.265000e+03 1.267435e+05
1.266000e+03 9.264338e+06
1.267000e+03 9.207238e+06
