# wavelength_A flux
5.000000e+02 1.753909e-27
5.010000e+02 2.172301e-27
5.020000e+02 2.688179e-27
5.030000e+02 3.323716e-27
5.040000e+02 4.106006e-27
5.050000e+02 5.494364e-27
5.060000e+02 6.766536e-27
5.070000e+02 8.319809e-27
5.080000e+02 1.023223e-26
5.090000e+02 1.256707e-26
5.100000e+02 1.405877e-26
5.110000e+02 1.891210e-26
5.120000e+02 2.315553e-26
5.130000e+02 2.837145e-26
5.140000e+02 3.470968e-26
5.150000e+02 4.243000e-26
5.160000e+02 5.182674e-26
5.170000e+02 6.326440e-26
5.180000e+02 7.716235e-26
5.190000e+02 9.404223e-26
5.200000e+02 1.145287e-25
5.210000e+02 1.393731e-25
5.220000e+02 1.694062e-25
5.230000e+02 2.059418e-25
5.240000e+02 2.500716e-25
5.250000e+02 3.034289e-25
5.260000e+02 3.679027e-25
5.270000e+02 4.457534e-25
5.280000e+02 5.396895e-25
5.290000e+02 6.529513e-25
5.300000e+02 7.894261e-25
5.310000e+02 9.537461e-25
5.320000e+02 1.151457e-24
5.330000e+02 1.389179e-24
5.340000e+02 1.674808e-24
5.350000e+02 2.017756e-24
5.360000e+02 2.429198e-24
5.370000e+02 2.837767e-24
5.380000e+02 3.513818e-24
5.390000e+02 4.221890e-24
5.400000e+02 5.069087e-24
5.410000e+02 6.081661e-24
5.420000e+02 7.292820e-24
5.430000e+02 8.738617e-24
5.440000e+02 1.046409e-23
5.450000e+02 1.252200e-23
5.460000e+02 1.497475e-23
5.470000e+02 1.789628e-23
5.480000e+02 2.137385e-23
5.490000e+02 2.551066e-23
5.500000e+02 3.042853e-23
5.510000e+02 3.627120e-23
5.520000e+02 4.320817e-23
5.530000e+02 5.143921e-23
5.540000e+02 6.119960e-23
5.550000e+02 7.276626e-23
5.560000e+02 8.646495e-23
5.570000e+02 1.026786e-22
5.580000e+02 1.218572e-22
5.590000e+02 1.445291e-22
5.600000e+02 1.713140e-22
5.610000e+02 2.029392e-22
5.620000e+02 2.402568e-22
5.630000e+02 2.842649e-22
5.640000e+02 3.361321e-22
5.650000e+02 3.972256e-22
5.660000e+02 4.691441e-22
5.670000e+02 5.537560e-22
5.680000e+02 6.532432e-22
5.690000e+02 7.701529e-22
5.700000e+02 9.074567e-22
5.710000e+02 1.068619e-21
5.720000e+02 1.257678e-21
5.730000e+02 1.479335e-21
5.740000e+02 1.739063e-21
5.750000e+02 2.043230e-21
5.760000e+02 2.399224e-21
5.770000e+02 2.815795e-21
5.780000e+02 3.302700e-21
5.790000e+02 3.871640e-21
5.800000e+02 4.536070e-21
5.810000e+02 5.311588e-21
5.820000e+02 6.216260e-21
5.830000e+02 7.270930e-21
5.840000e+02 8.496338e-21
5.850000e+02 9.930802e-21
5.860000e+02 1.159823e-20
5.870000e+02 1.353719e-20
5.880000e+02 1.579174e-20
5.890000e+02 1.841198e-20
5.900000e+02 2.145562e-20
5.910000e+02 2.498926e-20
5.920000e+02 2.908965e-20
5.930000e+02 3.384525e-20
5.940000e+02 3.935789e-20
5.950000e+02 4.574484e-20
5.960000e+02 5.314100e-20
5.970000e+02 6.170148e-20
5.980000e+02 7.160461e-20
5.990000e+02 8.305518e-20
6.000000e+02 9.628843e-20
6.010000e+02 1.115743e-19
6.020000e+02 1.292224e-19
6.030000e+02 1.495877e-19
6.040000e+02 1.730772e-19
6.050000e+02 2.001570e-19
6.060000e+02 2.313606e-19
6.070000e+02 2.672986e-19
6.080000e+02 3.086696e-19
6.090000e+02 3.562721e-19
6.100000e+02 4.110188e-19
6.110000e+02 4.739520e-19
6.120000e+02 5.462617e-19
6.130000e+02 6.293062e-19
6.140000e+02 7.246345e-19
6.150000e+02 8.340128e-19
6.160000e+02 9.594540e-19
6.170000e+02 1.103251e-18
6.180000e+02 1.268014e-18
6.190000e+02 1.456714e-18
6.200000e+02 1.672731e-18
6.210000e+02 1.919908e-18
6.220000e+02 2.202612e-18
6.230000e+02 2.525805e-18
6.240000e+02 2.895123e-18
6.250000e+02 3.316961e-18
6.260000e+02 3.798576e-18
6.270000e+02 4.348197e-18
6.280000e+02 4.975153e-18
6.290000e+02 5.690015e-18
6.300000e+02 6.504754e-18
6.310000e+02 7.429465e-18
6.320000e+02 8.489887e-18
6.330000e+02 9.692963e-18
6.340000e+02 1.106180e-17
6.350000e+02 1.261841e-17
6.360000e+02 1.438831e-17
6.370000e+02 1.639935e-17
6.380000e+02 1.868361e-17
6.390000e+02 2.127715e-17
6.400000e+02 2.422064e-17
6.410000e+02 2.755990e-17
6.420000e+02 3.134661e-17
6.430000e+02 3.563899e-17
6.440000e+02 4.050258e-17
6.450000e+02 4.601119e-17
6.460000e+02 5.224785e-17
6.470000e+02 5.930596e-17
6.480000e+02 6.729055e-17
6.490000e+02 7.631966e-17
6.500000e+02 8.652592e-17
6.510000e+02 9.805826e-17
6.520000e+02 1.110839e-16
6.530000e+02 1.257905e-16
6.540000e+02 1.423886e-16
6.550000e+02 1.611141e-16
6.560000e+02 1.822318e-16
6.570000e+02 2.060381e-16
6.580000e+02 2.328652e-16
6.590000e+02 2.630848e-16
6.600000e+02 2.971133e-16
6.610000e+02 3.354164e-16
6.620000e+02 3.785150e-16
6.630000e+02 4.269913e-16
6.640000e+02 4.814965e-16
6.650000e+02 5.427576e-16
6.660000e+02 6.115885e-16
6.670000e+02 6.888930e-16
6.680000e+02 7.756843e-16
6.690000e+02 8.730918e-16
6.700000e+02 9.823746e-16
6.710000e+02 1.104937e-15
6.720000e+02 1.242342e-15
6.730000e+02 1.396335e-15
6.740000e+02 1.568856e-15
6.750000e+02 1.762067e-15
6.760000e+02 1.978373e-15
6.770000e+02 2.220450e-15
6.780000e+02 2.491276e-15
6.790000e+02 2.794158e-15
6.800000e+02 3.132776e-15
6.810000e+02 3.511215e-15
6.820000e+02 3.934016e-15
6.830000e+02 4.406218e-15
6.840000e+02 4.933413e-15
6.850000e+02 5.521811e-15
6.860000e+02 6.178295e-15
6.870000e+02 6.910500e-15
6.880000e+02 7.726888e-15
6.890000e+02 8.636838e-15
6.900000e+02 9.650739e-15
6.910000e+02 1.078010e-14
6.920000e+02 1.203765e-14
6.930000e+02 1.343748e-14
6.940000e+02 1.499521e-14
6.950000e+02 1.672807e-14
6.960000e+02 1.865513e-14
6.970000e+02 2.079748e-14
6.980000e+02 2.317842e-14
6.990000e+02 2.582367e-14
7.000000e+02 2.876166e-14
7.010000e+02 3.202375e-14
7.020000e+02 3.564457e-14
7.030000e+02 3.966231e-14
7.040000e+02 4.411911e-14
7.050000e+02 4.906143e-14
7.060000e+02 5.454000e-14
7.070000e+02 6.061265e-14
7.080000e+02 6.734016e-14
7.090000e+02 7.479144e-14
7.100000e+02 8.304189e-14
7.110000e+02 9.217446e-14
7.120000e+02 1.022804e-13
7.130000e+02 1.134603e-13
7.140000e+02 1.258244e-13
7.150000e+02 1.394942e-13
7.160000e+02 1.546031e-13
7.170000e+02 1.712977e-13
7.180000e+02 1.897391e-13
7.190000e+02 2.101042e-13
7.200000e+02 2.325870e-13
7.210000e+02 2.574007e-13
7.220000e+02 2.847791e-13
7.230000e+02 3.149785e-13
7.240000e+02 3.482803e-13
7.250000e+02 3.849927e-13
7.260000e+02 4.254536e-13
7.270000e+02 4.700333e-13
7.280000e+02 5.191372e-13
7.290000e+02 5.732094e-13
7.300000e+02 6.327362e-13
7.310000e+02 6.982495e-13
7.320000e+02 7.703318e-13
7.330000e+02 8.496203e-13
7.340000e+02 9.368107e-13
7.350000e+02 1.032665e-12
7.360000e+02 1.138016e-12
7.370000e+02 1.253772e-12
7.380000e+02 1.380928e-12
7.390000e+02 1.520569e-12
7.400000e+02 1.673880e-12
7.410000e+02 1.842155e-12
7.420000e+02 2.026805e-12
7.430000e+02 2.229370e-12
7.440000e+02 2.451530e-12
7.450000e+02 2.695119e-12
7.460000e+02 2.962132e-12
7.470000e+02 3.254747e-12
7.480000e+02 3.575336e-12
7.490000e+02 3.926484e-12
7.500000e+02 4.311005e-12
7.510000e+02 4.731963e-12
7.520000e+02 5.192695e-12
7.530000e+02 5.696831e-12
7.540000e+02 6.248322e-12
7.550000e+02 6.851464e-12
7.560000e+02 7.510931e-12
7.570000e+02 8.231803e-12
7.580000e+02 9.019605e-12
7.590000e+02 9.880337e-12
7.600000e+02 1.082052e-11
7.610000e+02 1.184723e-11
7.620000e+02 1.296818e-11
7.630000e+02 1.419169e-11
7.640000e+02 1.552685e-11
7.650000e+02 1.698348e-11
7.660000e+02 1.857227e-11
7.670000e+02 2.030477e-11
7.680000e+02 2.219355e-11
7.690000e+02 2.425217e-11
7.700000e+02 2.649551e-11
7.710000e+02 2.893942e-11
7.720000e+02 3.160128e-11
7.730000e+02 3.449983e-11
7.740000e+02 3.765540e-11
7.750000e+02 4.108997e-11
7.760000e+02 4.482735e-11
7.770000e+02 4.889332e-11
7.780000e+02 5.331575e-11
7.790000e+02 5.812479e-11
7.800000e+02 6.335306e-11
7.810000e+02 6.903582e-11
7.820000e+02 7.521118e-11
7.830000e+02 8.192035e-11
7.840000e+02 8.920784e-11
7.850000e+02 9.712175e-11
7.860000e+02 1.057140e-10
7.870000e+02 1.150407e-10
7.880000e+02 1.251624e-10
7.890000e+02 1.361444e-10
7.900000e+02 1.480574e-10
7.910000e+02 1.609773e-10
7.920000e+02 1.749861e-10
7.930000e+02 1.901728e-10
7.940000e+02 2.066325e-10
7.950000e+02 2.244681e-10
7.960000e+02 2.437905e-10
7.970000e+02 2.647194e-10
7.980000e+02 2.873833e-10
7.990000e+02 3.119211e-10
8.000000e+02 3.384820e-10
8.010000e+02 3.672268e-10
8.020000e+02 3.983287e-10
8.030000e+02 4.319739e-10
8.040000e+02 4.683628e-10
8.050000e+02 5.076891e-10
8.060000e+02 5.502510e-10
8.070000e+02 5.962318e-10
8.080000e+02 6.459215e-10
8.090000e+02 6.996086e-10
8.100000e+02 7.576029e-10
8.110000e+02 8.202373e-10
8.120000e+02 8.878695e-10
8.130000e+02 9.608837e-10
8.140000e+02 1.039693e-09
8.150000e+02 1.124739e-09
8.160000e+02 1.216499e-09
8.170000e+02 1.315482e-09
8.180000e+02 1.422237e-09
8.190000e+02 1.537351e-09
8.200000e+02 1.661455e-09
8.210000e+02 1.795223e-09
8.220000e+02 1.939382e-09
8.230000e+02 2.094709e-09
8.240000e+02 2.262037e-09
8.250000e+02 2.442257e-09
8.260000e+02 2.636328e-09
8.270000e+02 2.845273e-09
8.280000e+02 3.070191e-09
8.290000e+02 3.312256e-09
8.300000e+02 3.572727e-09
8.310000e+02 3.852951e-09
8.320000e+02 4.154370e-09
8.330000e+02 4.478527e-09
8.340000e+02 4.827073e-09
8.350000e+02 5.201768e-09
8.360000e+02 5.604520e-09
8.370000e+02 6.037328e-09
8.380000e+02 6.502359e-09
8.390000e+02 7.001921e-09
8.400000e+02 7.538482e-09
8.410000e+02 8.114677e-09
8.420000e+02 8.733323e-09
8.430000e+02 9.397430e-09
8.440000e+02 1.011021e-08
8.450000e+02 1.087510e-08
8.460000e+02 1.169575e-08
8.470000e+02 1.257608e-08
8.480000e+02 1.352027e-08
8.490000e+02 1.453277e-08
8.500000e+02 1.561832e-08
8.510000e+02 1.678202e-08
8.520000e+02 1.802924e-08
8.530000e+02 1.936578e-08
8.540000e+02 2.079777e-08
8.550000e+02 2.233176e-08
8.560000e+02 2.397475e-08
8.570000e+02 2.573417e-08
8.580000e+02 2.761793e-08
8.590000e+02 2.963459e-08
8.600000e+02 3.179303e-08
8.610000e+02 3.410288e-08
8.620000e+02 3.657436e-08
8.630000e+02 3.921832e-08
8.640000e+02 4.204630e-08
8.650000e+02 4.507073e-08
8.660000e+02 4.830459e-08
8.670000e+02 5.176186e-08
8.680000e+02 5.545738e-08
8.690000e+02 5.940691e-08
8.700000e+02 6.362715e-08
8.710000e+02 6.813620e-08
8.720000e+02 7.295272e-08
8.730000e+02 7.809704e-08
8.740000e+02 8.359050e-08
8.750000e+02 8.945590e-08
8.760000e+02 9.571741e-08
8.770000e+02 1.024007e-07
8.780000e+02 1.095330e-07
8.790000e+02 1.171437e-07
8.800000e+02 1.252630e-07
8.810000e+02 1.339239e-07
8.820000e+02 1.431611e-07
8.830000e+02 1.530111e-07
8.840000e+02 1.635132e-07
8.850000e+02 1.747090e-07
8.860000e+02 1.866422e-07
8.870000e+02 1.993594e-07
8.880000e+02 2.129102e-07
8.890000e+02 2.273470e-07
8.900000e+02 2.427254e-07
8.910000e+02 2.591044e-07
8.920000e+02 2.765463e-07
8.930000e+02 2.951175e-07
8.940000e+02 3.148879e-07
8.950000e+02 3.359322e-07
8.960000e+02 3.583288e-07
8.970000e+02 3.821612e-07
8.980000e+02 4.075177e-07
8.990000e+02 4.344920e-07
9.000000e+02 4.631827e-07
9.010000e+02 4.936950e-07
9.020000e+02 5.261393e-07
9.030000e+02 5.606318e-07
9.040000e+02 5.973015e-07
9.050000e+02 6.362754e-07
9.060000e+02 6.776932e-07
9.070000e+02 7.217022e-07
9.080000e+02 7.684580e-07
9.090000e+02 8.181249e-07
9.100000e+02 8.708768e-07
9.110000e+02 9.268970e-07
9.120000e+02 9.863807e-07
9.130000e+02 1.049528e-06
9.140000e+02 1.229273e-06
9.150000e+02 3.983553e-04
9.160000e+02 1.334058e-03
9.170000e+02 1.800212e-05
9.180000e+02 5.355554e-04
9.190000e+02 3.834741e-03
9.200000e+02 9.349031e-03
9.210000e+02 1.715553e-06
9.220000e+02 1.170018e-03
9.230000e+02 2.670597e-05
9.240000e+02 3.024377e-05
9.250000e+02 2.021740e-04
9.260000e+02 6.588539e-04
9.270000e+02 2.409857e-05
9.280000e+02 2.778243e-02
9.290000e+02 4.380096e-02
9.300000e+02 1.122140e-02
9.310000e+02 3.341916e-05
9.320000e+02 3.659982e-02
9.330000e+02 9.233057e-04
9.340000e+02 3.075078e-04
9.350000e+02 2.709032e-04
9.360000e+02 5.952869e-05
9.370000e+02 2.319789e-05
9.380000e+02 1.379394e-04
9.390000e+02 1.519642e-04
9.400000e+02 8.414710e-03
9.410000e+02 1.689039e-03
9.420000e+02 1.204804e-01
9.430000e+02 2.169479e-04
9.440000e+02 1.478356e-01
9.450000e+02 8.635175e-02
9.460000e+02 2.762802e-03
9.470000e+02 1.424947e-05
9.480000e+02 2.656106e-02
9.490000e+02 7.040024e-03
9.500000e+02 3.201714e-04
9.510000e+02 2.690095e-03
9.520000e+02 4.822977e-03
9.530000e+02 5.622054e-05
9.540000e+02 1.773098e-05
9.550000e+02 5.621985e-04
9.560000e+02 7.511157e-02
9.570000e+02 3.207270e-04
9.580000e+02 1.543656e-05
9.590000e+02 2.117157e-02
9.600000e+02 5.835868e-04
9.610000e+02 3.579441e-03
9.620000e+02 1.445680e-03
9.630000e+02 4.054587e-04
9.640000e+02 9.034132e-05
9.650000e+02 4.142523e-05
9.660000e+02 6.080307e-04
9.670000e+02 1.331316e-04
9.680000e+02 9.276345e-05
9.690000e+02 3.356434e-03
9.700000e+02 3.444129e-03
9.710000e+02 1.872061e-04
9.720000e+02 1.284913e-04
9.730000e+02 2.464897e-03
9.740000e+02 4.547295e-03
9.750000e+02 1.194246e-03
9.760000e+02 3.012468e-02
9.770000e+02 1.399509e-02
9.780000e+02 5.413480e-03
9.790000e+02 3.477531e-01
9.800000e+02 2.529427e-01
9.810000e+02 4.025981e-03
9.820000e+02 8.387230e-04
9.830000e+02 9.747554e-02
9.840000e+02 2.945677e-02
9.850000e+02 2.076866e-03
9.860000e+02 3.240033e-03
9.870000e+02 1.143176e-01
9.880000e+02 1.216158e-04
9.890000e+02 1.677415e-02
9.900000e+02 5.237588e-02
9.910000e+02 8.053582e-04
9.920000e+02 9.515813e-05
9.930000e+02 6.906695e-01
9.940000e+02 3.789221e-04
9.950000e+02 3.495439e-02
9.960000e+02 3.291816e-04
9.970000e+02 4.284861e-02
9.980000e+02 5.475001e-02
9.990000e+02 1.542905e-03
1.000000e+03 1.334833e+00
1.001000e+03 8.779974e-01
1.002000e+03 3.393674e-01
1.003000e+03 1.631975e-03
1.004000e+03 2.352595e-04
1.005000e+03 4.861355e-03
1.006000e+03 1.920156e-01
1.007000e+03 4.320968e-01
1.008000e+03 9.167372e-02
1.009000e+03 2.592149e-03
1.010000e+03 9.972146e-02
1.011000e+03 1.784808e-01
1.012000e+03 1.282847e-01
1.013000e+03 1.132547e-01
1.014000e+03 2.900437e-04
1.015000e+03 3.931522e-04
1.016000e+03 6.052762e-03
1.017000e+03 3.335774e-04
1.018000e+03 2.557844e-03
1.019000e+03 4.309416e-04
1.020000e+03 3.699014e-01
1.021000e+03 4.000723e-03
1.022000e+03 5.938888e-03
1.023000e+03 6.801486e-04
1.024000e+03 1.848616e-01
1.025000e+03 4.928997e-04
1.026000e+03 1.374555e-03
1.027000e+03 2.720276e-02
1.028000e+03 1.031613e-02
1.029000e+03 6.009936e-04
1.030000e+03 2.512658e-02
1.031000e+03 3.586188e-02
1.032000e+03 4.027831e-01
1.033000e+03 6.951296e-02
1.034000e+03 5.214476e-02
1.035000e+03 7.375538e-03
1.036000e+03 8.502305e-04
1.037000e+03 2.918183e-01
1.038000e+03 1.913282e+00
1.039000e+03 3.017135e-01
1.040000e+03 3.406245e-01
1.041000e+03 2.655033e+00
1.042000e+03 1.007986e+00
1.043000e+03 1.109762e+00
1.044000e+03 9.524434e+00
1.045000e+03 4.968321e-03
1.046000e+03 3.506839e-01
1.047000e+03 1.113901e-01
1.048000e+03 4.191086e-03
1.049000e+03 1.232066e-01
1.050000e+03 4.520231e-02
1.051000e+03 2.580845e-02
1.052000e+03 1.203114e+00
1.053000e+03 2.729205e+00
1.054000e+03 1.947284e-03
1.055000e+03 3.786485e+00
1.056000e+03 3.933838e+00
1.057000e+03 3.001960e-01
1.058000e+03 2.736539e-02
1.059000e+03 2.055907e-02
1.060000e+03 6.696224e-03
1.061000e+03 4.582520e-01
1.062000e+03 1.553471e-02
1.063000e+03 4.744880e-01
1.064000e+03 8.884430e-03
1.065000e+03 3.209591e-03
1.066000e+03 6.594130e-01
1.067000e+03 1.598322e-02
1.068000e+03 1.124419e+01
1.069000e+03 6.084315e-03
1.070000e+03 1.998844e-01
1.071000e+03 2.499348e+00
1.072000e+03 6.264511e+00
1.073000e+03 4.703045e-03
1.074000e+03 3.325007e-01
1.075000e+03 2.022591e-01
1.076000e+03 7.340511e+00
1.077000e+03 2.434969e-02
1.078000e+03 3.723335e-02
1.079000e+03 1.468745e-01
1.080000e+03 4.594439e-01
1.081000e+03 1.577759e+00
1.082000e+03 9.873457e-01
1.083000e+03 5.662546e-01
1.084000e+03 2.722708e+01
1.085000e+03 1.723218e-01
1.086000e+03 1.414044e+01
1.087000e+03 4.036331e-02
1.088000e+03 4.536838e+01
1.089000e+03 4.297849e+01
1.090000e+03 1.385528e-01
1.091000e+03 1.871758e-01
1.092000e+03 2.094464e+01
1.093000e+03 2.833009e+01
1.094000e+03 1.499683e+00
1.095000e+03 6.085909e+01
1.096000e+03 1.174748e+01
1.097000e+03 4.934548e+00
1.098000e+03 4.371235e+01
1.099000e+03 5.022659e-01
1.100000e+03 2.081275e-02
1.101000e+03 4.077729e-02
1.102000e+03 3.079155e-01
1.103000e+03 2.988201e+01
1.104000e+03 7.775881e+01
1.105000e+03 4.495408e+01
1.106000e+03 1.321188e+00
1.107000e+03 2.911186e-02
1.108000e+03 6.788904e+00
1.109000e+03 1.886997e-01
1.110000e+03 9.479601e+01
1.111000e+03 2.133751e+01
1.112000e+03 3.390271e+00
1.113000e+03 5.284372e+01
1.114000e+03 2.207089e+00
1.115000e+03 2.627800e-01
1.116000e+03 1.298379e-01
1.117000e+03 2.180814e+01
1.118000e+03 3.056822e-01
1.119000e+03 4.349096e+00
1.120000e+03 1.588306e-01
1.121000e+03 1.523842e+01
1.122000e+03 1.156893e+02
1.123000e+03 3.104449e+01
1.124000e+03 3.517878e+01
1.125000e+03 1.546753e+01
1.126000e+03 3.445427e+02
1.127000e+03 2.342704e+01
1.128000e+03 1.523104e+02
1.129000e+03 1.064401e+01
1.130000e+03 5.995975e+01
1.131000e+03 1.307164e+02
1.132000e+03 2.878456e-01
1.133000e+03 1.326584e+00
1.134000e+03 1.210863e+01
1.135000e+03 1.001852e+02
1.136000e+03 2.859303e+00
1.137000e+03 4.611219e+01
1.138000e+03 1.060756e+01
1.139000e+03 1.297928e+02
1.140000e+03 1.507358e+02
1.141000e+03 9.349474e+01
1.142000e+03 2.137140e+02
1.143000e+03 1.673163e+01
1.144000e+03 1.916195e+02
1.145000e+03 1.811066e-01
1.146000e+03 2.706161e+02
1.147000e+03 1.284047e+02
1.148000e+03 9.188232e-01
1.149000e+03 5.478183e+01
1.150000e+03 3.345221e+01
1.151000e+03 2.310399e+02
1.152000e+03 8.844946e+01
1.153000e+03 1.388414e+02
1.154000e+03 3.055330e+02
1.155000e+03 4.788567e+01
1.156000e+03 2.577598e+02
1.157000e+03 3.042833e+02
1.158000e+03 1.942392e+01
1.159000e+03 1.914219e+02
1.160000e+03 2.239772e+01
1.161000e+03 1.529025e+02
1.162000e+03 3.666878e+00
1.163000e+03 1.102202e+01
1.164000e+03 2.688927e+00
1.165000e+03 7.423433e+01
1.166000e+03 4.356549e+01
1.167000e+03 4.270010e+01
1.168000e+03 2.843644e+02
1.169000e+03 3.450578e+02
1.170000e+03 3.030185e+01
1.171000e+03 1.206650e+02
1.172000e+03 3.560400e+01
1.173000e+03 1.399266e+02
1.174000e+03 8.951912e-01
1.175000e+03 1.629215e+00
1.176000e+03 5.538626e-01
1.177000e+03 4.302906e+02
1.178000e+03 4.327587e+02
1.179000e+03 2.696577e+02
1.180000e+03 7.292848e+01
1.181000e+03 3.879859e+02
1.182000e+03 2.401031e+02
1.183000e+03 8.233595e+01
1.184000e+03 6.479294e+01
1.185000e+03 9.110812e+01
1.186000e+03 4.026944e+00
1.187000e+03 1.582174e+02
1.188000e+03 4.791843e+01
1.189000e+03 3.223361e+02
1.190000e+03 2.844861e+02
1.191000e+03 1.419499e+02
1.192000e+03 2.190981e+02
1.193000e+03 1.214367e+02
1.194000e+03 2.067131e+02
1.195000e+03 1.940474e+02
1.196000e+03 4.518556e+02
1.197000e+03 1.586112e+03
1.198000e+03 1.091148e+01
1.199000e+03 1.543450e+03
1.200000e+03 2.937735e+01
1.201000e+03 1.041132e+03
1.202000e+03 1.416987e+02
1.203000e+03 5.763878e+02
1.204000e+03 2.960679e+01
1.205000e+03 3.977185e+02
1.206000e+03 4.766342e+02
1.207000e+03 1.752052e+02
1.208000e+03 2.877478e+02
1.209000e+03 3.498311e+02
1.210000e+03 2.511841e+00
1.211000e+03 1.535812e+02
1.212000e+03 5.452963e+01
1.213000e+03 4.854945e+01
1.214000e+03 1.665400e+01
1.215000e+03 2.360996e+00
1.216000e+03 1.231617e+00
1.217000e+03 1.063967e+01
1.218000e+03 4.116252e+01
1.219000e+03 9.448640e+01
1.220000e+03 3.385654e+01
1.221000e+03 2.757622e+02
1.222000e+03 2.487471e+02
1.223000e+03 2.085286e+02
1.224000e+03 7.902176e+02
1.225000e+03 1.749048e+01
1.226000e+03 1.432165e+03
1.227000e+03 1.240522e+03
1.228000e+03 1.001668e+02
1.229000e+03 7.968804e+02
1.230000e+03 5.162365e+02
1.231000e+03 6.209680e+01
1.232000e+03 3.454641e+03
1.233000e+03 4.157485e+03
1.234000e+03 4.103242e+03
1.235000e+03 2.157509e+03
1.236000e+03 1.456688e+02
1.237000e+03 4.132493e+03
1.238000e+03 2.588583e+03
1.239000e+03 8.438708e+02
1.240000e+03 2.993740e+03
1.241000e+03 8.621425e+02
1.242000e+03 2.119286e+03
1.243000e+03 5.512747e+03
1.244000e+03 6.990770e+03
1.245000e+03 4.464313e+03
1.246000e+03 1.769359e+03
1.247000e+03 2.902354e+03
1.248000e+03 7.467582e+03
1.249000e+03 9.733824e+03
1.250000e+03 4.761179e+03
1.251000e+03 7.749170e+03
1.252000e+03 3.646631e+03
1.253000e+03 9.169080e+03
1.254000e+03 4.137017e+03
1.255000e+03 3.841915e+03
1.256000e+03 3.156018e+03
1.257000e+03 5.810869e+03
1.258000e+03 1.197920e+03
1.259000e+03 2.166992e+03
1.260000e+03 8.242287e+03
1.261000e+03 6.367139e+02
1.262000e+03 1.101526e+04
1.263000e+03 5.609713e+03
1.264000e+03 1.647986e+03
1.265000e+03 2.100504e+03
1.266000e+03 8.342418e+03
1.267000e+03 2.543113e+03
