# wavelength_A flux
5.000000e+02 3.798834e-11
5.010000e+02 4.366306e-11
5.020000e+02 5.015667e-11
5.030000e+02 5.758315e-11
5.040000e+02 6.607177e-11
5.050000e+02 7.685790e-11
5.060000e+02 8.807996e-11
5.070000e+02 1.008845e-10
5.080000e+02 1.154866e-10
5.090000e+02 1.321301e-10
5.100000e+02 1.510891e-10
5.110000e+02 1.726748e-10
5.120000e+02 1.972378e-10
5.130000e+02 2.251741e-10
5.140000e+02 2.569301e-10
5.150000e+02 2.930075e-10
5.160000e+02 3.339788e-10
5.170000e+02 3.804683e-10
5.180000e+02 4.332239e-10
5.190000e+02 4.930275e-10
5.200000e+02 5.607976e-10
5.210000e+02 6.375561e-10
5.220000e+02 7.244059e-10
5.230000e+02 8.227751e-10
5.240000e+02 9.339732e-10
5.250000e+02 1.059676e-09
5.260000e+02 1.201694e-09
5.270000e+02 1.362071e-09
5.280000e+02 1.543093e-09
5.290000e+02 1.747078e-09
5.300000e+02 1.977612e-09
5.310000e+02 2.237177e-09
5.320000e+02 2.529597e-09
5.330000e+02 2.858870e-09
5.340000e+02 3.229469e-09
5.350000e+02 3.646384e-09
5.360000e+02 4.115174e-09
5.370000e+02 4.608999e-09
5.380000e+02 5.233985e-09
5.390000e+02 5.898763e-09
5.400000e+02 6.644848e-09
5.410000e+02 7.481503e-09
5.420000e+02 8.420458e-09
5.430000e+02 9.472623e-09
5.440000e+02 1.065141e-08
5.450000e+02 1.197154e-08
5.460000e+02 1.344786e-08
5.470000e+02 1.510285e-08
5.480000e+02 1.695220e-08
5.490000e+02 1.901974e-08
5.500000e+02 2.133016e-08
5.510000e+02 2.391092e-08
5.520000e+02 2.679240e-08
5.530000e+02 3.000832e-08
5.540000e+02 3.359596e-08
5.550000e+02 3.759664e-08
5.560000e+02 4.205606e-08
5.570000e+02 4.702477e-08
5.580000e+02 5.255865e-08
5.590000e+02 5.871948e-08
5.600000e+02 6.557551e-08
5.610000e+02 7.320212e-08
5.620000e+02 8.168249e-08
5.630000e+02 9.110843e-08
5.640000e+02 1.015812e-07
5.650000e+02 1.132125e-07
5.660000e+02 1.261255e-07
5.670000e+02 1.404556e-07
5.680000e+02 1.563524e-07
5.690000e+02 1.739802e-07
5.700000e+02 1.935198e-07
5.710000e+02 2.151709e-07
5.720000e+02 2.391519e-07
5.730000e+02 2.657037e-07
5.740000e+02 2.950909e-07
5.750000e+02 3.276070e-07
5.760000e+02 3.635464e-07
5.770000e+02 4.033193e-07
5.780000e+02 4.472530e-07
5.790000e+02 4.957882e-07
5.800000e+02 5.493872e-07
5.810000e+02 6.085568e-07
5.820000e+02 6.738517e-07
5.830000e+02 7.458771e-07
5.840000e+02 8.251765e-07
5.850000e+02 9.128406e-07
5.860000e+02 1.009363e-06
5.870000e+02 1.115659e-06
5.880000e+02 1.232709e-06
5.890000e+02 1.361549e-06
5.900000e+02 1.503346e-06
5.910000e+02 1.659321e-06
5.920000e+02 1.830843e-06
5.930000e+02 2.019396e-06
5.940000e+02 2.226603e-06
5.950000e+02 2.454222e-06
5.960000e+02 2.704212e-06
5.970000e+02 2.978645e-06
5.980000e+02 3.279824e-06
5.990000e+02 3.610246e-06
6.000000e+02 3.972633e-06
6.010000e+02 4.369897e-06
6.020000e+02 4.805408e-06
6.030000e+02 5.282529e-06
6.040000e+02 5.805124e-06
6.050000e+02 6.377352e-06
6.060000e+02 7.003709e-06
6.070000e+02 7.689128e-06
6.080000e+02 8.438913e-06
6.090000e+02 9.258863e-06
6.100000e+02 1.015526e-05
6.110000e+02 1.113493e-05
6.120000e+02 1.220528e-05
6.130000e+02 1.337434e-05
6.140000e+02 1.465081e-05
6.150000e+02 1.604417e-05
6.160000e+02 1.756462e-05
6.170000e+02 1.922328e-05
6.180000e+02 2.103217e-05
6.190000e+02 2.300428e-05
6.200000e+02 2.515374e-05
6.210000e+02 2.749577e-05
6.220000e+02 3.004689e-05
6.230000e+02 3.282495e-05
6.240000e+02 3.584926e-05
6.250000e+02 3.914068e-05
6.260000e+02 4.272179e-05
6.270000e+02 4.661694e-05
6.280000e+02 5.085249e-05
6.290000e+02 5.545685e-05
6.300000e+02 6.046073e-05
6.310000e+02 6.589082e-05
6.320000e+02 7.180222e-05
6.330000e+02 7.821395e-05
6.340000e+02 8.517465e-05
6.350000e+02 9.272836e-05
6.360000e+02 1.009107e-04
6.370000e+02 1.098138e-04
6.380000e+02 1.194533e-04
6.390000e+02 1.299032e-04
6.400000e+02 1.412286e-04
6.410000e+02 1.534995e-04
6.420000e+02 1.667914e-04
6.430000e+02 1.811853e-04
6.440000e+02 1.967685e-04
6.450000e+02 2.136348e-04
6.460000e+02 2.318852e-04
6.470000e+02 2.516278e-04
6.480000e+02 2.729795e-04
6.490000e+02 2.960652e-04
6.500000e+02 3.210192e-04
6.510000e+02 3.479862e-04
6.520000e+02 3.771209e-04
6.530000e+02 4.085895e-04
6.540000e+02 4.425704e-04
6.550000e+02 4.792552e-04
6.560000e+02 5.188489e-04
6.570000e+02 5.615667e-04
6.580000e+02 6.076593e-04
6.590000e+02 6.573647e-04
6.600000e+02 7.109581e-04
6.610000e+02 7.687308e-04
6.620000e+02 8.309923e-04
6.630000e+02 8.980756e-04
6.640000e+02 9.703369e-04
6.650000e+02 1.048156e-03
6.660000e+02 1.131943e-03
6.670000e+02 1.222132e-03
6.680000e+02 1.319190e-03
6.690000e+02 1.423615e-03
6.700000e+02 1.535941e-03
6.710000e+02 1.656736e-03
6.720000e+02 1.786609e-03
6.730000e+02 1.926211e-03
6.740000e+02 2.076235e-03
6.750000e+02 2.237422e-03
6.760000e+02 2.410564e-03
6.770000e+02 2.596506e-03
6.780000e+02 2.796148e-03
6.790000e+02 3.010452e-03
6.800000e+02 3.240442e-03
6.810000e+02 3.487212e-03
6.820000e+02 3.751928e-03
6.830000e+02 4.035832e-03
6.840000e+02 4.340248e-03
6.850000e+02 4.666585e-03
6.860000e+02 5.016350e-03
6.870000e+02 5.391132e-03
6.880000e+02 5.792654e-03
6.890000e+02 6.222713e-03
6.900000e+02 6.683245e-03
6.910000e+02 7.176305e-03
6.920000e+02 7.704076e-03
6.930000e+02 8.268884e-03
6.940000e+02 8.873202e-03
6.950000e+02 9.519656e-03
6.960000e+02 1.021104e-02
6.970000e+02 1.095025e-02
6.980000e+02 1.174067e-02
6.990000e+02 1.258542e-02
7.000000e+02 1.348814e-02
7.010000e+02 1.445261e-02
7.020000e+02 1.548284e-02
7.030000e+02 1.658310e-02
7.040000e+02 1.775791e-02
7.050000e+02 1.901207e-02
7.060000e+02 2.035067e-02
7.070000e+02 2.177912e-02
7.080000e+02 2.330313e-02
7.090000e+02 2.492878e-02
7.100000e+02 2.666255e-02
7.110000e+02 2.851121e-02
7.120000e+02 3.048202e-02
7.130000e+02 3.258264e-02
7.140000e+02 3.482118e-02
7.150000e+02 3.720625e-02
7.160000e+02 3.974695e-02
7.170000e+02 4.245286e-02
7.180000e+02 4.533409e-02
7.190000e+02 4.840209e-02
7.200000e+02 5.166753e-02
7.210000e+02 5.514276e-02
7.220000e+02 5.884057e-02
7.230000e+02 6.277451e-02
7.240000e+02 6.695886e-02
7.250000e+02 7.140875e-02
7.260000e+02 7.614017e-02
7.270000e+02 8.117001e-02
7.280000e+02 8.651611e-02
7.290000e+02 9.219735e-02
7.300000e+02 9.823364e-02
7.310000e+02 1.046460e-01
7.320000e+02 1.114567e-01
7.330000e+02 1.186891e-01
7.340000e+02 1.263681e-01
7.350000e+02 1.345197e-01
7.360000e+02 1.431715e-01
7.370000e+02 1.523528e-01
7.380000e+02 1.620939e-01
7.390000e+02 1.724274e-01
7.400000e+02 1.833873e-01
7.410000e+02 1.950100e-01
7.420000e+02 2.073327e-01
7.430000e+02 2.203962e-01
7.440000e+02 2.342420e-01
7.450000e+02 2.489148e-01
7.460000e+02 2.644613e-01
7.470000e+02 2.809307e-01
7.480000e+02 2.983750e-01
7.490000e+02 3.168486e-01
7.500000e+02 3.364093e-01
7.510000e+02 3.571175e-01
7.520000e+02 3.790370e-01
7.530000e+02 4.022346e-01
7.540000e+02 4.267812e-01
7.550000e+02 4.527507e-01
7.560000e+02 4.802214e-01
7.570000e+02 5.092731e-01
7.580000e+02 5.399985e-01
7.590000e+02 5.724812e-01
7.600000e+02 6.068210e-01
7.610000e+02 6.431162e-01
7.620000e+02 6.814726e-01
7.630000e+02 7.220007e-01
7.640000e+02 7.648171e-01
7.650000e+02 8.100436e-01
7.660000e+02 8.578089e-01
7.670000e+02 9.082474e-01
7.680000e+02 9.614987e-01
7.690000e+02 1.017717e+00
7.700000e+02 1.077052e+00
7.710000e+02 1.139670e+00
7.720000e+02 1.205742e+00
7.730000e+02 1.275448e+00
7.740000e+02 1.348977e+00
7.750000e+02 1.426527e+00
7.760000e+02 1.508274e+00
7.770000e+02 1.594530e+00
7.780000e+02 1.685429e+00
7.790000e+02 1.781242e+00
7.800000e+02 1.882221e+00
7.810000e+02 1.988626e+00
7.820000e+02 2.100735e+00
7.830000e+02 2.218835e+00
7.840000e+02 2.343230e+00
7.850000e+02 2.474234e+00
7.860000e+02 2.612180e+00
7.870000e+02 2.757418e+00
7.880000e+02 2.910306e+00
7.890000e+02 3.071226e+00
7.900000e+02 3.240577e+00
7.910000e+02 3.418776e+00
7.920000e+02 3.606258e+00
7.930000e+02 3.803479e+00
7.940000e+02 4.010918e+00
7.950000e+02 4.229071e+00
7.960000e+02 4.458463e+00
7.970000e+02 4.699637e+00
7.980000e+02 4.953166e+00
7.990000e+02 5.219645e+00
8.000000e+02 5.499697e+00
8.010000e+02 5.793974e+00
8.020000e+02 6.103160e+00
8.030000e+02 6.427962e+00
8.040000e+02 6.769125e+00
8.050000e+02 7.127426e+00
8.060000e+02 7.503675e+00
8.070000e+02 7.898719e+00
8.080000e+02 8.313443e+00
8.090000e+02 8.748770e+00
8.100000e+02 9.205663e+00
8.110000e+02 9.685128e+00
8.120000e+02 1.018822e+01
8.130000e+02 1.071602e+01
8.140000e+02 1.126969e+01
8.150000e+02 1.185041e+01
8.160000e+02 1.245943e+01
8.170000e+02 1.309804e+01
8.180000e+02 1.376761e+01
8.190000e+02 1.446953e+01
8.200000e+02 1.520528e+01
8.210000e+02 1.597640e+01
8.220000e+02 1.678449e+01
8.230000e+02 1.763120e+01
8.240000e+02 1.851828e+01
8.250000e+02 1.944754e+01
8.260000e+02 2.042087e+01
8.270000e+02 2.144022e+01
8.280000e+02 2.250764e+01
8.290000e+02 2.362527e+01
8.300000e+02 2.479532e+01
8.310000e+02 2.602010e+01
8.320000e+02 2.730203e+01
8.330000e+02 2.864360e+01
8.340000e+02 3.004743e+01
8.350000e+02 3.151520e+01
8.360000e+02 3.305274e+01
8.370000e+02 3.466013e+01
8.380000e+02 3.634121e+01
8.390000e+02 3.809931e+01
8.400000e+02 3.993766e+01
8.410000e+02 4.185973e+01
8.420000e+02 4.386880e+01
8.430000e+02 4.596952e+01
8.440000e+02 4.816482e+01
8.450000e+02 5.045903e+01
8.460000e+02 5.285635e+01
8.470000e+02 5.536112e+01
8.480000e+02 5.797785e+01
8.490000e+02 6.071125e+01
8.500000e+02 6.356620e+01
8.510000e+02 6.654775e+01
8.520000e+02 6.966116e+01
8.530000e+02 7.291198e+01
8.540000e+02 7.630591e+01
8.550000e+02 7.984868e+01
8.560000e+02 8.354651e+01
8.570000e+02 8.740577e+01
8.580000e+02 9.143307e+01
8.590000e+02 9.563525e+01
8.600000e+02 1.000195e+02
8.610000e+02 1.045931e+02
8.620000e+02 1.093637e+02
8.630000e+02 1.143394e+02
8.640000e+02 1.195284e+02
8.650000e+02 1.249391e+02
8.660000e+02 1.305807e+02
8.670000e+02 1.364622e+02
8.680000e+02 1.425932e+02
8.690000e+02 1.489836e+02
8.700000e+02 1.556435e+02
8.710000e+02 1.625841e+02
8.720000e+02 1.698159e+02
8.730000e+02 1.773506e+02
8.740000e+02 1.852000e+02
8.750000e+02 1.933764e+02
8.760000e+02 2.018925e+02
8.770000e+02 2.107616e+02
8.780000e+02 2.199975e+02
8.790000e+02 2.296142e+02
8.800000e+02 2.396265e+02
8.810000e+02 2.500495e+02
8.820000e+02 2.608990e+02
8.830000e+02 2.721913e+02
8.840000e+02 2.839435e+02
8.850000e+02 2.961728e+02
8.860000e+02 3.088976e+02
8.870000e+02 3.221364e+02
8.880000e+02 3.359088e+02
8.890000e+02 3.502349e+02
8.900000e+02 3.651354e+02
8.910000e+02 3.806319e+02
8.920000e+02 3.965875e+02
8.930000e+02 4.135026e+02
8.940000e+02 4.309238e+02
8.950000e+02 4.490347e+02
8.960000e+02 4.678609e+02
8.970000e+02 4.874288e+02
8.980000e+02 5.077657e+02
8.990000e+02 5.288998e+02
9.000000e+02 5.508602e+02
9.010000e+02 5.736772e+02
9.020000e+02 5.973818e+02
9.030000e+02 6.220064e+02
9.040000e+02 6.475839e+02
9.050000e+02 6.741498e+02
9.060000e+02 7.017388e+02
9.070000e+02 7.303854e+02
9.080000e+02 7.601347e+02
9.090000e+02 7.910190e+02
9.100000e+02 8.230812e+02
9.110000e+02 8.563640e+02
9.120000e+02 8.909144e+02
9.130000e+02 9.244285e+02
9.140000e+02 9.715525e+02
9.150000e+02 4.789060e+03
9.160000e+02 8.596582e+03
9.170000e+02 8.802243e+03
9.180000e+02 8.646411e+03
9.190000e+02 1.024362e+04
9.200000e+02 1.073446e+04
9.210000e+02 1.262836e+03
9.220000e+02 1.147592e+04
9.230000e+02 1.047831e+04
9.240000e+02 1.136941e+04
9.250000e+02 1.246330e+04
9.260000e+02 1.251815e+04
9.270000e+02 1.316977e+04
9.280000e+02 1.403774e+04
9.290000e+02 1.326310e+04
9.300000e+02 1.482278e+04
9.310000e+02 1.431817e+04
9.320000e+02 1.598767e+04
9.330000e+02 1.651119e+04
9.340000e+02 1.695359e+04
9.350000e+02 3.865971e+03
9.360000e+02 1.712405e+04
9.370000e+02 3.349867e+03
9.380000e+02 1.157736e+04
9.390000e+02 1.936445e+04
9.400000e+02 2.066822e+04
9.410000e+02 8.902737e+03
9.420000e+02 2.198821e+04
9.430000e+02 2.217585e+04
9.440000e+02 1.882617e+04
9.450000e+02 2.422122e+04
9.460000e+02 2.493412e+04
9.470000e+02 2.286754e+04
9.480000e+02 2.422439e+04
9.490000e+02 2.719489e+04
9.500000e+02 5.825699e+03
9.510000e+02 2.841133e+04
9.520000e+02 3.007890e+04
9.530000e+02 2.798615e+04
9.540000e+02 2.610389e+04
9.550000e+02 3.275489e+04
9.560000e+02 3.168308e+04
9.570000e+02 2.074216e+04
9.580000e+02 2.814917e+04
9.590000e+02 3.762455e+04
9.600000e+02 7.584695e+03
9.610000e+02 3.987482e+04
9.620000e+02 4.080885e+04
9.630000e+02 4.207760e+04
9.640000e+02 6.385797e+03
9.650000e+02 3.917497e+04
9.660000e+02 4.596383e+04
9.670000e+02 4.590352e+04
9.680000e+02 4.494118e+04
9.690000e+02 5.041356e+04
9.700000e+02 5.193391e+04
9.710000e+02 5.089711e+04
9.720000e+02 5.055414e+04
9.730000e+02 5.217412e+04
9.740000e+02 5.822126e+04
9.750000e+02 6.003736e+04
9.760000e+02 6.283315e+04
9.770000e+02 6.467720e+04
9.780000e+02 6.610757e+04
9.790000e+02 6.884509e+04
9.800000e+02 7.089395e+04
9.810000e+02 7.254246e+04
9.820000e+02 7.286991e+04
9.830000e+02 7.739482e+04
9.840000e+02 3.683198e+04
9.850000e+02 8.112738e+04
9.860000e+02 8.335942e+04
9.870000e+02 8.696726e+04
9.880000e+02 7.971643e+04
9.890000e+02 7.729173e+04
9.900000e+02 1.765601e+04
9.910000e+02 9.074272e+04
9.920000e+02 7.219303e+04
9.930000e+02 9.962997e+04
9.940000e+02 1.930106e+04
9.950000e+02 3.663896e+04
9.960000e+02 1.004280e+05
9.970000e+02 3.063929e+04
9.980000e+02 1.186639e+05
9.990000e+02 1.159233e+05
1.000000e+03 1.261207e+05
1.001000e+03 1.298742e+05
1.002000e+03 1.335024e+05
1.003000e+03 1.288430e+05
1.004000e+03 1.285868e+05
1.005000e+03 1.359803e+05
1.006000e+03 1.492874e+05
1.007000e+03 1.535437e+05
1.008000e+03 1.575804e+05
1.009000e+03 1.569263e+05
1.010000e+03 1.666157e+05
1.011000e+03 1.714123e+05
1.012000e+03 1.759777e+05
1.013000e+03 1.807619e+05
1.014000e+03 1.317821e+05
1.015000e+03 1.645409e+05
1.016000e+03 1.902179e+05
1.017000e+03 1.459845e+05
1.018000e+03 2.018981e+05
1.019000e+03 1.857312e+05
1.020000e+03 2.181804e+05
1.021000e+03 1.301754e+05
1.022000e+03 2.008055e+05
1.023000e+03 2.029895e+05
1.024000e+03 2.280229e+05
1.025000e+03 1.456550e+05
1.026000e+03 9.970484e+04
1.027000e+03 2.355473e+05
1.028000e+03 6.845947e+04
1.029000e+03 2.041177e+05
1.030000e+03 2.806536e+05
1.031000e+03 2.874461e+05
1.032000e+03 3.001502e+05
1.033000e+03 1.195808e+05
1.034000e+03 3.159660e+05
1.035000e+03 7.495978e+04
1.036000e+03 2.493204e+05
1.037000e+03 2.821001e+05
1.038000e+03 3.541051e+05
1.039000e+03 3.616082e+05
1.040000e+03 3.727820e+05
1.041000e+03 3.810429e+05
1.042000e+03 3.915349e+05
1.043000e+03 3.869961e+05
1.044000e+03 4.142225e+05
1.045000e+03 4.243637e+05
1.046000e+03 4.362978e+05
1.047000e+03 4.437771e+05
1.048000e+03 4.217134e+05
1.049000e+03 4.647640e+05
1.050000e+03 4.795666e+05
1.051000e+03 4.878213e+05
1.052000e+03 5.087628e+05
1.053000e+03 5.203126e+05
1.054000e+03 3.880335e+05
1.055000e+03 5.491831e+05
1.056000e+03 5.637508e+05
1.057000e+03 5.751036e+05
1.058000e+03 5.867910e+05
1.059000e+03 5.777586e+05
1.060000e+03 5.758032e+05
1.061000e+03 6.366111e+05
1.062000e+03 6.423076e+05
1.063000e+03 3.026505e+05
1.064000e+03 1.641069e+05
1.065000e+03 5.423039e+05
1.066000e+03 6.646480e+05
1.067000e+03 6.905392e+05
1.068000e+03 7.626181e+05
1.069000e+03 6.605754e+05
1.070000e+03 7.957297e+05
1.071000e+03 8.212709e+05
1.072000e+03 8.414803e+05
1.073000e+03 7.017466e+05
1.074000e+03 8.755389e+05
1.075000e+03 8.927099e+05
1.076000e+03 9.277771e+05
1.077000e+03 8.964771e+05
1.078000e+03 9.576634e+05
1.079000e+03 9.892477e+05
1.080000e+03 1.016985e+06
1.081000e+03 1.044541e+06
1.082000e+03 1.069120e+06
1.083000e+03 1.093433e+06
1.084000e+03 1.125056e+06
1.085000e+03 9.781292e+05
1.086000e+03 1.179661e+06
1.087000e+03 1.146589e+06
1.088000e+03 1.233984e+06
1.089000e+03 1.266199e+06
1.090000e+03 1.272389e+06
1.091000e+03 1.300669e+06
1.092000e+03 1.358133e+06
1.093000e+03 1.389486e+06
1.094000e+03 1.420180e+06
1.095000e+03 1.456285e+06
1.096000e+03 1.482196e+06
1.097000e+03 1.516086e+06
1.098000e+03 1.558001e+06
1.099000e+03 1.588823e+06
1.100000e+03 1.488520e+06
1.101000e+03 1.482070e+06
1.102000e+03 3.098255e+06
1.103000e+03 1.018461e+07
1.104000e+03 3.764126e+06
1.105000e+03 1.721534e+06
1.106000e+03 1.714038e+07
1.107000e+03 4.171304e+06
1.108000e+03 2.032108e+07
1.109000e+03 9.113528e+06
1.110000e+03 7.095066e+06
1.111000e+03 3.700784e+06
1.112000e+03 1.960308e+07
1.113000e+03 2.330421e+07
1.114000e+03 1.519258e+06
1.115000e+03 1.433657e+07
1.116000e+03 1.275007e+07
1.117000e+03 1.517310e+06
1.118000e+03 1.188702e+07
1.119000e+03 2.379733e+07
1.120000e+03 1.382062e+07
1.121000e+03 2.387582e+07
1.122000e+03 7.035200e+05
1.123000e+03 4.378909e+06
1.124000e+03 2.726206e+07
1.125000e+03 1.759877e+07
1.126000e+03 2.902386e+07
1.127000e+03 2.828296e+07
1.128000e+03 1.163347e+07
1.129000e+03 2.742443e+07
1.130000e+03 2.874503e+07
1.131000e+03 3.129072e+07
1.132000e+03 2.105126e+06
1.133000e+03 1.773535e+07
1.134000e+03 2.929566e+07
1.135000e+03 1.533250e+06
1.136000e+03 2.566873e+07
1.137000e+03 3.424124e+07
1.138000e+03 3.134154e+07
1.139000e+03 3.491718e+07
1.140000e+03 1.290262e+06
1.141000e+03 3.650011e+07
1.142000e+03 3.745027e+07
1.143000e+03 3.704340e+07
1.144000e+03 3.896233e+07
1.145000e+03 1.333666e+07
1.146000e+03 4.039460e+07
1.147000e+03 4.016497e+07
1.148000e+03 2.417884e+07
1.149000e+03 4.161758e+07
1.150000e+03 3.972970e+07
1.151000e+03 4.351723e+07
1.152000e+03 4.404515e+07
1.153000e+03 1.973270e+07
1.154000e+03 1.976072e+07
1.155000e+03 4.445098e+07
1.156000e+03 2.088475e+07
1.157000e+03 4.799268e+07
1.158000e+03 2.335954e+06
1.159000e+03 4.394827e+07
1.160000e+03 4.503492e+07
1.161000e+03 5.109848e+07
1.162000e+03 1.541151e+07
1.163000e+03 4.381894e+07
1.164000e+03 2.490540e+06
1.165000e+03 5.447862e+07
1.166000e+03 5.422628e+07
1.167000e+03 5.425893e+07
1.168000e+03 5.810538e+07
1.169000e+03 5.795165e+07
1.170000e+03 5.883075e+07
1.171000e+03 6.040419e+07
1.172000e+03 5.525944e+07
1.173000e+03 6.360924e+07
1.174000e+03 3.452327e+07
1.175000e+03 3.011624e+06
1.176000e+03 2.771556e+06
1.177000e+03 6.846551e+07
1.178000e+03 6.832450e+07
1.179000e+03 7.052544e+07
1.180000e+03 5.425322e+07
1.181000e+03 7.304476e+07
1.182000e+03 7.416311e+07
1.183000e+03 7.369806e+07
1.184000e+03 7.392713e+07
1.185000e+03 7.675082e+07
1.186000e+03 6.216803e+07
1.187000e+03 7.925057e+07
1.188000e+03 7.319010e+07
1.189000e+03 3.847368e+06
1.190000e+03 2.250416e+07
1.191000e+03 8.149828e+07
1.192000e+03 8.399237e+07
1.193000e+03 3.720368e+06
1.194000e+03 4.398696e+06
1.195000e+03 6.926171e+07
1.196000e+03 8.636595e+07
1.197000e+03 1.333192e+08
1.198000e+03 1.072464e+08
1.199000e+03 1.310093e+08
1.200000e+03 1.023706e+08
1.201000e+03 1.236138e+08
1.202000e+03 1.136872e+08
1.203000e+03 1.548149e+08
1.204000e+03 1.078766e+08
1.205000e+03 1.294209e+08
1.206000e+03 1.223081e+08
1.207000e+03 1.972778e+07
1.208000e+03 9.084236e+07
1.209000e+03 7.007578e+07
1.210000e+03 6.016112e+06
1.211000e+03 4.157104e+07
1.212000e+03 2.818074e+07
1.213000e+03 1.810374e+07
1.214000e+03 1.095838e+07
1.215000e+03 6.995630e+06
1.216000e+03 6.380574e+06
1.217000e+03 9.784901e+06
1.218000e+03 1.679015e+07
1.219000e+03 2.802093e+07
1.220000e+03 4.228231e+07
1.221000e+03 6.282283e+07
1.222000e+03 8.484556e+07
1.223000e+03 1.101390e+08
1.224000e+03 1.383596e+08
1.225000e+03 1.260512e+08
1.226000e+03 1.970149e+08
1.227000e+03 2.235965e+08
1.228000e+03 2.162099e+08
1.229000e+03 2.741892e+08
1.230000e+03 2.868118e+08
1.231000e+03 2.612769e+08
1.232000e+03 3.715540e+08
1.233000e+03 3.996492e+08
1.234000e+03 2.466920e+08
1.235000e+03 4.446628e+08
1.236000e+03 3.447954e+08
1.237000e+03 4.933534e+08
1.238000e+03 4.977353e+08
1.239000e+03 5.113060e+08
1.240000e+03 4.730733e+08
1.241000e+03 6.780173e+08
1.242000e+03 4.792208e+08
1.243000e+03 7.132505e+08
1.244000e+03 3.350689e+08
1.245000e+03 4.758479e+08
1.246000e+03 9.920912e+08
1.247000e+03 1.011369e+09
1.248000e+03 3.468666e+08
1.249000e+03 4.661438e+08
1.250000e+03 1.114661e+09
1.251000e+03 1.258355e+09
1.252000e+03 1.210369e+09
1.253000e+03 1.315035e+09
1.254000e+03 1.257967e+09
1.255000e+03 1.370223e+09
1.256000e+03 1.297340e+09
1.257000e+03 1.398120e+09
1.258000e+03 1.153053e+09
1.259000e+03 1.355454e+09
1.260000e+03 1.322255e+09
1.261000e+03 1.563924e+07
1.262000e+03 2.202913e+08
1.263000e+03 1.547583e+09
1.264000e+03 1.279533e+09
1.265000e+03 1.648739e+07
1.266000e+03 1.614394e+09
1.267000e+03 1.466767e+09
