# wavelength_A flux
5.000000e+02 1.215491e-09
5.010000e+02 1.387261e-09
5.020000e+02 1.582439e-09
5.030000e+02 1.804099e-09
5.040000e+02 2.055698e-09
5.050000e+02 2.399073e-09
5.060000e+02 2.730361e-09
5.070000e+02 3.105754e-09
5.080000e+02 3.530906e-09
5.090000e+02 4.012287e-09
5.100000e+02 4.556780e-09
5.110000e+02 5.172515e-09
5.120000e+02 5.868428e-09
5.130000e+02 6.654576e-09
5.140000e+02 7.542214e-09
5.150000e+02 8.543855e-09
5.160000e+02 9.673872e-09
5.170000e+02 1.094737e-08
5.180000e+02 1.238331e-08
5.190000e+02 1.400018e-08
5.200000e+02 1.582042e-08
5.210000e+02 1.786858e-08
5.220000e+02 2.017002e-08
5.230000e+02 2.276173e-08
5.240000e+02 2.567152e-08
5.250000e+02 2.893980e-08
5.260000e+02 3.260848e-08
5.270000e+02 3.672498e-08
5.280000e+02 4.134183e-08
5.290000e+02 4.650681e-08
5.300000e+02 5.231686e-08
5.310000e+02 5.881229e-08
5.320000e+02 6.608418e-08
5.330000e+02 7.422125e-08
5.340000e+02 8.332260e-08
5.350000e+02 9.349794e-08
5.360000e+02 1.048684e-07
5.370000e+02 1.160690e-07
5.380000e+02 1.317510e-07
5.390000e+02 1.475799e-07
5.400000e+02 1.652402e-07
5.410000e+02 1.849184e-07
5.420000e+02 2.068767e-07
5.430000e+02 2.313312e-07
5.440000e+02 2.585642e-07
5.450000e+02 2.888804e-07
5.460000e+02 3.225628e-07
5.470000e+02 3.601380e-07
5.480000e+02 4.018563e-07
5.490000e+02 4.482235e-07
5.500000e+02 4.997324e-07
5.510000e+02 5.569334e-07
5.520000e+02 6.204280e-07
5.530000e+02 6.908803e-07
5.540000e+02 7.690228e-07
5.550000e+02 8.556601e-07
5.560000e+02 9.516778e-07
5.570000e+02 1.058050e-06
5.580000e+02 1.175847e-06
5.590000e+02 1.306245e-06
5.600000e+02 1.450537e-06
5.610000e+02 1.610143e-06
5.620000e+02 1.786620e-06
5.630000e+02 1.981677e-06
5.640000e+02 2.197188e-06
5.650000e+02 2.435207e-06
5.660000e+02 2.697998e-06
5.670000e+02 2.988018e-06
5.680000e+02 3.307978e-06
5.690000e+02 3.660836e-06
5.700000e+02 4.049826e-06
5.710000e+02 4.478512e-06
5.720000e+02 4.950755e-06
5.730000e+02 5.470802e-06
5.740000e+02 6.043285e-06
5.750000e+02 6.673375e-06
5.760000e+02 7.365394e-06
5.770000e+02 8.128487e-06
5.780000e+02 8.966238e-06
5.790000e+02 9.886837e-06
5.800000e+02 1.089812e-05
5.810000e+02 1.200864e-05
5.820000e+02 1.322771e-05
5.830000e+02 1.456534e-05
5.840000e+02 1.602824e-05
5.850000e+02 1.764135e-05
5.860000e+02 1.940691e-05
5.870000e+02 2.134069e-05
5.880000e+02 2.345916e-05
5.890000e+02 2.577879e-05
5.900000e+02 2.831932e-05
5.910000e+02 3.109929e-05
5.920000e+02 3.414101e-05
5.930000e+02 3.746787e-05
5.940000e+02 4.110549e-05
5.950000e+02 4.508004e-05
5.960000e+02 4.942635e-05
5.970000e+02 5.417240e-05
5.980000e+02 5.935518e-05
5.990000e+02 6.501309e-05
6.000000e+02 7.118779e-05
6.010000e+02 7.791249e-05
6.020000e+02 8.527167e-05
6.030000e+02 9.328250e-05
6.040000e+02 1.020146e-04
6.050000e+02 1.115294e-04
6.060000e+02 1.218939e-04
6.070000e+02 1.331814e-04
6.080000e+02 1.454696e-04
6.090000e+02 1.588435e-04
6.100000e+02 1.733943e-04
6.110000e+02 1.892220e-04
6.120000e+02 2.064326e-04
6.130000e+02 2.251418e-04
6.140000e+02 2.454740e-04
6.150000e+02 2.675636e-04
6.160000e+02 2.915560e-04
6.170000e+02 3.176073e-04
6.180000e+02 3.458862e-04
6.190000e+02 3.765745e-04
6.200000e+02 4.098681e-04
6.210000e+02 4.459776e-04
6.220000e+02 4.851310e-04
6.230000e+02 5.275726e-04
6.240000e+02 5.735661e-04
6.250000e+02 6.233947e-04
6.260000e+02 6.773632e-04
6.270000e+02 7.358003e-04
6.280000e+02 7.990586e-04
6.290000e+02 8.675173e-04
6.300000e+02 9.415839e-04
6.310000e+02 1.021674e-03
6.320000e+02 1.108326e-03
6.330000e+02 1.201975e-03
6.340000e+02 1.303192e-03
6.350000e+02 1.412552e-03
6.360000e+02 1.528697e-03
6.370000e+02 1.658260e-03
6.380000e+02 1.795994e-03
6.390000e+02 1.944660e-03
6.400000e+02 2.105085e-03
6.410000e+02 2.278152e-03
6.420000e+02 2.464814e-03
6.430000e+02 2.666086e-03
6.440000e+02 2.883054e-03
6.450000e+02 3.116888e-03
6.460000e+02 3.368838e-03
6.470000e+02 3.640234e-03
6.480000e+02 3.932512e-03
6.490000e+02 4.247196e-03
6.500000e+02 4.585922e-03
6.510000e+02 4.950439e-03
6.520000e+02 5.342613e-03
6.530000e+02 5.764447e-03
6.540000e+02 6.218073e-03
6.550000e+02 6.705769e-03
6.560000e+02 7.229971e-03
6.570000e+02 7.793111e-03
6.580000e+02 8.398463e-03
6.590000e+02 9.048491e-03
6.600000e+02 9.746483e-03
6.610000e+02 1.049592e-02
6.620000e+02 1.130028e-02
6.630000e+02 1.216344e-02
6.640000e+02 1.308950e-02
6.650000e+02 1.408276e-02
6.660000e+02 1.514797e-02
6.670000e+02 1.628998e-02
6.680000e+02 1.751408e-02
6.690000e+02 1.882588e-02
6.700000e+02 2.023137e-02
6.710000e+02 2.173688e-02
6.720000e+02 2.334910e-02
6.730000e+02 2.507549e-02
6.740000e+02 2.692343e-02
6.750000e+02 2.890116e-02
6.760000e+02 3.101734e-02
6.770000e+02 3.328117e-02
6.780000e+02 3.570238e-02
6.790000e+02 3.829146e-02
6.800000e+02 4.105939e-02
6.810000e+02 4.401795e-02
6.820000e+02 4.717957e-02
6.830000e+02 5.055749e-02
6.840000e+02 5.416574e-02
6.850000e+02 5.801896e-02
6.860000e+02 6.213377e-02
6.870000e+02 6.652571e-02
6.880000e+02 7.121417e-02
6.890000e+02 7.621671e-02
6.900000e+02 8.155374e-02
6.910000e+02 8.724660e-02
6.920000e+02 9.331767e-02
6.930000e+02 9.979080e-02
6.940000e+02 1.066913e-01
6.950000e+02 1.140457e-01
6.960000e+02 1.218826e-01
6.970000e+02 1.302301e-01
6.980000e+02 1.391254e-01
6.990000e+02 1.485966e-01
7.000000e+02 1.586812e-01
7.010000e+02 1.694168e-01
7.020000e+02 1.808432e-01
7.030000e+02 1.930024e-01
7.040000e+02 2.059392e-01
7.050000e+02 2.197005e-01
7.060000e+02 2.343359e-01
7.070000e+02 2.498986e-01
7.080000e+02 2.664437e-01
7.090000e+02 2.840286e-01
7.100000e+02 3.027198e-01
7.110000e+02 3.225785e-01
7.120000e+02 3.436754e-01
7.130000e+02 3.660834e-01
7.140000e+02 3.898797e-01
7.150000e+02 4.151452e-01
7.160000e+02 4.419670e-01
7.170000e+02 4.704332e-01
7.180000e+02 5.006381e-01
7.190000e+02 5.326976e-01
7.200000e+02 5.666996e-01
7.210000e+02 6.027626e-01
7.220000e+02 6.410052e-01
7.230000e+02 6.815518e-01
7.240000e+02 7.245336e-01
7.250000e+02 7.700889e-01
7.260000e+02 8.183624e-01
7.270000e+02 8.695111e-01
7.280000e+02 9.236930e-01
7.290000e+02 9.810794e-01
7.300000e+02 1.041849e+00
7.310000e+02 1.106192e+00
7.320000e+02 1.174304e+00
7.330000e+02 1.246396e+00
7.340000e+02 1.322688e+00
7.350000e+02 1.403410e+00
7.360000e+02 1.488804e+00
7.370000e+02 1.579130e+00
7.380000e+02 1.674652e+00
7.390000e+02 1.775654e+00
7.400000e+02 1.882424e+00
7.410000e+02 1.995300e+00
7.420000e+02 2.114575e+00
7.430000e+02 2.240631e+00
7.440000e+02 2.373800e+00
7.450000e+02 2.514472e+00
7.460000e+02 2.663045e+00
7.470000e+02 2.819940e+00
7.480000e+02 2.985595e+00
7.490000e+02 3.160472e+00
7.500000e+02 3.345055e+00
7.510000e+02 3.539854e+00
7.520000e+02 3.745400e+00
7.530000e+02 3.962253e+00
7.540000e+02 4.191000e+00
7.550000e+02 4.432256e+00
7.560000e+02 4.686663e+00
7.570000e+02 4.954752e+00
7.580000e+02 5.237672e+00
7.590000e+02 5.535708e+00
7.600000e+02 5.849851e+00
7.610000e+02 6.180856e+00
7.620000e+02 6.529591e+00
7.630000e+02 6.896945e+00
7.640000e+02 7.283862e+00
7.650000e+02 7.691319e+00
7.660000e+02 8.120358e+00
7.670000e+02 8.572039e+00
7.680000e+02 9.047442e+00
7.690000e+02 9.547904e+00
7.700000e+02 1.007450e+01
7.710000e+02 1.062857e+01
7.720000e+02 1.121146e+01
7.730000e+02 1.182460e+01
7.740000e+02 1.246944e+01
7.750000e+02 1.314754e+01
7.760000e+02 1.385868e+01
7.770000e+02 1.461005e+01
7.780000e+02 1.539790e+01
7.790000e+02 1.622593e+01
7.800000e+02 1.709604e+01
7.810000e+02 1.801027e+01
7.820000e+02 1.897071e+01
7.830000e+02 1.997954e+01
7.840000e+02 2.103910e+01
7.850000e+02 2.215175e+01
7.860000e+02 2.331996e+01
7.870000e+02 2.454652e+01
7.880000e+02 2.583391e+01
7.890000e+02 2.718509e+01
7.900000e+02 2.860303e+01
7.910000e+02 3.009082e+01
7.920000e+02 3.165170e+01
7.930000e+02 3.328904e+01
7.940000e+02 3.500637e+01
7.950000e+02 3.680730e+01
7.960000e+02 3.869575e+01
7.970000e+02 4.067567e+01
7.980000e+02 4.275122e+01
7.990000e+02 4.492674e+01
8.000000e+02 4.720671e+01
8.010000e+02 4.959578e+01
8.020000e+02 5.209924e+01
8.030000e+02 5.472179e+01
8.040000e+02 5.746890e+01
8.050000e+02 6.034612e+01
8.060000e+02 6.335923e+01
8.070000e+02 6.651425e+01
8.080000e+02 6.981747e+01
8.090000e+02 7.327540e+01
8.100000e+02 7.689484e+01
8.110000e+02 8.068288e+01
8.120000e+02 8.464686e+01
8.130000e+02 8.879448e+01
8.140000e+02 9.313369e+01
8.150000e+02 9.767265e+01
8.160000e+02 1.024204e+02
8.170000e+02 1.073855e+02
8.180000e+02 1.125775e+02
8.190000e+02 1.180061e+02
8.200000e+02 1.236813e+02
8.210000e+02 1.296135e+02
8.220000e+02 1.358140e+02
8.230000e+02 1.422938e+02
8.240000e+02 1.490650e+02
8.250000e+02 1.561394e+02
8.260000e+02 1.635302e+02
8.270000e+02 1.712505e+02
8.280000e+02 1.793140e+02
8.290000e+02 1.877350e+02
8.300000e+02 1.965284e+02
8.310000e+02 2.057092e+02
8.320000e+02 2.152941e+02
8.330000e+02 2.252993e+02
8.340000e+02 2.357422e+02
8.350000e+02 2.466183e+02
8.360000e+02 2.580119e+02
8.370000e+02 2.698791e+02
8.380000e+02 2.822543e+02
8.390000e+02 2.951722e+02
8.400000e+02 3.086414e+02
8.410000e+02 3.226890e+02
8.420000e+02 3.373316e+02
8.430000e+02 3.526125e+02
8.440000e+02 3.685374e+02
8.450000e+02 3.851385e+02
8.460000e+02 4.024429e+02
8.470000e+02 4.204782e+02
8.480000e+02 4.392734e+02
8.490000e+02 4.588583e+02
8.500000e+02 4.792635e+02
8.510000e+02 5.005220e+02
8.520000e+02 5.226656e+02
8.530000e+02 5.457319e+02
8.540000e+02 5.697567e+02
8.550000e+02 5.947722e+02
8.560000e+02 6.208194e+02
8.570000e+02 6.479383e+02
8.580000e+02 6.761697e+02
8.590000e+02 7.055564e+02
8.600000e+02 7.361428e+02
8.610000e+02 7.679745e+02
8.620000e+02 8.010985e+02
8.630000e+02 8.355627e+02
8.640000e+02 8.714207e+02
8.650000e+02 9.087199e+02
8.660000e+02 9.475239e+02
8.670000e+02 9.878800e+02
8.680000e+02 1.029849e+03
8.690000e+02 1.073492e+03
8.700000e+02 1.118870e+03
8.710000e+02 1.166047e+03
8.720000e+02 1.215092e+03
8.730000e+02 1.266071e+03
8.740000e+02 1.319057e+03
8.750000e+02 1.374122e+03
8.760000e+02 1.431344e+03
8.770000e+02 1.490795e+03
8.780000e+02 1.552572e+03
8.790000e+02 1.616744e+03
8.800000e+02 1.683403e+03
8.810000e+02 1.752639e+03
8.820000e+02 1.824544e+03
8.830000e+02 1.899214e+03
8.840000e+02 1.976745e+03
8.850000e+02 2.057246e+03
8.860000e+02 2.140818e+03
8.870000e+02 2.227571e+03
8.880000e+02 2.317619e+03
8.890000e+02 2.411076e+03
8.900000e+02 2.508064e+03
8.910000e+02 2.608707e+03
8.920000e+02 2.709447e+03
8.930000e+02 2.821471e+03
8.940000e+02 2.933862e+03
8.950000e+02 3.050438e+03
8.960000e+02 3.171361e+03
8.970000e+02 3.296768e+03
8.980000e+02 3.426818e+03
8.990000e+02 3.561670e+03
9.000000e+02 3.701489e+03
9.010000e+02 3.846444e+03
9.020000e+02 3.996712e+03
9.030000e+02 4.152471e+03
9.040000e+02 4.313863e+03
9.050000e+02 4.481213e+03
9.060000e+02 4.654608e+03
9.070000e+02 4.834167e+03
9.080000e+02 5.020409e+03
9.090000e+02 5.213255e+03
9.100000e+02 5.413029e+03
9.110000e+02 5.619986e+03
9.120000e+02 5.834467e+03
9.130000e+02 5.960351e+03
9.140000e+02 6.403379e+03
9.150000e+02 2.743022e+04
9.160000e+02 6.716700e+04
9.170000e+02 6.964668e+04
9.180000e+02 7.019593e+04
9.190000e+02 7.538991e+04
9.200000e+02 7.801850e+04
9.210000e+02 7.877164e+03
9.220000e+02 8.296677e+04
9.230000e+02 8.285481e+04
9.240000e+02 8.259127e+04
9.250000e+02 8.991105e+04
9.260000e+02 9.255096e+04
9.270000e+02 9.660163e+04
9.280000e+02 9.975953e+04
9.290000e+02 1.023412e+05
9.300000e+02 1.048416e+05
9.310000e+02 1.075739e+05
9.320000e+02 1.126004e+05
9.330000e+02 1.157951e+05
9.340000e+02 1.195168e+05
9.350000e+02 3.550185e+04
9.360000e+02 1.217826e+05
9.370000e+02 2.751925e+04
9.380000e+02 6.330402e+04
9.390000e+02 1.383755e+05
9.400000e+02 1.429479e+05
9.410000e+02 6.274880e+04
9.420000e+02 1.516981e+05
9.430000e+02 1.560256e+05
9.440000e+02 1.175906e+05
9.450000e+02 1.656100e+05
9.460000e+02 1.704992e+05
9.470000e+02 1.261257e+05
9.480000e+02 1.432042e+05
9.490000e+02 1.845428e+05
9.500000e+02 4.018364e+04
9.510000e+02 1.924584e+05
9.520000e+02 2.030185e+05
9.530000e+02 2.060982e+05
9.540000e+02 1.825175e+05
9.550000e+02 2.214616e+05
9.560000e+02 1.644689e+05
9.570000e+02 1.676046e+05
9.580000e+02 2.366325e+05
9.590000e+02 2.493701e+05
9.600000e+02 5.910273e+04
9.610000e+02 2.631890e+05
9.620000e+02 2.714559e+05
9.630000e+02 2.794202e+05
9.640000e+02 3.856328e+04
9.650000e+02 2.731330e+05
9.660000e+02 3.040138e+05
9.670000e+02 3.100607e+05
9.680000e+02 3.185727e+05
9.690000e+02 3.288510e+05
9.700000e+02 3.391314e+05
9.710000e+02 3.455666e+05
9.720000e+02 3.319198e+05
9.730000e+02 3.338970e+05
9.740000e+02 3.748516e+05
9.750000e+02 3.894907e+05
9.760000e+02 4.014172e+05
9.770000e+02 4.130450e+05
9.780000e+02 4.236382e+05
9.790000e+02 4.367438e+05
9.800000e+02 4.487631e+05
9.810000e+02 4.612098e+05
9.820000e+02 4.722115e+05
9.830000e+02 4.869828e+05
9.840000e+02 2.352685e+05
9.850000e+02 5.139144e+05
9.860000e+02 5.278001e+05
9.870000e+02 5.426793e+05
9.880000e+02 5.520062e+05
9.890000e+02 4.829989e+05
9.900000e+02 1.050953e+05
9.910000e+02 5.978019e+05
9.920000e+02 5.375059e+05
9.930000e+02 6.032611e+05
9.940000e+02 1.275541e+05
9.950000e+02 2.263368e+05
9.960000e+02 4.076668e+05
9.970000e+02 1.747156e+05
9.980000e+02 7.258183e+05
9.990000e+02 7.319809e+05
1.000000e+03 7.666377e+05
1.001000e+03 7.871114e+05
1.002000e+03 8.076808e+05
1.003000e+03 7.926797e+05
1.004000e+03 8.459615e+05
1.005000e+03 8.173195e+05
1.006000e+03 8.961999e+05
1.007000e+03 9.164724e+05
1.008000e+03 9.419248e+05
1.009000e+03 9.539403e+05
1.010000e+03 9.930532e+05
1.011000e+03 1.018731e+06
1.012000e+03 1.044868e+06
1.013000e+03 1.071693e+06
1.014000e+03 1.062178e+06
1.015000e+03 1.107052e+06
1.016000e+03 1.152117e+06
1.017000e+03 1.150952e+06
1.018000e+03 1.211801e+06
1.019000e+03 1.232410e+06
1.020000e+03 1.273098e+06
1.021000e+03 7.563614e+05
1.022000e+03 1.225812e+06
1.023000e+03 1.331217e+06
1.024000e+03 1.237409e+06
1.025000e+03 1.030447e+06
1.026000e+03 5.395547e+05
1.027000e+03 1.310737e+06
1.028000e+03 4.652775e+05
1.029000e+03 1.533206e+06
1.030000e+03 1.605782e+06
1.031000e+03 1.670590e+06
1.032000e+03 1.708594e+06
1.033000e+03 8.817048e+05
1.034000e+03 1.808318e+06
1.035000e+03 4.744005e+05
1.036000e+03 1.733218e+06
1.037000e+03 4.009551e+05
1.038000e+03 1.998290e+06
1.039000e+03 2.032366e+06
1.040000e+03 2.098230e+06
1.041000e+03 2.126664e+06
1.042000e+03 2.191013e+06
1.043000e+03 2.187117e+06
1.044000e+03 2.309068e+06
1.045000e+03 2.364725e+06
1.046000e+03 2.426618e+06
1.047000e+03 2.482899e+06
1.048000e+03 2.524613e+06
1.049000e+03 2.515716e+06
1.050000e+03 2.667976e+06
1.051000e+03 2.730933e+06
1.052000e+03 2.799657e+06
1.053000e+03 2.850233e+06
1.054000e+03 2.833845e+06
1.055000e+03 2.938349e+06
1.056000e+03 3.076873e+06
1.057000e+03 3.148056e+06
1.058000e+03 3.221053e+06
1.059000e+03 3.287962e+06
1.060000e+03 3.358639e+06
1.061000e+03 3.456907e+06
1.062000e+03 3.535016e+06
1.063000e+03 1.374150e+06
1.064000e+03 9.364968e+05
1.065000e+03 3.719087e+06
1.066000e+03 2.940150e+06
1.067000e+03 3.914163e+06
1.068000e+03 4.078848e+06
1.069000e+03 4.052110e+06
1.070000e+03 4.245496e+06
1.071000e+03 4.369910e+06
1.072000e+03 4.470224e+06
1.073000e+03 4.498032e+06
1.074000e+03 4.674714e+06
1.075000e+03 4.779702e+06
1.076000e+03 4.893948e+06
1.077000e+03 4.986539e+06
1.078000e+03 5.113834e+06
1.079000e+03 5.223570e+06
1.080000e+03 5.351466e+06
1.081000e+03 5.473938e+06
1.082000e+03 5.595160e+06
1.083000e+03 5.718002e+06
1.084000e+03 5.844410e+06
1.085000e+03 4.418472e+06
1.086000e+03 6.117234e+06
1.087000e+03 6.229150e+06
1.088000e+03 6.375492e+06
1.089000e+03 6.533020e+06
1.090000e+03 6.665910e+06
1.091000e+03 6.802746e+06
1.092000e+03 6.974518e+06
1.093000e+03 7.123552e+06
1.094000e+03 7.283648e+06
1.095000e+03 7.441237e+06
1.096000e+03 7.603850e+06
1.097000e+03 7.629682e+06
1.098000e+03 7.832240e+06
1.099000e+03 8.106735e+06
1.100000e+03 7.971026e+06
1.101000e+03 7.769670e+06
1.102000e+03 1.645264e+07
1.103000e+03 4.936219e+07
1.104000e+03 2.125242e+07
1.105000e+03 8.499272e+06
1.106000e+03 1.138439e+08
1.107000e+03 7.742597e+07
1.108000e+03 1.166448e+08
1.109000e+03 7.165104e+07
1.110000e+03 3.270015e+07
1.111000e+03 1.902689e+07
1.112000e+03 1.063163e+08
1.113000e+03 1.304089e+08
1.114000e+03 7.154192e+06
1.115000e+03 1.227880e+08
1.116000e+03 1.243500e+08
1.117000e+03 8.148096e+06
1.118000e+03 8.979859e+07
1.119000e+03 1.417576e+08
1.120000e+03 1.342767e+08
1.121000e+03 1.346971e+08
1.122000e+03 3.402768e+06
1.123000e+03 1.499247e+07
1.124000e+03 1.539324e+08
1.125000e+03 8.435382e+07
1.126000e+03 1.598778e+08
1.127000e+03 1.567981e+08
1.128000e+03 7.848187e+07
1.129000e+03 1.623234e+08
1.130000e+03 1.402941e+08
1.131000e+03 1.735204e+08
1.132000e+03 9.031728e+06
1.133000e+03 1.399194e+08
1.134000e+03 1.705677e+08
1.135000e+03 5.428096e+06
1.136000e+03 1.806567e+08
1.137000e+03 1.905953e+08
1.138000e+03 1.917367e+08
1.139000e+03 1.922318e+08
1.140000e+03 6.189840e+06
1.141000e+03 2.033342e+08
1.142000e+03 2.040362e+08
1.143000e+03 2.092418e+08
1.144000e+03 2.135427e+08
1.145000e+03 1.577060e+08
1.146000e+03 2.202276e+08
1.147000e+03 2.206189e+08
1.148000e+03 2.106505e+08
1.149000e+03 2.304073e+08
1.150000e+03 2.301197e+08
1.151000e+03 2.367375e+08
1.152000e+03 2.411937e+08
1.153000e+03 8.083195e+07
1.154000e+03 1.987766e+07
1.155000e+03 1.867400e+08
1.156000e+03 5.605488e+07
1.157000e+03 2.603320e+08
1.158000e+03 9.326859e+06
1.159000e+03 2.172147e+08
1.160000e+03 2.644483e+08
1.161000e+03 2.783571e+08
1.162000e+03 7.763962e+07
1.163000e+03 2.797781e+08
1.164000e+03 1.364410e+07
1.165000e+03 2.961119e+08
1.166000e+03 2.993780e+08
1.167000e+03 3.011569e+08
1.168000e+03 3.122371e+08
1.169000e+03 3.089287e+08
1.170000e+03 3.226198e+08
1.171000e+03 3.282448e+08
1.172000e+03 3.276567e+08
1.173000e+03 3.394638e+08
1.174000e+03 3.144592e+08
1.175000e+03 1.620912e+07
1.176000e+03 1.387405e+07
1.177000e+03 3.619701e+08
1.178000e+03 3.538707e+08
1.179000e+03 3.738428e+08
1.180000e+03 3.030674e+08
1.181000e+03 3.837236e+08
1.182000e+03 3.918746e+08
1.183000e+03 3.967217e+08
1.184000e+03 4.018994e+08
1.185000e+03 4.028422e+08
1.186000e+03 4.049829e+08
1.187000e+03 4.181880e+08
1.188000e+03 4.169656e+08
1.189000e+03 1.718877e+07
1.190000e+03 5.679482e+07
1.191000e+03 4.278767e+08
1.192000e+03 4.320491e+08
1.193000e+03 1.621296e+07
1.194000e+03 1.976554e+07
1.195000e+03 3.431036e+08
1.196000e+03 4.418369e+08
1.197000e+03 5.992102e+08
1.198000e+03 5.930198e+08
1.199000e+03 5.881854e+08
1.200000e+03 5.259703e+08
1.201000e+03 5.535085e+08
1.202000e+03 5.439754e+08
1.203000e+03 6.379144e+08
1.204000e+03 5.707521e+08
1.205000e+03 5.407800e+08
1.206000e+03 4.915962e+08
1.207000e+03 1.033834e+08
1.208000e+03 3.765776e+08
1.209000e+03 2.905595e+08
1.210000e+03 2.922174e+07
1.211000e+03 1.749588e+08
1.212000e+03 1.142024e+08
1.213000e+03 7.426726e+07
1.214000e+03 4.486209e+07
1.215000e+03 2.933777e+07
1.216000e+03 2.688174e+07
1.217000e+03 4.015920e+07
1.218000e+03 6.827676e+07
1.219000e+03 1.152039e+08
1.220000e+03 1.804226e+08
1.221000e+03 2.615998e+08
1.222000e+03 3.535850e+08
1.223000e+03 4.535268e+08
1.224000e+03 5.594054e+08
1.225000e+03 6.543736e+08
1.226000e+03 7.757533e+08
1.227000e+03 8.784017e+08
1.228000e+03 9.873015e+08
1.229000e+03 1.103706e+09
1.230000e+03 1.198992e+09
1.231000e+03 1.292716e+09
1.232000e+03 1.426889e+09
1.233000e+03 1.528383e+09
1.234000e+03 9.859761e+08
1.235000e+03 1.719141e+09
1.236000e+03 1.754273e+09
1.237000e+03 1.902527e+09
1.238000e+03 1.983546e+09
1.239000e+03 2.066786e+09
1.240000e+03 1.951126e+09
1.241000e+03 3.485554e+09
1.242000e+03 1.921935e+09
1.243000e+03 2.856011e+09
1.244000e+03 1.207425e+09
1.245000e+03 1.787681e+09
1.246000e+03 5.582389e+09
1.247000e+03 5.657593e+09
1.248000e+03 1.302682e+09
1.249000e+03 1.620249e+09
1.250000e+03 6.817987e+09
1.251000e+03 7.188858e+09
1.252000e+03 7.270941e+09
1.253000e+03 7.824081e+09
1.254000e+03 7.850163e+09
1.255000e+03 8.303057e+09
1.256000e+03 8.307872e+09
1.257000e+03 8.864036e+09
1.258000e+03 8.298465e+09
1.259000e+03 8.666457e+09
1.260000e+03 6.996954e+09
1.261000e+03 6.388584e+07
1.262000e+03 8.097920e+08
1.263000e+03 9.861353e+09
1.264000e+03 8.388314e+09
1.265000e+03 6.519091e+07
1.266000e+03 1.047806e+10
1.267000e+03 1.066209e+10
