# wavelength_A flux
5.000000e+02 9.809089e-45
5.010000e+02 1.401298e-44
5.020000e+02 1.821688e-44
5.030000e+02 2.522337e-44
5.040000e+02 3.363116e-44
5.050000e+02 4.484155e-44
5.060000e+02 5.885454e-44
5.070000e+02 7.847271e-44
5.080000e+02 1.050974e-43
5.090000e+02 1.387285e-43
5.100000e+02 1.849714e-43
5.110000e+02 2.438259e-43
5.120000e+02 3.236999e-43
5.130000e+02 4.287973e-43
5.140000e+02 5.661246e-43
5.150000e+02 7.468921e-43
5.160000e+02 9.851128e-43
5.170000e+02 1.297602e-42
5.180000e+02 1.706782e-42
5.190000e+02 2.243479e-42
5.200000e+02 2.945529e-42
5.210000e+02 3.863380e-42
5.220000e+02 5.061490e-42
5.230000e+02 6.623938e-42
5.240000e+02 8.660025e-42
5.250000e+02 1.130988e-41
5.260000e+02 1.475567e-41
5.270000e+02 1.923142e-41
5.280000e+02 2.503980e-41
5.290000e+02 3.256758e-41
5.300000e+02 4.231781e-41
5.310000e+02 5.492950e-41
5.320000e+02 7.123080e-41
5.330000e+02 9.227691e-41
5.340000e+02 1.194243e-40
5.350000e+02 1.544049e-40
5.360000e+02 1.994384e-40
5.370000e+02 2.573471e-40
5.380000e+02 3.317742e-40
5.390000e+02 4.273007e-40
5.400000e+02 5.498051e-40
5.410000e+02 7.067617e-40
5.420000e+02 9.076673e-40
5.430000e+02 1.164591e-39
5.440000e+02 1.492844e-39
5.450000e+02 1.911845e-39
5.460000e+02 2.446188e-39
5.470000e+02 3.127005e-39
5.480000e+02 3.993659e-39
5.490000e+02 5.095878e-39
5.500000e+02 6.496434e-39
5.510000e+02 8.274487e-39
5.520000e+02 1.052978e-38
5.530000e+02 1.338789e-38
5.540000e+02 1.700674e-38
5.550000e+02 2.158483e-38
5.560000e+02 2.737138e-38
5.570000e+02 3.467907e-38
5.580000e+02 4.389984e-38
5.590000e+02 5.552455e-38
5.600000e+02 7.016749e-38
5.610000e+02 8.859669e-38
5.620000e+02 1.117717e-37
5.630000e+02 1.408902e-37
5.640000e+02 1.774460e-37
5.650000e+02 2.233008e-37
5.660000e+02 2.807727e-37
5.670000e+02 3.527459e-37
5.680000e+02 4.428057e-37
5.690000e+02 5.554061e-37
5.700000e+02 6.960753e-37
5.710000e+02 8.716691e-37
5.720000e+02 1.090684e-36
5.730000e+02 1.363640e-36
5.740000e+02 1.703554e-36
5.750000e+02 2.126520e-36
5.760000e+02 2.652417e-36
5.770000e+02 3.305790e-36
5.780000e+02 4.116908e-36
5.790000e+02 5.123083e-36
5.800000e+02 6.370268e-36
5.810000e+02 7.915017e-36
5.820000e+02 9.826878e-36
5.830000e+02 1.219131e-35
5.840000e+02 1.511327e-35
5.850000e+02 1.872152e-35
5.860000e+02 2.317394e-35
5.870000e+02 2.866400e-35
5.880000e+02 3.542854e-35
5.890000e+02 4.375736e-35
5.900000e+02 5.400474e-35
5.910000e+02 6.660351e-35
5.920000e+02 8.208211e-35
5.930000e+02 1.010852e-34
5.940000e+02 1.243988e-34
5.950000e+02 1.529803e-34
5.960000e+02 1.879954e-34
5.970000e+02 2.308624e-34
5.980000e+02 2.833053e-34
5.990000e+02 3.474187e-34
6.000000e+02 4.257458e-34
6.010000e+02 5.213720e-34
6.020000e+02 6.380382e-34
6.030000e+02 7.802770e-34
6.040000e+02 9.535764e-34
6.050000e+02 1.164577e-33
6.060000e+02 1.421310e-33
6.070000e+02 1.733478e-33
6.080000e+02 2.112799e-33
6.090000e+02 2.573416e-33
6.100000e+02 3.132385e-33
6.110000e+02 3.810263e-33
6.120000e+02 4.631813e-33
6.130000e+02 5.626841e-33
6.140000e+02 6.831202e-33
6.150000e+02 8.288006e-33
6.160000e+02 1.004904e-32
6.170000e+02 1.217649e-32
6.180000e+02 1.474498e-32
6.190000e+02 1.784399e-32
6.200000e+02 2.158077e-32
6.210000e+02 2.608376e-32
6.220000e+02 3.150672e-32
6.230000e+02 3.803359e-32
6.240000e+02 4.588426e-32
6.250000e+02 5.532148e-32
6.260000e+02 6.665900e-32
6.270000e+02 8.027124e-32
6.280000e+02 9.660479e-32
6.290000e+02 1.161920e-31
6.300000e+02 1.396669e-31
6.310000e+02 1.677846e-31
6.320000e+02 2.014435e-31
6.330000e+02 2.417119e-31
6.340000e+02 2.898597e-31
6.350000e+02 3.473951e-31
6.360000e+02 4.161088e-31
6.370000e+02 4.981253e-31
6.380000e+02 5.959641e-31
6.390000e+02 7.126110e-31
6.400000e+02 8.516026e-31
6.410000e+02 1.017126e-30
6.420000e+02 1.214135e-30
6.430000e+02 1.448487e-30
6.440000e+02 1.727106e-30
6.450000e+02 2.058171e-30
6.460000e+02 2.451335e-30
6.470000e+02 2.917992e-30
6.480000e+02 3.471577e-30
6.490000e+02 4.127925e-30
6.500000e+02 4.905691e-30
6.510000e+02 5.826842e-30
6.520000e+02 6.917225e-30
6.530000e+02 8.207242e-30
6.540000e+02 9.732635e-30
6.550000e+02 1.153540e-29
6.560000e+02 1.366484e-29
6.570000e+02 1.617884e-29
6.580000e+02 1.914531e-29
6.590000e+02 2.264387e-29
6.600000e+02 2.676781e-29
6.610000e+02 3.162644e-29
6.620000e+02 3.734771e-29
6.630000e+02 4.408135e-29
6.640000e+02 5.200246e-29
6.650000e+02 6.131578e-29
6.660000e+02 7.226047e-29
6.670000e+02 8.511587e-29
6.680000e+02 1.002080e-28
6.690000e+02 1.179174e-28
6.700000e+02 1.386875e-28
6.710000e+02 1.630353e-28
6.720000e+02 1.915633e-28
6.730000e+02 2.249729e-28
6.740000e+02 2.640803e-28
6.750000e+02 3.098352e-28
6.760000e+02 3.633419e-28
6.770000e+02 4.258837e-28
6.780000e+02 4.989516e-28
6.790000e+02 5.842766e-28
6.800000e+02 6.838680e-28
6.810000e+02 8.000564e-28
6.820000e+02 9.355444e-28
6.830000e+02 1.093464e-27
6.840000e+02 1.277445e-27
6.850000e+02 1.491687e-27
6.860000e+02 1.741055e-27
6.870000e+02 2.031174e-27
6.880000e+02 2.368550e-27
6.890000e+02 2.760703e-27
6.900000e+02 3.216322e-27
6.910000e+02 3.745439e-27
6.920000e+02 4.359636e-27
6.930000e+02 5.072275e-27
6.940000e+02 5.898770e-27
6.950000e+02 6.856886e-27
6.960000e+02 7.967097e-27
6.970000e+02 9.252983e-27
6.980000e+02 1.074169e-26
6.990000e+02 1.246447e-26
7.000000e+02 1.445726e-26
7.010000e+02 1.676139e-26
7.020000e+02 1.942436e-26
7.030000e+02 2.250073e-26
7.040000e+02 2.605319e-26
7.050000e+02 3.015366e-26
7.060000e+02 3.488471e-26
7.070000e+02 4.034101e-26
7.080000e+02 4.663111e-26
7.090000e+02 5.387943e-26
7.100000e+02 6.222846e-26
7.110000e+02 7.184141e-26
7.120000e+02 8.290508e-26
7.130000e+02 9.563320e-26
7.140000e+02 1.102702e-25
7.150000e+02 1.270956e-25
7.160000e+02 1.464287e-25
7.170000e+02 1.686344e-25
7.180000e+02 1.941293e-25
7.190000e+02 2.233890e-25
7.200000e+02 2.569560e-25
7.210000e+02 2.954494e-25
7.220000e+02 3.395746e-25
7.230000e+02 3.901360e-25
7.240000e+02 4.480497e-25
7.250000e+02 5.143590e-25
7.260000e+02 5.902516e-25
7.270000e+02 6.770793e-25
7.280000e+02 7.763795e-25
7.290000e+02 8.899004e-25
7.300000e+02 1.019629e-24
7.310000e+02 1.167824e-24
7.320000e+02 1.337050e-24
7.330000e+02 1.530217e-24
7.340000e+02 1.750633e-24
7.350000e+02 2.002045e-24
7.360000e+02 2.288708e-24
7.370000e+02 2.615443e-24
7.380000e+02 2.987713e-24
7.390000e+02 3.411711e-24
7.400000e+02 3.894447e-24
7.410000e+02 4.443860e-24
7.420000e+02 5.068932e-24
7.430000e+02 5.779826e-24
7.440000e+02 6.588035e-24
7.450000e+02 7.506552e-24
7.460000e+02 8.550062e-24
7.470000e+02 9.735152e-24
7.480000e+02 1.108056e-23
7.490000e+02 1.260743e-23
7.500000e+02 1.433963e-23
7.510000e+02 1.630410e-23
7.520000e+02 1.853119e-23
7.530000e+02 2.105516e-23
7.540000e+02 2.391458e-23
7.550000e+02 2.715292e-23
7.560000e+02 3.081915e-23
7.570000e+02 3.496840e-23
7.580000e+02 3.966270e-23
7.590000e+02 4.497186e-23
7.600000e+02 5.097440e-23
7.610000e+02 5.775859e-23
7.620000e+02 6.542367e-23
7.630000e+02 7.408113e-23
7.640000e+02 8.385623e-23
7.650000e+02 9.488960e-23
7.660000e+02 1.073391e-22
7.670000e+02 1.213820e-22
7.680000e+02 1.372169e-22
7.690000e+02 1.550667e-22
7.700000e+02 1.751815e-22
7.710000e+02 1.978412e-22
7.720000e+02 2.233596e-22
7.730000e+02 2.520883e-22
7.740000e+02 2.844208e-22
7.750000e+02 3.207976e-22
7.760000e+02 3.617117e-22
7.770000e+02 4.077145e-22
7.780000e+02 4.594228e-22
7.790000e+02 5.175260e-22
7.800000e+02 5.827948e-22
7.810000e+02 6.560901e-22
7.820000e+02 7.383737e-22
7.830000e+02 8.307192e-22
7.840000e+02 9.343255e-22
7.850000e+02 1.050530e-21
7.860000e+02 1.180826e-21
7.870000e+02 1.326877e-21
7.880000e+02 1.490539e-21
7.890000e+02 1.673881e-21
7.900000e+02 1.879208e-21
7.910000e+02 2.109087e-21
7.920000e+02 2.366378e-21
7.930000e+02 2.654265e-21
7.940000e+02 2.976290e-21
7.950000e+02 3.336397e-21
7.960000e+02 3.738972e-21
7.970000e+02 4.188891e-21
7.980000e+02 4.691577e-21
7.990000e+02 5.253055e-21
8.000000e+02 5.880022e-21
8.010000e+02 6.579916e-21
8.020000e+02 7.360995e-21
8.030000e+02 8.232429e-21
8.040000e+02 9.204396e-21
8.050000e+02 1.028818e-20
8.060000e+02 1.149632e-20
8.070000e+02 1.284270e-20
8.080000e+02 1.434271e-20
8.090000e+02 1.601343e-20
8.100000e+02 1.787375e-20
8.110000e+02 1.994464e-20
8.120000e+02 2.224930e-20
8.130000e+02 2.481339e-20
8.140000e+02 2.766536e-20
8.150000e+02 3.083666e-20
8.160000e+02 3.436208e-20
8.170000e+02 3.828012e-20
8.180000e+02 4.263333e-20
8.190000e+02 4.746874e-20
8.200000e+02 5.283834e-20
8.210000e+02 5.879955e-20
8.220000e+02 6.541580e-20
8.230000e+02 7.275712e-20
8.240000e+02 8.090086e-20
8.250000e+02 8.993232e-20
8.260000e+02 9.994567e-20
8.270000e+02 1.110448e-19
8.280000e+02 1.233442e-19
8.290000e+02 1.369702e-19
8.300000e+02 1.520619e-19
8.310000e+02 1.687728e-19
8.320000e+02 1.872719e-19
8.330000e+02 2.077453e-19
8.340000e+02 2.303978e-19
8.350000e+02 2.554553e-19
8.360000e+02 2.831660e-19
8.370000e+02 3.138032e-19
8.380000e+02 3.476674e-19
8.390000e+02 3.850893e-19
8.400000e+02 4.264322e-19
8.410000e+02 4.720960e-19
8.420000e+02 5.225195e-19
8.430000e+02 5.781854e-19
8.440000e+02 6.396237e-19
8.450000e+02 7.074163e-19
8.460000e+02 7.822024e-19
8.470000e+02 8.646834e-19
8.480000e+02 9.556291e-19
8.490000e+02 1.055884e-18
8.500000e+02 1.166375e-18
8.510000e+02 1.288118e-18
8.520000e+02 1.422227e-18
8.530000e+02 1.569923e-18
8.540000e+02 1.732544e-18
8.550000e+02 1.911556e-18
8.560000e+02 2.108565e-18
8.570000e+02 2.325330e-18
8.580000e+02 2.563777e-18
8.590000e+02 2.826014e-18
8.600000e+02 3.114347e-18
8.610000e+02 3.431301e-18
8.620000e+02 3.779636e-18
8.630000e+02 4.162372e-18
8.640000e+02 4.582811e-18
8.650000e+02 5.044562e-18
8.660000e+02 5.551570e-18
8.670000e+02 6.108144e-18
8.680000e+02 6.718995e-18
8.690000e+02 7.389264e-18
8.700000e+02 8.124567e-18
8.710000e+02 8.931035e-18
8.720000e+02 9.815361e-18
8.730000e+02 1.078485e-17
8.740000e+02 1.184746e-17
8.750000e+02 1.301189e-17
8.760000e+02 1.428761e-17
8.770000e+02 1.568496e-17
8.780000e+02 1.721520e-17
8.790000e+02 1.889061e-17
8.800000e+02 2.072457e-17
8.810000e+02 2.273164e-17
8.820000e+02 2.492770e-17
8.830000e+02 2.733003e-17
8.840000e+02 2.995745e-17
8.850000e+02 3.283044e-17
8.860000e+02 3.597130e-17
8.870000e+02 3.940426e-17
8.880000e+02 4.315573e-17
8.890000e+02 4.725438e-17
8.900000e+02 5.173141e-17
8.910000e+02 5.662076e-17
8.920000e+02 6.195928e-17
8.930000e+02 6.778703e-17
8.940000e+02 7.414756e-17
8.950000e+02 8.108814e-17
8.960000e+02 8.866012e-17
8.970000e+02 9.691929e-17
8.980000e+02 1.059262e-16
8.990000e+02 1.157465e-16
9.000000e+02 1.264515e-16
9.010000e+02 1.381186e-16
9.020000e+02 1.508318e-16
9.030000e+02 1.646820e-16
9.040000e+02 1.797680e-16
9.050000e+02 1.961967e-16
9.060000e+02 2.140842e-16
9.070000e+02 2.335562e-16
9.080000e+02 2.547488e-16
9.090000e+02 2.778097e-16
9.100000e+02 3.028986e-16
9.110000e+02 3.301886e-16
9.120000e+02 3.598670e-16
9.130000e+02 3.921368e-16
9.140000e+02 4.291814e-16
9.150000e+02 2.116523e-13
9.160000e+02 2.791786e-12
9.170000e+02 1.795360e-12
9.180000e+02 2.960253e-13
9.190000e+02 1.160940e-11
9.200000e+02 5.251341e-11
9.210000e+02 7.740937e-16
9.220000e+02 9.601141e-11
9.230000e+02 1.307765e-13
9.240000e+02 8.915055e-11
9.250000e+02 1.461518e-10
9.260000e+02 4.759426e-13
9.270000e+02 1.238236e-10
9.280000e+02 6.521412e-10
9.290000e+02 2.971843e-10
9.300000e+02 6.317979e-11
9.310000e+02 4.405928e-13
9.320000e+02 4.071289e-10
9.330000e+02 1.117874e-09
9.340000e+02 1.401436e-09
9.350000e+02 5.844767e-13
9.360000e+02 5.175535e-10
9.370000e+02 1.153344e-13
9.380000e+02 8.381948e-14
9.390000e+02 8.184884e-11
9.400000e+02 1.373367e-09
9.410000e+02 4.101950e-12
9.420000e+02 2.803636e-09
9.430000e+02 7.004890e-10
9.440000e+02 3.242871e-09
9.450000e+02 3.170758e-09
9.460000e+02 2.502803e-09
9.470000e+02 1.027400e-12
9.480000e+02 5.879108e-11
9.490000e+02 1.887787e-11
9.500000e+02 4.975914e-14
9.510000e+02 2.320122e-10
9.520000e+02 1.667907e-09
9.530000e+02 8.346035e-11
9.540000e+02 1.856612e-12
9.550000e+02 1.061642e-09
9.560000e+02 3.865663e-11
9.570000e+02 1.428351e-10
9.580000e+02 4.898304e-13
9.590000e+02 9.751472e-09
9.600000e+02 8.042456e-13
9.610000e+02 9.863216e-09
9.620000e+02 8.366468e-09
9.630000e+02 3.592007e-10
9.640000e+02 9.326762e-12
9.650000e+02 4.513723e-12
9.660000e+02 3.054945e-09
9.670000e+02 1.481668e-10
9.680000e+02 8.192957e-11
9.690000e+02 4.166191e-09
9.700000e+02 2.259550e-09
9.710000e+02 8.283084e-11
9.720000e+02 2.593599e-12
9.730000e+02 2.392090e-12
9.740000e+02 3.177879e-10
9.750000e+02 1.800246e-09
9.760000e+02 8.336916e-09
9.770000e+02 1.350821e-08
9.780000e+02 1.551941e-08
9.790000e+02 2.407474e-08
9.800000e+02 2.802689e-08
9.810000e+02 2.282553e-08
9.820000e+02 7.560985e-09
9.830000e+02 3.698650e-08
9.840000e+02 5.407473e-10
9.850000e+02 7.306625e-09
9.860000e+02 5.844860e-09
9.870000e+02 4.896175e-08
9.880000e+02 1.506706e-11
9.890000e+02 5.085905e-08
9.900000e+02 2.110699e-08
9.910000e+02 5.648679e-09
9.920000e+02 2.508278e-12
9.930000e+02 3.883182e-08
9.940000e+02 5.471179e-13
9.950000e+02 1.284447e-09
9.960000e+02 8.601830e-11
9.970000e+02 4.241274e-12
9.980000e+02 8.299149e-08
9.990000e+02 6.990373e-09
1.000000e+03 9.822119e-08
1.001000e+03 8.624684e-08
1.002000e+03 1.166097e-07
1.003000e+03 8.601769e-09
1.004000e+03 3.327472e-11
1.005000e+03 5.325759e-08
1.006000e+03 1.391261e-07
1.007000e+03 1.447636e-07
1.008000e+03 1.437562e-07
1.009000e+03 2.245336e-09
1.010000e+03 1.564909e-07
1.011000e+03 1.623233e-07
1.012000e+03 1.642058e-07
1.013000e+03 1.666121e-07
1.014000e+03 1.219291e-11
1.015000e+03 6.083667e-11
1.016000e+03 2.042995e-08
1.017000e+03 1.054445e-11
1.018000e+03 1.093674e-08
1.019000e+03 9.025314e-11
1.020000e+03 8.889766e-08
1.021000e+03 6.676757e-10
1.022000e+03 8.376439e-09
1.023000e+03 3.585914e-10
1.024000e+03 8.606516e-10
1.025000e+03 5.977715e-12
1.026000e+03 3.098169e-12
1.027000e+03 4.731228e-10
1.028000e+03 4.811573e-11
1.029000e+03 2.198064e-11
1.030000e+03 8.019147e-08
1.031000e+03 2.800878e-07
1.032000e+03 3.012177e-07
1.033000e+03 1.587921e-09
1.034000e+03 5.059542e-07
1.035000e+03 1.887202e-11
1.036000e+03 9.322321e-11
1.037000e+03 2.074474e-06
1.038000e+03 2.492834e-06
1.039000e+03 2.546292e-06
1.040000e+03 3.054674e-06
1.041000e+03 2.395706e-06
1.042000e+03 3.658465e-06
1.043000e+03 1.947193e-06
1.044000e+03 4.301055e-06
1.045000e+03 4.536241e-11
1.046000e+03 3.954381e-06
1.047000e+03 3.065349e-06
1.048000e+03 2.081515e-08
1.049000e+03 3.700009e-06
1.050000e+03 4.460931e-07
1.051000e+03 7.955850e-08
1.052000e+03 6.504783e-06
1.053000e+03 7.175301e-06
1.054000e+03 1.591616e-10
1.055000e+03 5.758288e-07
1.056000e+03 7.870545e-06
1.057000e+03 4.700369e-06
1.058000e+03 4.463706e-07
1.059000e+03 3.656260e-08
1.060000e+03 8.673851e-09
1.061000e+03 9.996698e-06
1.062000e+03 1.412978e-07
1.063000e+03 3.741683e-10
1.064000e+03 3.637979e-11
1.065000e+03 2.883098e-10
1.066000e+03 2.730667e-08
1.067000e+03 1.264502e-07
1.068000e+03 1.447453e-05
1.069000e+03 1.413942e-08
1.070000e+03 6.346179e-06
1.071000e+03 1.604104e-05
1.072000e+03 1.716765e-05
1.073000e+03 1.156877e-09
1.074000e+03 1.466313e-05
1.075000e+03 1.372200e-05
1.076000e+03 1.979876e-06
1.077000e+03 4.474714e-09
1.078000e+03 5.483198e-07
1.079000e+03 7.197358e-06
1.080000e+03 9.324843e-06
1.081000e+03 2.518683e-05
1.082000e+03 2.320920e-05
1.083000e+03 1.814110e-05
1.084000e+03 2.215382e-05
1.085000e+03 6.098686e-06
1.086000e+03 3.200555e-05
1.087000e+03 4.929061e-07
1.088000e+03 3.417344e-05
1.089000e+03 3.541728e-05
1.090000e+03 7.358770e-06
1.091000e+03 1.358667e-05
1.092000e+03 7.645994e-06
1.093000e+03 3.348942e-05
1.094000e+03 2.672039e-05
1.095000e+03 4.609157e-05
1.096000e+03 7.072595e-07
1.097000e+03 4.763533e-05
1.098000e+03 1.251182e-05
1.099000e+03 1.441335e-05
1.100000e+03 2.844570e-08
1.101000e+03 1.036615e-07
1.102000e+03 2.166601e-05
1.103000e+03 6.204293e-05
1.104000e+03 6.649914e-05
1.105000e+03 6.900671e-05
1.106000e+03 3.617030e-05
1.107000e+03 1.277440e-07
1.108000e+03 7.678195e-05
1.109000e+03 9.827585e-06
1.110000e+03 7.061063e-05
1.111000e+03 7.876254e-05
1.112000e+03 8.501390e-05
1.113000e+03 7.379694e-05
1.114000e+03 2.786943e-05
1.115000e+03 4.942296e-06
1.116000e+03 6.887927e-07
1.117000e+03 1.105288e-04
1.118000e+03 1.697407e-05
1.119000e+03 1.059874e-04
1.120000e+03 2.953195e-06
1.121000e+03 1.255690e-04
1.122000e+03 7.604820e-05
1.123000e+03 1.815102e-04
1.124000e+03 2.181857e-04
1.125000e+03 1.942665e-04
1.126000e+03 1.597720e-04
1.127000e+03 1.600252e-04
1.128000e+03 1.518316e-04
1.129000e+03 1.424701e-04
1.130000e+03 1.509642e-04
1.131000e+03 1.290317e-04
1.132000e+03 2.841742e-06
1.133000e+03 8.024045e-05
1.134000e+03 1.307740e-04
1.135000e+03 9.966141e-06
1.136000e+03 7.649283e-05
1.137000e+03 1.027246e-04
1.138000e+03 1.210779e-04
1.139000e+03 1.260570e-04
1.140000e+03 1.228709e-04
1.141000e+03 1.025951e-04
1.142000e+03 1.236013e-04
1.143000e+03 1.034688e-04
1.144000e+03 1.158380e-04
1.145000e+03 1.125794e-06
1.146000e+03 1.271305e-04
1.147000e+03 1.287787e-04
1.148000e+03 4.380247e-05
1.149000e+03 1.263697e-04
1.150000e+03 1.223053e-04
1.151000e+03 1.239663e-04
1.152000e+03 1.209079e-04
1.153000e+03 1.187235e-04
1.154000e+03 1.127539e-04
1.155000e+03 1.133292e-04
1.156000e+03 1.626850e-05
1.157000e+03 1.082773e-04
1.158000e+03 1.068421e-04
1.159000e+03 1.083832e-04
1.160000e+03 1.056935e-04
1.161000e+03 9.835380e-05
1.162000e+03 5.164547e-05
1.163000e+03 7.609156e-05
1.164000e+03 1.101944e-07
1.165000e+03 5.004558e-05
1.166000e+03 2.216327e-05
1.167000e+03 1.276217e-05
1.168000e+03 1.106776e-04
1.169000e+03 1.053501e-04
1.170000e+03 1.361595e-05
1.171000e+03 4.262033e-05
1.172000e+03 3.272069e-05
1.173000e+03 2.609576e-05
1.174000e+03 1.032434e-05
1.175000e+03 1.349254e-07
1.176000e+03 3.043533e-08
1.177000e+03 1.462876e-04
1.178000e+03 1.358008e-04
1.179000e+03 1.278743e-04
1.180000e+03 1.160649e-04
1.181000e+03 1.122434e-04
1.182000e+03 1.074054e-04
1.183000e+03 1.009159e-04
1.184000e+03 9.482015e-05
1.185000e+03 9.161943e-05
1.186000e+03 4.050871e-05
1.187000e+03 8.370891e-05
1.188000e+03 7.995755e-05
1.189000e+03 7.798530e-05
1.190000e+03 7.481871e-05
1.191000e+03 6.948596e-05
1.192000e+03 6.065743e-05
1.193000e+03 5.975175e-05
1.194000e+03 5.685405e-05
1.195000e+03 5.344159e-05
1.196000e+03 1.430138e-03
1.197000e+03 1.349043e-03
1.198000e+03 6.317950e-04
1.199000e+03 1.128605e-03
1.200000e+03 7.719218e-04
1.201000e+03 8.997570e-04
1.202000e+03 7.284154e-04
1.203000e+03 6.411986e-04
1.204000e+03 4.365605e-04
1.205000e+03 3.967103e-04
1.206000e+03 2.901128e-04
1.207000e+03 1.403513e-05
1.208000e+03 1.135606e-04
1.209000e+03 7.516255e-05
1.210000e+03 2.272318e-07
1.211000e+03 1.998540e-05
1.212000e+03 8.351237e-06
1.213000e+03 2.972803e-06
1.214000e+03 7.231031e-07
1.215000e+03 1.100026e-07
1.216000e+03 9.716246e-08
1.217000e+03 4.332391e-07
1.218000e+03 2.381077e-06
1.219000e+03 8.032751e-06
1.220000e+03 2.152710e-05
1.221000e+03 4.807626e-05
1.222000e+03 1.010113e-04
1.223000e+03 1.771320e-04
1.224000e+03 2.889828e-04
1.225000e+03 3.100923e-04
1.226000e+03 6.931743e-04
1.227000e+03 9.785813e-04
1.228000e+03 1.307487e-03
1.229000e+03 1.721011e-03
1.230000e+03 2.283140e-05
1.231000e+03 1.788359e-03
1.232000e+03 3.001995e-03
1.233000e+03 3.527763e-03
1.234000e+03 3.156376e-03
1.235000e+03 4.536871e-03
1.236000e+03 4.817544e-03
1.237000e+03 5.548922e-03
1.238000e+03 6.066393e-03
1.239000e+03 6.365421e-03
1.240000e+03 6.210511e-04
1.241000e+03 6.930107e-03
1.242000e+03 8.058741e-03
1.243000e+03 8.599141e-03
1.244000e+03 9.160980e-03
1.245000e+03 6.915553e-03
1.246000e+03 1.003898e-02
1.247000e+03 1.028205e-02
1.248000e+03 2.507072e-03
1.249000e+03 1.098973e-02
1.250000e+03 1.124868e-02
1.251000e+03 1.273677e-02
1.252000e+03 1.211950e-02
1.253000e+03 1.351052e-02
1.254000e+03 1.343132e-02
1.255000e+03 1.480856e-03
1.256000e+03 1.255348e-02
1.257000e+03 1.033013e-02
1.258000e+03 1.237933e-02
1.259000e+03 1.480702e-02
1.260000e+03 1.608290e-02
1.261000e+03 4.136190e-04
1.262000e+03 1.677214e-02
1.263000e+03 1.051924e-02
1.264000e+03 1.578588e-02
1.265000e+03 8.087701e-03
1.266000e+03 2.015329e-02
1.267000e+03 2.154913e-02
