# wavelength_A flux
5.000000e+02 1.154758e-10
5.010000e+02 1.324250e-10
5.020000e+02 1.517760e-10
5.030000e+02 1.738572e-10
5.040000e+02 1.990397e-10
5.050000e+02 2.320094e-10
5.060000e+02 2.652897e-10
5.070000e+02 3.031778e-10
5.080000e+02 3.462889e-10
5.090000e+02 3.953215e-10
5.100000e+02 4.510484e-10
5.110000e+02 5.143566e-10
5.120000e+02 5.862390e-10
5.130000e+02 6.678145e-10
5.140000e+02 7.603422e-10
5.150000e+02 8.652317e-10
5.160000e+02 9.840957e-10
5.170000e+02 1.118670e-09
5.180000e+02 1.271071e-09
5.190000e+02 1.443456e-09
5.200000e+02 1.638390e-09
5.210000e+02 1.858710e-09
5.220000e+02 2.107429e-09
5.230000e+02 2.388631e-09
5.240000e+02 2.705797e-09
5.250000e+02 3.063593e-09
5.260000e+02 3.466981e-09
5.270000e+02 3.921576e-09
5.280000e+02 4.433634e-09
5.290000e+02 5.009261e-09
5.300000e+02 5.658910e-09
5.310000e+02 6.388649e-09
5.320000e+02 7.209099e-09
5.330000e+02 8.131071e-09
5.340000e+02 9.166667e-09
5.350000e+02 1.032935e-08
5.360000e+02 1.163408e-08
5.370000e+02 1.297461e-08
5.380000e+02 1.473848e-08
5.390000e+02 1.657774e-08
5.400000e+02 1.863790e-08
5.410000e+02 2.094338e-08
5.420000e+02 2.352612e-08
5.430000e+02 2.641446e-08
5.440000e+02 2.964409e-08
5.450000e+02 3.325398e-08
5.460000e+02 3.728203e-08
5.470000e+02 4.179140e-08
5.480000e+02 4.681940e-08
5.490000e+02 5.242997e-08
5.500000e+02 5.868770e-08
5.510000e+02 6.566444e-08
5.520000e+02 7.343951e-08
5.530000e+02 8.210069e-08
5.540000e+02 9.174499e-08
5.550000e+02 1.024796e-07
5.560000e+02 1.144229e-07
5.570000e+02 1.277056e-07
5.580000e+02 1.424719e-07
5.590000e+02 1.588810e-07
5.600000e+02 1.771084e-07
5.610000e+02 1.973475e-07
5.620000e+02 2.198115e-07
5.630000e+02 2.447351e-07
5.640000e+02 2.723768e-07
5.650000e+02 3.030210e-07
5.660000e+02 3.369815e-07
5.670000e+02 3.746018e-07
5.680000e+02 4.162607e-07
5.690000e+02 4.623742e-07
5.700000e+02 5.133989e-07
5.710000e+02 5.698381e-07
5.720000e+02 6.322414e-07
5.730000e+02 7.012141e-07
5.740000e+02 7.774193e-07
5.750000e+02 8.615947e-07
5.760000e+02 9.544440e-07
5.770000e+02 1.057074e-06
5.780000e+02 1.170217e-06
5.790000e+02 1.294998e-06
5.800000e+02 1.432563e-06
5.810000e+02 1.584167e-06
5.820000e+02 1.751183e-06
5.830000e+02 1.935100e-06
5.840000e+02 2.137137e-06
5.850000e+02 2.360337e-06
5.860000e+02 2.605610e-06
5.870000e+02 2.875241e-06
5.880000e+02 3.171655e-06
5.890000e+02 3.497375e-06
5.900000e+02 3.855291e-06
5.910000e+02 4.248333e-06
5.920000e+02 4.679847e-06
5.930000e+02 5.153438e-06
5.940000e+02 5.673037e-06
5.950000e+02 6.242843e-06
5.960000e+02 6.867761e-06
5.970000e+02 7.552622e-06
5.980000e+02 8.303026e-06
5.990000e+02 9.124980e-06
6.000000e+02 1.002501e-05
6.010000e+02 1.100990e-05
6.020000e+02 1.208834e-05
6.030000e+02 1.326774e-05
6.040000e+02 1.455751e-05
6.050000e+02 1.596759e-05
6.060000e+02 1.750863e-05
6.070000e+02 1.919238e-05
6.080000e+02 2.103140e-05
6.090000e+02 2.303941e-05
6.100000e+02 2.523125e-05
6.110000e+02 2.762307e-05
6.120000e+02 3.023228e-05
6.130000e+02 3.307777e-05
6.140000e+02 3.618003e-05
6.150000e+02 3.956121e-05
6.160000e+02 4.324528e-05
6.170000e+02 4.725818e-05
6.180000e+02 5.162798e-05
6.190000e+02 5.638502e-05
6.200000e+02 6.156210e-05
6.210000e+02 6.719468e-05
6.220000e+02 7.332106e-05
6.230000e+02 7.998261e-05
6.240000e+02 8.722399e-05
6.250000e+02 9.509345e-05
6.260000e+02 1.036430e-04
6.270000e+02 1.129289e-04
6.280000e+02 1.230115e-04
6.290000e+02 1.339564e-04
6.300000e+02 1.458338e-04
6.310000e+02 1.587108e-04
6.320000e+02 1.726959e-04
6.330000e+02 1.878500e-04
6.340000e+02 2.042780e-04
6.350000e+02 2.220807e-04
6.360000e+02 2.412613e-04
6.370000e+02 2.622609e-04
6.380000e+02 2.848834e-04
6.390000e+02 3.093736e-04
6.400000e+02 3.358785e-04
6.410000e+02 3.645564e-04
6.420000e+02 3.955774e-04
6.430000e+02 4.291240e-04
6.440000e+02 4.653923e-04
6.450000e+02 5.045930e-04
6.460000e+02 5.469528e-04
6.470000e+02 5.927137e-04
6.480000e+02 6.421370e-04
6.490000e+02 6.955015e-04
6.500000e+02 7.531072e-04
6.510000e+02 8.152758e-04
6.520000e+02 8.823516e-04
6.530000e+02 9.547040e-04
6.540000e+02 1.032728e-03
6.550000e+02 1.116849e-03
6.560000e+02 1.207520e-03
6.570000e+02 1.305211e-03
6.580000e+02 1.410492e-03
6.590000e+02 1.523870e-03
6.600000e+02 1.645956e-03
6.610000e+02 1.777392e-03
6.620000e+02 1.918856e-03
6.630000e+02 2.071077e-03
6.640000e+02 2.234836e-03
6.650000e+02 2.410962e-03
6.660000e+02 2.600354e-03
6.670000e+02 2.803955e-03
6.680000e+02 3.022781e-03
6.690000e+02 3.257919e-03
6.700000e+02 3.510524e-03
6.710000e+02 3.781833e-03
6.720000e+02 4.073162e-03
6.730000e+02 4.385923e-03
6.740000e+02 4.721611e-03
6.750000e+02 5.081827e-03
6.760000e+02 5.468277e-03
6.770000e+02 5.882779e-03
6.780000e+02 6.327270e-03
6.790000e+02 6.803815e-03
6.800000e+02 7.314613e-03
6.810000e+02 7.862004e-03
6.820000e+02 8.448485e-03
6.830000e+02 9.076710e-03
6.840000e+02 9.749503e-03
6.850000e+02 1.046986e-02
6.860000e+02 1.124101e-02
6.870000e+02 1.206630e-02
6.880000e+02 1.294945e-02
6.890000e+02 1.389421e-02
6.900000e+02 1.490470e-02
6.910000e+02 1.598527e-02
6.920000e+02 1.714055e-02
6.930000e+02 1.837543e-02
6.940000e+02 1.969512e-02
6.950000e+02 2.110518e-02
6.960000e+02 2.261146e-02
6.970000e+02 2.421997e-02
6.980000e+02 2.593807e-02
6.990000e+02 2.777204e-02
7.000000e+02 2.972959e-02
7.010000e+02 3.181862e-02
7.020000e+02 3.404752e-02
7.030000e+02 3.642517e-02
7.040000e+02 3.896102e-02
7.050000e+02 4.166505e-02
7.060000e+02 4.454783e-02
7.070000e+02 4.762061e-02
7.080000e+02 5.089526e-02
7.090000e+02 5.438427e-02
7.100000e+02 5.810123e-02
7.110000e+02 6.206001e-02
7.120000e+02 6.627561e-02
7.130000e+02 7.076385e-02
7.140000e+02 7.554145e-02
7.150000e+02 8.062610e-02
7.160000e+02 8.603654e-02
7.170000e+02 9.179235e-02
7.180000e+02 9.791418e-02
7.190000e+02 1.044262e-01
7.200000e+02 1.113494e-01
7.210000e+02 1.187093e-01
7.220000e+02 1.265320e-01
7.230000e+02 1.348453e-01
7.240000e+02 1.436781e-01
7.250000e+02 1.530613e-01
7.260000e+02 1.630273e-01
7.270000e+02 1.736106e-01
7.280000e+02 1.848472e-01
7.290000e+02 1.967755e-01
7.300000e+02 2.094357e-01
7.310000e+02 2.228704e-01
7.320000e+02 2.371245e-01
7.330000e+02 2.522452e-01
7.340000e+02 2.682825e-01
7.350000e+02 2.852891e-01
7.360000e+02 3.033202e-01
7.370000e+02 3.224347e-01
7.380000e+02 3.426937e-01
7.390000e+02 3.641624e-01
7.400000e+02 3.869084e-01
7.410000e+02 4.110056e-01
7.420000e+02 4.365274e-01
7.430000e+02 4.635561e-01
7.440000e+02 4.921737e-01
7.450000e+02 5.224694e-01
7.460000e+02 5.545364e-01
7.470000e+02 5.884725e-01
7.480000e+02 6.243808e-01
7.490000e+02 6.623697e-01
7.500000e+02 7.025533e-01
7.510000e+02 7.450513e-01
7.520000e+02 7.899899e-01
7.530000e+02 8.375015e-01
7.540000e+02 8.877255e-01
7.550000e+02 9.408080e-01
7.560000e+02 9.969032e-01
7.570000e+02 1.056163e+00
7.580000e+02 1.118785e+00
7.590000e+02 1.184917e+00
7.600000e+02 1.254764e+00
7.610000e+02 1.328515e+00
7.620000e+02 1.406377e+00
7.630000e+02 1.488568e+00
7.640000e+02 1.575315e+00
7.650000e+02 1.666856e+00
7.660000e+02 1.763442e+00
7.670000e+02 1.865335e+00
7.680000e+02 1.972805e+00
7.690000e+02 2.086159e+00
7.700000e+02 2.205680e+00
7.710000e+02 2.331693e+00
7.720000e+02 2.464530e+00
7.730000e+02 2.604541e+00
7.740000e+02 2.752090e+00
7.750000e+02 2.907561e+00
7.760000e+02 3.071221e+00
7.770000e+02 3.243891e+00
7.780000e+02 3.425612e+00
7.790000e+02 3.616978e+00
7.800000e+02 3.818470e+00
7.810000e+02 4.030596e+00
7.820000e+02 4.253883e+00
7.830000e+02 4.488886e+00
7.840000e+02 4.736186e+00
7.850000e+02 4.996386e+00
7.860000e+02 5.270122e+00
7.870000e+02 5.558068e+00
7.880000e+02 5.860900e+00
7.890000e+02 6.179352e+00
7.900000e+02 6.514183e+00
7.910000e+02 6.866188e+00
7.920000e+02 7.236196e+00
7.930000e+02 7.625074e+00
7.940000e+02 8.033731e+00
7.950000e+02 8.463110e+00
7.960000e+02 8.914205e+00
7.970000e+02 9.388047e+00
7.980000e+02 9.885718e+00
7.990000e+02 1.040835e+01
8.000000e+02 1.095711e+01
8.010000e+02 1.153323e+01
8.020000e+02 1.213801e+01
8.030000e+02 1.277278e+01
8.040000e+02 1.343894e+01
8.050000e+02 1.413795e+01
8.060000e+02 1.487134e+01
8.070000e+02 1.564069e+01
8.080000e+02 1.644766e+01
8.090000e+02 1.729399e+01
8.100000e+02 1.818148e+01
8.110000e+02 1.911202e+01
8.120000e+02 2.008756e+01
8.130000e+02 2.111015e+01
8.140000e+02 2.218194e+01
8.150000e+02 2.330511e+01
8.160000e+02 2.448205e+01
8.170000e+02 2.571512e+01
8.180000e+02 2.700686e+01
8.190000e+02 2.835988e+01
8.200000e+02 2.977691e+01
8.210000e+02 3.126081e+01
8.220000e+02 3.281454e+01
8.230000e+02 3.444118e+01
8.240000e+02 3.614396e+01
8.250000e+02 3.792621e+01
8.260000e+02 3.979142e+01
8.270000e+02 4.174322e+01
8.280000e+02 4.378538e+01
8.290000e+02 4.592182e+01
8.300000e+02 4.815664e+01
8.310000e+02 5.049409e+01
8.320000e+02 5.293858e+01
8.330000e+02 5.549473e+01
8.340000e+02 5.816731e+01
8.350000e+02 6.095813e+01
8.360000e+02 6.388170e+01
8.370000e+02 6.693446e+01
8.380000e+02 7.012444e+01
8.390000e+02 7.345808e+01
8.400000e+02 7.694100e+01
8.410000e+02 8.057957e+01
8.420000e+02 8.437952e+01
8.430000e+02 8.835036e+01
8.440000e+02 9.249628e+01
8.450000e+02 9.682559e+01
8.460000e+02 1.013459e+02
8.470000e+02 1.060651e+02
8.480000e+02 1.109913e+02
8.490000e+02 1.161331e+02
8.500000e+02 1.214994e+02
8.510000e+02 1.270993e+02
8.520000e+02 1.329422e+02
8.530000e+02 1.390384e+02
8.540000e+02 1.453981e+02
8.550000e+02 1.520314e+02
8.560000e+02 1.589496e+02
8.570000e+02 1.661644e+02
8.580000e+02 1.736875e+02
8.590000e+02 1.815313e+02
8.600000e+02 1.897085e+02
8.610000e+02 1.982326e+02
8.620000e+02 2.071171e+02
8.630000e+02 2.163763e+02
8.640000e+02 2.260253e+02
8.650000e+02 2.360790e+02
8.660000e+02 2.465538e+02
8.670000e+02 2.574657e+02
8.680000e+02 2.688320e+02
8.690000e+02 2.806704e+02
8.700000e+02 2.929987e+02
8.710000e+02 3.058372e+02
8.720000e+02 3.192044e+02
8.730000e+02 3.331211e+02
8.740000e+02 3.476083e+02
8.750000e+02 3.626879e+02
8.760000e+02 3.783826e+02
8.770000e+02 3.947154e+02
8.780000e+02 4.117118e+02
8.790000e+02 4.293957e+02
8.800000e+02 4.477935e+02
8.810000e+02 4.669322e+02
8.820000e+02 4.868396e+02
8.830000e+02 5.075446e+02
8.840000e+02 5.290770e+02
8.850000e+02 5.514676e+02
8.860000e+02 5.747484e+02
8.870000e+02 5.989525e+02
8.880000e+02 6.241139e+02
8.890000e+02 6.502682e+02
8.900000e+02 6.774518e+02
8.910000e+02 7.057026e+02
8.920000e+02 7.345466e+02
8.930000e+02 7.655632e+02
8.940000e+02 7.972553e+02
8.950000e+02 8.301788e+02
8.960000e+02 8.643790e+02
8.970000e+02 8.999013e+02
8.980000e+02 9.367938e+02
8.990000e+02 9.751057e+02
9.000000e+02 1.014888e+03
9.010000e+02 1.056193e+03
9.020000e+02 1.099075e+03
9.030000e+02 1.143590e+03
9.040000e+02 1.189794e+03
9.050000e+02 1.237755e+03
9.060000e+02 1.287527e+03
9.070000e+02 1.339166e+03
9.080000e+02 1.392766e+03
9.090000e+02 1.448368e+03
9.100000e+02 1.506052e+03
9.110000e+02 1.565891e+03
9.120000e+02 1.627976e+03
9.130000e+02 1.683132e+03
9.140000e+02 1.779549e+03
9.150000e+02 9.504354e+03
9.160000e+02 1.819036e+04
9.170000e+02 1.877429e+04
9.180000e+02 1.885830e+04
9.190000e+02 2.069949e+04
9.200000e+02 2.149110e+04
9.210000e+02 2.283806e+03
9.220000e+02 2.292371e+04
9.230000e+02 2.256823e+04
9.240000e+02 2.288623e+04
9.250000e+02 2.493369e+04
9.260000e+02 2.557564e+04
9.270000e+02 2.670452e+04
9.280000e+02 2.782356e+04
9.290000e+02 2.624955e+04
9.300000e+02 2.935847e+04
9.310000e+02 2.969450e+04
9.320000e+02 3.158420e+04
9.330000e+02 3.256824e+04
9.340000e+02 3.363346e+04
9.350000e+02 7.835500e+03
9.360000e+02 3.444391e+04
9.370000e+02 6.559179e+03
9.380000e+02 2.252442e+04
9.390000e+02 3.894725e+04
9.400000e+02 4.055492e+04
9.410000e+02 1.686810e+04
9.420000e+02 4.316083e+04
9.430000e+02 4.439352e+04
9.440000e+02 3.559738e+04
9.450000e+02 4.731873e+04
9.460000e+02 4.875929e+04
9.470000e+02 4.522932e+04
9.480000e+02 4.541537e+04
9.490000e+02 5.304106e+04
9.500000e+02 1.083500e+04
9.510000e+02 5.540030e+04
9.520000e+02 5.855780e+04
9.530000e+02 5.843277e+04
9.540000e+02 5.327331e+04
9.550000e+02 6.403636e+04
9.560000e+02 5.804036e+04
9.570000e+02 4.207581e+04
9.580000e+02 6.468806e+04
9.590000e+02 7.266739e+04
9.600000e+02 1.460414e+04
9.610000e+02 7.712041e+04
9.620000e+02 7.928971e+04
9.630000e+02 8.170509e+04
9.640000e+02 1.139326e+04
9.650000e+02 7.953450e+04
9.660000e+02 8.921962e+04
9.670000e+02 9.091463e+04
9.680000e+02 9.212446e+04
9.690000e+02 9.707854e+04
9.700000e+02 1.001832e+05
9.710000e+02 1.013134e+05
9.720000e+02 9.851258e+04
9.730000e+02 9.983523e+04
9.740000e+02 1.116207e+05
9.750000e+02 1.157436e+05
9.760000e+02 1.198037e+05
9.770000e+02 1.233492e+05
9.780000e+02 1.265819e+05
9.790000e+02 1.308396e+05
9.800000e+02 1.346192e+05
9.810000e+02 1.383492e+05
9.820000e+02 1.411861e+05
9.830000e+02 1.466692e+05
9.840000e+02 6.877976e+04
9.850000e+02 1.548297e+05
9.860000e+02 1.591552e+05
9.870000e+02 1.643024e+05
9.880000e+02 1.632418e+05
9.890000e+02 1.456783e+05
9.900000e+02 3.132518e+04
9.910000e+02 1.794191e+05
9.920000e+02 1.607242e+05
9.930000e+02 1.863055e+05
9.940000e+02 3.535312e+04
9.950000e+02 6.672438e+04
9.960000e+02 1.788993e+05
9.970000e+02 5.359862e+04
9.980000e+02 2.227190e+05
9.990000e+02 2.239559e+05
1.000000e+03 2.360119e+05
1.001000e+03 2.426696e+05
1.002000e+03 2.493199e+05
1.003000e+03 2.443563e+05
1.004000e+03 2.565929e+05
1.005000e+03 2.551342e+05
1.006000e+03 2.780203e+05
1.007000e+03 2.856027e+05
1.008000e+03 2.931430e+05
1.009000e+03 2.960901e+05
1.010000e+03 3.095634e+05
1.011000e+03 3.180226e+05
1.012000e+03 3.265171e+05
1.013000e+03 3.352791e+05
1.014000e+03 3.024621e+05
1.015000e+03 3.360591e+05
1.016000e+03 3.596219e+05
1.017000e+03 3.315473e+05
1.018000e+03 3.797085e+05
1.019000e+03 3.768904e+05
1.020000e+03 4.020012e+05
1.021000e+03 2.341168e+05
1.022000e+03 3.771736e+05
1.023000e+03 4.095444e+05
1.024000e+03 4.144514e+05
1.025000e+03 3.104719e+05
1.026000e+03 1.756103e+05
1.027000e+03 4.299247e+05
1.028000e+03 1.262442e+05
1.029000e+03 4.520123e+05
1.030000e+03 5.150992e+05
1.031000e+03 5.325246e+05
1.032000e+03 5.487871e+05
1.033000e+03 2.279436e+05
1.034000e+03 5.794852e+05
1.035000e+03 1.353405e+05
1.036000e+03 5.321732e+05
1.037000e+03 2.783483e+05
1.038000e+03 6.443191e+05
1.039000e+03 6.575584e+05
1.040000e+03 6.779435e+05
1.041000e+03 6.905581e+05
1.042000e+03 7.101833e+05
1.043000e+03 7.028213e+05
1.044000e+03 7.502549e+05
1.045000e+03 7.689089e+05
1.046000e+03 7.896800e+05
1.047000e+03 8.076870e+05
1.048000e+03 8.088328e+05
1.049000e+03 8.370532e+05
1.050000e+03 8.708812e+05
1.051000e+03 8.907814e+05
1.052000e+03 9.173316e+05
1.053000e+03 9.364539e+05
1.054000e+03 8.527408e+05
1.055000e+03 9.859162e+05
1.056000e+03 1.012980e+06
1.057000e+03 1.036542e+06
1.058000e+03 1.060923e+06
1.059000e+03 1.074336e+06
1.060000e+03 1.091560e+06
1.061000e+03 1.143563e+06
1.062000e+03 1.166896e+06
1.063000e+03 4.911746e+05
1.064000e+03 2.882289e+05
1.065000e+03 1.150850e+06
1.066000e+03 1.131504e+06
1.067000e+03 1.289442e+06
1.068000e+03 1.359803e+06
1.069000e+03 1.314538e+06
1.070000e+03 1.420174e+06
1.071000e+03 1.461645e+06
1.072000e+03 1.496795e+06
1.073000e+03 1.431252e+06
1.074000e+03 1.565709e+06
1.075000e+03 1.601034e+06
1.076000e+03 1.645892e+06
1.077000e+03 1.659500e+06
1.078000e+03 1.717859e+06
1.079000e+03 1.760210e+06
1.080000e+03 1.805761e+06
1.081000e+03 1.850054e+06
1.082000e+03 1.892879e+06
1.083000e+03 1.937072e+06
1.084000e+03 1.985024e+06
1.085000e+03 1.657086e+06
1.086000e+03 2.079102e+06
1.087000e+03 2.095807e+06
1.088000e+03 2.171735e+06
1.089000e+03 2.227264e+06
1.090000e+03 2.266742e+06
1.091000e+03 2.318185e+06
1.092000e+03 2.384826e+06
1.093000e+03 2.438324e+06
1.094000e+03 2.494450e+06
1.095000e+03 2.552174e+06
1.096000e+03 2.607626e+06
1.097000e+03 2.655242e+06
1.098000e+03 2.721837e+06
1.099000e+03 2.788831e+06
1.100000e+03 2.760048e+06
1.101000e+03 2.654183e+06
1.102000e+03 5.747054e+06
1.103000e+03 1.795855e+07
1.104000e+03 6.869700e+06
1.105000e+03 2.974618e+06
1.106000e+03 3.542013e+07
1.107000e+03 1.515928e+07
1.108000e+03 3.834666e+07
1.109000e+03 2.405336e+07
1.110000e+03 1.220088e+07
1.111000e+03 6.570846e+06
1.112000e+03 3.735984e+07
1.113000e+03 4.248411e+07
1.114000e+03 2.553382e+06
1.115000e+03 3.544782e+07
1.116000e+03 3.398776e+07
1.117000e+03 2.635964e+06
1.118000e+03 3.053507e+07
1.119000e+03 4.554814e+07
1.120000e+03 3.685829e+07
1.121000e+03 4.394756e+07
1.122000e+03 1.166672e+06
1.123000e+03 6.910686e+06
1.124000e+03 5.019217e+07
1.125000e+03 3.089841e+07
1.126000e+03 5.245844e+07
1.127000e+03 5.157552e+07
1.128000e+03 2.224116e+07
1.129000e+03 5.256976e+07
1.130000e+03 5.179938e+07
1.131000e+03 5.689247e+07
1.132000e+03 3.457744e+06
1.133000e+03 4.379861e+07
1.134000e+03 5.657295e+07
1.135000e+03 2.294948e+06
1.136000e+03 5.561134e+07
1.137000e+03 6.254447e+07
1.138000e+03 6.143343e+07
1.139000e+03 6.335980e+07
1.140000e+03 2.134028e+06
1.141000e+03 6.678497e+07
1.142000e+03 6.760008e+07
1.143000e+03 6.858541e+07
1.144000e+03 7.048834e+07
1.145000e+03 3.997343e+07
1.146000e+03 7.288941e+07
1.147000e+03 7.294176e+07
1.148000e+03 6.045622e+07
1.149000e+03 7.602615e+07
1.150000e+03 7.514462e+07
1.151000e+03 7.850914e+07
1.152000e+03 7.991145e+07
1.153000e+03 3.277527e+07
1.154000e+03 1.380686e+07
1.155000e+03 7.891520e+07
1.156000e+03 3.193714e+07
1.157000e+03 8.664242e+07
1.158000e+03 3.640402e+06
1.159000e+03 7.873237e+07
1.160000e+03 8.731550e+07
1.161000e+03 9.256676e+07
1.162000e+03 2.838313e+07
1.163000e+03 8.944086e+07
1.164000e+03 4.279328e+06
1.165000e+03 9.871898e+07
1.166000e+03 9.962835e+07
1.167000e+03 1.002089e+08
1.168000e+03 1.046506e+08
1.169000e+03 1.042286e+08
1.170000e+03 1.078174e+08
1.171000e+03 1.099995e+08
1.172000e+03 1.075118e+08
1.173000e+03 1.145449e+08
1.174000e+03 8.992871e+07
1.175000e+03 5.141096e+06
1.176000e+03 4.636928e+06
1.177000e+03 1.228352e+08
1.178000e+03 1.218790e+08
1.179000e+03 1.269868e+08
1.180000e+03 1.000688e+08
1.181000e+03 1.308660e+08
1.182000e+03 1.337425e+08
1.183000e+03 1.349389e+08
1.184000e+03 1.365162e+08
1.185000e+03 1.387648e+08
1.186000e+03 1.313954e+08
1.187000e+03 1.435377e+08
1.188000e+03 1.406395e+08
1.189000e+03 6.220176e+06
1.190000e+03 3.280280e+07
1.191000e+03 1.480055e+08
1.192000e+03 1.503396e+08
1.193000e+03 5.962800e+06
1.194000e+03 7.121056e+06
1.195000e+03 1.225540e+08
1.196000e+03 1.549252e+08
1.197000e+03 2.314630e+08
1.198000e+03 2.166589e+08
1.199000e+03 2.274646e+08
1.200000e+03 1.965294e+08
1.201000e+03 2.144184e+08
1.202000e+03 2.072551e+08
1.203000e+03 2.661377e+08
1.204000e+03 2.203715e+08
1.205000e+03 2.230180e+08
1.206000e+03 2.069178e+08
1.207000e+03 3.509602e+07
1.208000e+03 1.555645e+08
1.209000e+03 1.196858e+08
1.210000e+03 9.967176e+06
1.211000e+03 7.134241e+07
1.212000e+03 4.762025e+07
1.213000e+03 2.991191e+07
1.214000e+03 1.761068e+07
1.215000e+03 1.112094e+07
1.216000e+03 1.014228e+07
1.217000e+03 1.560585e+07
1.218000e+03 2.740996e+07
1.219000e+03 4.697985e+07
1.220000e+03 7.353592e+07
1.221000e+03 1.076400e+08
1.222000e+03 1.459736e+08
1.223000e+03 1.886696e+08
1.224000e+03 2.349646e+08
1.225000e+03 2.580964e+08
1.226000e+03 3.324495e+08
1.227000e+03 3.791305e+08
1.228000e+03 4.108956e+08
1.229000e+03 4.796028e+08
1.230000e+03 5.190476e+08
1.231000e+03 5.314714e+08
1.232000e+03 6.393830e+08
1.233000e+03 6.888844e+08
1.234000e+03 4.169431e+08
1.235000e+03 7.791379e+08
1.236000e+03 7.220502e+08
1.237000e+03 8.686892e+08
1.238000e+03 8.980111e+08
1.239000e+03 9.342551e+08
1.240000e+03 8.724703e+08
1.241000e+03 1.467008e+09
1.242000e+03 8.458602e+08
1.243000e+03 1.340181e+09
1.244000e+03 5.388059e+08
1.245000e+03 8.060577e+08
1.246000e+03 2.332406e+09
1.247000e+03 2.384187e+09
1.248000e+03 5.700284e+08
1.249000e+03 7.550639e+08
1.250000e+03 2.769655e+09
1.251000e+03 3.024292e+09
1.252000e+03 2.977752e+09
1.253000e+03 3.224826e+09
1.254000e+03 3.147720e+09
1.255000e+03 3.408038e+09
1.256000e+03 3.293782e+09
1.257000e+03 3.560346e+09
1.258000e+03 3.056154e+09
1.259000e+03 3.433650e+09
1.260000e+03 3.017394e+09
1.261000e+03 2.457682e+07
1.262000e+03 3.505025e+08
1.263000e+03 3.947244e+09
1.264000e+03 3.243363e+09
1.265000e+03 2.560896e+07
1.266000e+03 4.139338e+09
1.267000e+03 3.933554e+09
