# wavelength_A flux
5.000000e+02 3.780796e-24
5.010000e+02 4.613637e-24
5.020000e+02 5.625368e-24
5.030000e+02 6.853429e-24
5.040000e+02 8.342887e-24
5.050000e+02 1.024246e-23
5.060000e+02 1.244643e-23
5.070000e+02 1.511126e-23
5.080000e+02 1.833477e-23
5.090000e+02 2.222712e-23
5.100000e+02 2.666170e-23
5.110000e+02 3.259103e-23
5.120000e+02 3.941562e-23
5.130000e+02 4.764210e-23
5.140000e+02 5.753694e-23
5.150000e+02 6.943468e-23
5.160000e+02 8.373023e-23
5.170000e+02 1.008959e-22
5.180000e+02 1.214906e-22
5.190000e+02 1.461821e-22
5.200000e+02 1.757641e-22
5.210000e+02 2.111796e-22
5.220000e+02 2.535355e-22
5.230000e+02 3.042021e-22
5.240000e+02 3.647169e-22
5.250000e+02 4.369602e-22
5.260000e+02 5.231460e-22
5.270000e+02 6.258940e-22
5.280000e+02 7.483027e-22
5.290000e+02 8.940286e-22
5.300000e+02 1.067414e-21
5.310000e+02 1.273548e-21
5.320000e+02 1.518459e-21
5.330000e+02 1.809247e-21
5.340000e+02 2.154275e-21
5.350000e+02 2.563389e-21
5.360000e+02 3.048166e-21
5.370000e+02 3.610476e-21
5.380000e+02 4.301611e-21
5.390000e+02 5.105089e-21
5.400000e+02 6.054696e-21
5.410000e+02 7.176228e-21
5.420000e+02 8.500225e-21
5.430000e+02 1.006197e-20
5.440000e+02 1.190309e-20
5.450000e+02 1.407221e-20
5.460000e+02 1.662613e-20
5.470000e+02 1.963139e-20
5.480000e+02 2.316542e-20
5.490000e+02 2.731876e-20
5.500000e+02 3.219697e-20
5.510000e+02 3.792309e-20
5.520000e+02 4.464044e-20
5.530000e+02 5.251590e-20
5.540000e+02 6.174362e-20
5.550000e+02 7.254939e-20
5.560000e+02 8.519560e-20
5.570000e+02 9.998703e-20
5.580000e+02 1.172775e-19
5.590000e+02 1.374775e-19
5.600000e+02 1.610630e-19
5.610000e+02 1.885857e-19
5.620000e+02 2.206843e-19
5.630000e+02 2.580985e-19
5.640000e+02 3.016838e-19
5.650000e+02 3.524297e-19
5.660000e+02 4.114795e-19
5.670000e+02 4.801538e-19
5.680000e+02 5.599773e-19
5.690000e+02 6.527088e-19
5.700000e+02 7.603768e-19
5.710000e+02 8.853191e-19
5.720000e+02 1.030229e-18
5.730000e+02 1.198206e-18
5.740000e+02 1.392819e-18
5.750000e+02 1.618172e-18
5.760000e+02 1.878975e-18
5.770000e+02 2.180671e-18
5.780000e+02 2.529455e-18
5.790000e+02 2.932479e-18
5.800000e+02 3.397937e-18
5.810000e+02 3.935225e-18
5.820000e+02 4.555106e-18
5.830000e+02 5.269905e-18
5.840000e+02 6.093485e-18
5.850000e+02 7.042750e-18
5.860000e+02 8.135550e-18
5.870000e+02 9.393086e-18
5.880000e+02 1.083955e-17
5.890000e+02 1.250249e-17
5.900000e+02 1.441339e-17
5.910000e+02 1.660813e-17
5.920000e+02 1.912764e-17
5.930000e+02 2.201858e-17
5.940000e+02 2.533410e-17
5.950000e+02 2.913474e-17
5.960000e+02 3.348939e-17
5.970000e+02 3.847644e-17
5.980000e+02 4.418501e-17
5.990000e+02 5.071644e-17
6.000000e+02 5.818582e-17
6.010000e+02 6.672387e-17
6.020000e+02 7.647896e-17
6.030000e+02 8.761944e-17
6.040000e+02 1.003362e-16
6.050000e+02 1.148457e-16
6.060000e+02 1.313930e-16
6.070000e+02 1.502559e-16
6.080000e+02 1.717487e-16
6.090000e+02 1.962272e-16
6.100000e+02 2.240937e-16
6.110000e+02 2.558029e-16
6.120000e+02 2.918690e-16
6.130000e+02 3.328726e-16
6.140000e+02 3.794691e-16
6.150000e+02 4.323986e-16
6.160000e+02 4.924957e-16
6.170000e+02 5.607017e-16
6.180000e+02 6.380776e-16
6.190000e+02 7.258188e-16
6.200000e+02 8.252716e-16
6.210000e+02 9.379518e-16
6.220000e+02 1.065565e-15
6.230000e+02 1.210030e-15
6.240000e+02 1.373504e-15
6.250000e+02 1.558411e-15
6.260000e+02 1.767476e-15
6.270000e+02 2.003758e-15
6.280000e+02 2.270691e-15
6.290000e+02 2.572129e-15
6.300000e+02 2.912395e-15
6.310000e+02 3.296211e-15
6.320000e+02 3.729384e-15
6.330000e+02 4.217625e-15
6.340000e+02 4.767878e-15
6.350000e+02 5.387767e-15
6.360000e+02 6.085848e-15
6.370000e+02 6.871659e-15
6.380000e+02 7.755889e-15
6.390000e+02 8.750477e-15
6.400000e+02 9.868768e-15
6.410000e+02 1.112567e-14
6.420000e+02 1.253781e-14
6.430000e+02 1.412377e-14
6.440000e+02 1.590428e-14
6.450000e+02 1.790244e-14
6.460000e+02 2.014403e-14
6.470000e+02 2.265775e-14
6.480000e+02 2.547561e-14
6.490000e+02 2.863323e-14
6.500000e+02 3.217029e-14
6.510000e+02 3.613093e-14
6.520000e+02 4.056426e-14
6.530000e+02 4.552489e-14
6.540000e+02 5.107356e-14
6.550000e+02 5.727773e-14
6.560000e+02 6.421238e-14
6.570000e+02 7.196073e-14
6.580000e+02 8.061522e-14
6.590000e+02 9.027840e-14
6.600000e+02 1.010641e-13
6.610000e+02 1.130984e-13
6.620000e+02 1.265213e-13
6.630000e+02 1.414878e-13
6.640000e+02 1.581697e-13
6.650000e+02 1.767572e-13
6.660000e+02 1.974609e-13
6.670000e+02 2.205140e-13
6.680000e+02 2.461743e-13
6.690000e+02 2.747271e-13
6.700000e+02 3.064878e-13
6.710000e+02 3.418051e-13
6.720000e+02 3.810642e-13
6.730000e+02 4.246906e-13
6.740000e+02 4.731543e-13
6.750000e+02 5.269739e-13
6.760000e+02 5.867218e-13
6.770000e+02 6.530296e-13
6.780000e+02 7.265938e-13
6.790000e+02 8.081821e-13
6.800000e+02 8.986409e-13
6.810000e+02 9.989026e-13
6.820000e+02 1.109994e-12
6.830000e+02 1.233047e-12
6.840000e+02 1.369306e-12
6.850000e+02 1.520140e-12
6.860000e+02 1.687058e-12
6.870000e+02 1.871717e-12
6.880000e+02 2.075938e-12
6.890000e+02 2.301726e-12
6.900000e+02 2.551281e-12
6.910000e+02 2.827022e-12
6.920000e+02 3.131603e-12
6.930000e+02 3.467939e-12
6.940000e+02 3.839228e-12
6.950000e+02 4.248982e-12
6.960000e+02 4.701050e-12
6.970000e+02 5.199653e-12
6.980000e+02 5.749419e-12
6.990000e+02 6.355420e-12
7.000000e+02 7.023212e-12
7.010000e+02 7.758881e-12
7.020000e+02 8.569092e-12
7.030000e+02 9.461138e-12
7.040000e+02 1.044300e-11
7.050000e+02 1.152342e-11
7.060000e+02 1.271193e-11
7.070000e+02 1.401902e-11
7.080000e+02 1.545606e-11
7.090000e+02 1.703555e-11
7.100000e+02 1.877112e-11
7.110000e+02 2.067766e-11
7.120000e+02 2.277143e-11
7.130000e+02 2.507018e-11
7.140000e+02 2.759328e-11
7.150000e+02 3.036187e-11
7.160000e+02 3.339900e-11
7.170000e+02 3.672981e-11
7.180000e+02 4.038172e-11
7.190000e+02 4.438458e-11
7.200000e+02 4.877096e-11
7.210000e+02 5.357630e-11
7.220000e+02 5.883922e-11
7.230000e+02 6.460177e-11
7.240000e+02 7.090971e-11
7.250000e+02 7.781283e-11
7.260000e+02 8.536532e-11
7.270000e+02 9.362611e-11
7.280000e+02 1.026593e-10
7.290000e+02 1.125345e-10
7.300000e+02 1.233274e-10
7.310000e+02 1.351203e-10
7.320000e+02 1.480026e-10
7.330000e+02 1.620713e-10
7.340000e+02 1.774318e-10
7.350000e+02 1.941984e-10
7.360000e+02 2.124953e-10
7.370000e+02 2.324572e-10
7.380000e+02 2.542300e-10
7.390000e+02 2.779723e-10
7.400000e+02 3.038558e-10
7.410000e+02 3.320666e-10
7.420000e+02 3.628064e-10
7.430000e+02 3.962937e-10
7.440000e+02 4.327654e-10
7.450000e+02 4.724777e-10
7.460000e+02 5.157081e-10
7.470000e+02 5.627571e-10
7.480000e+02 6.139495e-10
7.490000e+02 6.696371e-10
7.500000e+02 7.302002e-10
7.510000e+02 7.960501e-10
7.520000e+02 8.676315e-10
7.530000e+02 9.454248e-10
7.540000e+02 1.029950e-09
7.550000e+02 1.121767e-09
7.560000e+02 1.221483e-09
7.570000e+02 1.329752e-09
7.580000e+02 1.447281e-09
7.590000e+02 1.574832e-09
7.600000e+02 1.713229e-09
7.610000e+02 1.863360e-09
7.620000e+02 2.026183e-09
7.630000e+02 2.202730e-09
7.640000e+02 2.394116e-09
7.650000e+02 2.601543e-09
7.660000e+02 2.826303e-09
7.670000e+02 3.069792e-09
7.680000e+02 3.333512e-09
7.690000e+02 3.619081e-09
7.700000e+02 3.928242e-09
7.710000e+02 4.262871e-09
7.720000e+02 4.624987e-09
7.730000e+02 5.016763e-09
7.740000e+02 5.440536e-09
7.750000e+02 5.898824e-09
7.760000e+02 6.394329e-09
7.770000e+02 6.929960e-09
7.780000e+02 7.508844e-09
7.790000e+02 8.134343e-09
7.800000e+02 8.810066e-09
7.810000e+02 9.539892e-09
7.820000e+02 1.032799e-08
7.830000e+02 1.117884e-08
7.840000e+02 1.209724e-08
7.850000e+02 1.308835e-08
7.860000e+02 1.415771e-08
7.870000e+02 1.531126e-08
7.880000e+02 1.655538e-08
7.890000e+02 1.789690e-08
7.900000e+02 1.934315e-08
7.910000e+02 2.090200e-08
7.920000e+02 2.258188e-08
7.930000e+02 2.439182e-08
7.940000e+02 2.634150e-08
7.950000e+02 2.844129e-08
7.960000e+02 3.070231e-08
7.970000e+02 3.313644e-08
7.980000e+02 3.575645e-08
7.990000e+02 3.857595e-08
8.000000e+02 4.160957e-08
8.010000e+02 4.487291e-08
8.020000e+02 4.838271e-08
8.030000e+02 5.215684e-08
8.040000e+02 5.621443e-08
8.050000e+02 6.057586e-08
8.060000e+02 6.526324e-08
8.070000e+02 7.029972e-08
8.080000e+02 7.571035e-08
8.090000e+02 8.152185e-08
8.100000e+02 8.776274e-08
8.110000e+02 9.446349e-08
8.120000e+02 1.016567e-07
8.130000e+02 1.093770e-07
8.140000e+02 1.176616e-07
8.150000e+02 1.265501e-07
8.160000e+02 1.360847e-07
8.170000e+02 1.463106e-07
8.180000e+02 1.572758e-07
8.190000e+02 1.690317e-07
8.200000e+02 1.816331e-07
8.210000e+02 1.951383e-07
8.220000e+02 2.096095e-07
8.230000e+02 2.251130e-07
8.240000e+02 2.417196e-07
8.250000e+02 2.595046e-07
8.260000e+02 2.785483e-07
8.270000e+02 2.989360e-07
8.280000e+02 3.207589e-07
8.290000e+02 3.441140e-07
8.300000e+02 3.691043e-07
8.310000e+02 3.958399e-07
8.320000e+02 4.244375e-07
8.330000e+02 4.550217e-07
8.340000e+02 4.877249e-07
8.350000e+02 5.226879e-07
8.360000e+02 5.600604e-07
8.370000e+02 6.000017e-07
8.380000e+02 6.426813e-07
8.390000e+02 6.882791e-07
8.400000e+02 7.369866e-07
8.410000e+02 7.890070e-07
8.420000e+02 8.445565e-07
8.430000e+02 9.038647e-07
8.440000e+02 9.671753e-07
8.450000e+02 1.034747e-06
8.460000e+02 1.106856e-06
8.470000e+02 1.183793e-06
8.480000e+02 1.265869e-06
8.490000e+02 1.353412e-06
8.500000e+02 1.446771e-06
8.510000e+02 1.546317e-06
8.520000e+02 1.652443e-06
8.530000e+02 1.765566e-06
8.540000e+02 1.886127e-06
8.550000e+02 2.014596e-06
8.560000e+02 2.151469e-06
8.570000e+02 2.297274e-06
8.580000e+02 2.452567e-06
8.590000e+02 2.617943e-06
8.600000e+02 2.794026e-06
8.610000e+02 2.981481e-06
8.620000e+02 3.181013e-06
8.630000e+02 3.393366e-06
8.640000e+02 3.619329e-06
8.650000e+02 3.859737e-06
8.660000e+02 4.115476e-06
8.670000e+02 4.387481e-06
8.680000e+02 4.676742e-06
8.690000e+02 4.984309e-06
8.700000e+02 5.311290e-06
8.710000e+02 5.658858e-06
8.720000e+02 6.028255e-06
8.730000e+02 6.420794e-06
8.740000e+02 6.837860e-06
8.750000e+02 7.280923e-06
8.760000e+02 7.751532e-06
8.770000e+02 8.251328e-06
8.780000e+02 8.782041e-06
8.790000e+02 9.345504e-06
8.800000e+02 9.943647e-06
8.810000e+02 1.057852e-05
8.820000e+02 1.125227e-05
8.830000e+02 1.196718e-05
8.840000e+02 1.272566e-05
8.850000e+02 1.353025e-05
8.860000e+02 1.438363e-05
8.870000e+02 1.528862e-05
8.880000e+02 1.624822e-05
8.890000e+02 1.726557e-05
8.900000e+02 1.834400e-05
8.910000e+02 1.948702e-05
8.920000e+02 2.069833e-05
8.930000e+02 2.198182e-05
8.940000e+02 2.334162e-05
8.950000e+02 2.478205e-05
8.960000e+02 2.630769e-05
8.970000e+02 2.792336e-05
8.980000e+02 2.963414e-05
8.990000e+02 3.144538e-05
9.000000e+02 3.336271e-05
9.010000e+02 3.539209e-05
9.020000e+02 3.753976e-05
9.030000e+02 3.981231e-05
9.040000e+02 4.221669e-05
9.050000e+02 4.476021e-05
9.060000e+02 4.745055e-05
9.070000e+02 5.029581e-05
9.080000e+02 5.330453e-05
9.090000e+02 5.648566e-05
9.100000e+02 5.984865e-05
9.110000e+02 6.340343e-05
9.120000e+02 6.716045e-05
9.130000e+02 7.113069e-05
9.140000e+02 7.588230e-05
9.150000e+02 8.472778e-03
9.160000e+02 3.937969e-02
9.170000e+02 2.713482e-03
9.180000e+02 1.096636e-02
9.190000e+02 9.763174e-02
9.200000e+02 2.271351e-01
9.210000e+02 1.120887e-04
9.220000e+02 1.015390e-01
9.230000e+02 2.403110e-03
9.240000e+02 5.603015e-03
9.250000e+02 2.584090e-02
9.260000e+02 1.476034e-02
9.270000e+02 4.066541e-03
9.280000e+02 8.405003e-01
9.290000e+02 9.032989e-01
9.300000e+02 2.743064e-01
9.310000e+02 3.304215e-03
9.320000e+02 7.702390e-01
9.330000e+02 1.122845e-01
9.340000e+02 4.208601e-02
9.350000e+02 5.112311e-03
9.360000e+02 8.410750e-03
9.370000e+02 1.608394e-03
9.380000e+02 3.665246e-03
9.390000e+02 1.718963e-02
9.400000e+02 6.836845e-01
9.410000e+02 1.230963e-01
9.420000e+02 2.328151e+00
9.430000e+02 2.593756e-02
9.440000e+02 2.584718e+00
9.450000e+02 2.378081e+00
9.460000e+02 3.118341e-01
9.470000e+02 2.253979e-03
9.480000e+02 9.835685e-01
9.490000e+02 1.606447e-01
9.500000e+02 4.980795e-03
9.510000e+02 1.989580e-01
9.520000e+02 4.093455e-01
9.530000e+02 6.974544e-03
9.540000e+02 2.628491e-03
9.550000e+02 6.934381e-02
9.560000e+02 3.291708e+00
9.570000e+02 3.411058e-02
9.580000e+02 1.452811e-03
9.590000e+02 2.360614e+00
9.600000e+02 9.101376e-03
9.610000e+02 3.680410e-01
9.620000e+02 1.496496e-01
9.630000e+02 5.901885e-02
9.640000e+02 3.720999e-03
9.650000e+02 5.913734e-03
9.660000e+02 7.561398e-02
9.670000e+02 1.858497e-02
9.680000e+02 1.207280e-02
9.690000e+02 3.383477e-01
9.700000e+02 2.750469e-01
9.710000e+02 2.203230e-02
9.720000e+02 1.366358e-02
9.730000e+02 3.972890e-02
9.740000e+02 3.021446e-01
9.750000e+02 1.253711e-01
9.760000e+02 1.997908e+00
9.770000e+02 1.203127e+00
9.780000e+02 4.579744e-01
9.790000e+02 8.916981e+00
9.800000e+02 9.106934e+00
9.810000e+02 4.098449e-01
9.820000e+02 8.950949e-02
9.830000e+02 6.084589e+00
9.840000e+02 5.663592e-01
9.850000e+02 2.251377e-01
9.860000e+02 3.079807e-01
9.870000e+02 7.365536e+00
9.880000e+02 1.415348e-02
9.890000e+02 1.420532e+00
9.900000e+02 1.180074e+00
9.910000e+02 7.399818e-02
9.920000e+02 6.861743e-03
9.930000e+02 1.638534e+01
9.940000e+02 7.975817e-03
9.950000e+02 1.405312e+00
9.960000e+02 3.676605e-02
9.970000e+02 1.186907e+00
9.980000e+02 3.774651e+00
9.990000e+02 1.405049e-01
1.000000e+03 2.362083e+01
1.001000e+03 2.112239e+01
1.002000e+03 1.599668e+01
1.003000e+03 1.724348e-01
1.004000e+03 2.547073e-02
1.005000e+03 4.247780e-01
1.006000e+03 1.205785e+01
1.007000e+03 1.980409e+01
1.008000e+03 6.632201e+00
1.009000e+03 2.645738e-01
1.010000e+03 7.274785e+00
1.011000e+03 1.337327e+01
1.012000e+03 8.279845e+00
1.013000e+03 7.186169e+00
1.014000e+03 1.796722e-02
1.015000e+03 3.658199e-02
1.016000e+03 4.710550e-01
1.017000e+03 1.872826e-02
1.018000e+03 2.676630e-01
1.019000e+03 3.792191e-02
1.020000e+03 1.719359e+01
1.021000e+03 3.045816e-01
1.022000e+03 4.614029e-01
1.023000e+03 6.141949e-02
1.024000e+03 2.916421e+00
1.025000e+03 2.406189e-02
1.026000e+03 3.386984e-02
1.027000e+03 9.702843e-01
1.028000e+03 1.421752e-01
1.029000e+03 3.349590e-02
1.030000e+03 2.142460e+00
1.031000e+03 2.209354e+00
1.032000e+03 2.014756e+01
1.033000e+03 1.067455e+00
1.034000e+03 3.812667e+00
1.035000e+03 1.001015e-01
1.036000e+03 5.043507e-02
1.037000e+03 1.855271e+01
1.038000e+03 8.317914e+01
1.039000e+03 2.045425e+01
1.040000e+03 2.568012e+01
1.041000e+03 1.250692e+02
1.042000e+03 6.267491e+01
1.043000e+03 5.874617e+01
1.044000e+03 1.963445e+02
1.045000e+03 9.697479e-02
1.046000e+03 3.097739e+01
1.047000e+03 6.896332e+00
1.048000e+03 3.448238e-01
1.049000e+03 8.923640e+00
1.050000e+03 3.680214e+00
1.051000e+03 2.109367e+00
1.052000e+03 6.642295e+01
1.053000e+03 1.432150e+02
1.054000e+03 9.654236e-02
1.055000e+03 1.780601e+02
1.056000e+03 1.827753e+02
1.057000e+03 1.755349e+01
1.058000e+03 2.515900e+00
1.059000e+03 1.059830e+00
1.060000e+03 5.340805e-01
1.061000e+03 2.548807e+01
1.062000e+03 1.423391e+00
1.063000e+03 2.041388e+01
1.064000e+03 1.780396e-01
1.065000e+03 1.564178e-01
1.066000e+03 3.481595e+01
1.067000e+03 1.130256e+00
1.068000e+03 3.625763e+02
1.069000e+03 4.309295e-01
1.070000e+03 1.548718e+01
1.071000e+03 1.744837e+02
1.072000e+03 2.462170e+02
1.073000e+03 2.589111e-01
1.074000e+03 1.800970e+01
1.075000e+03 1.118335e+01
1.076000e+03 2.829765e+02
1.077000e+03 1.380379e+00
1.078000e+03 3.105591e+00
1.079000e+03 1.103269e+01
1.080000e+03 2.733058e+01
1.081000e+03 7.977045e+01
1.082000e+03 5.483246e+01
1.083000e+03 3.234726e+01
1.084000e+03 5.978957e+02
1.085000e+03 1.067654e+01
1.086000e+03 5.022401e+02
1.087000e+03 2.683105e+00
1.088000e+03 7.738187e+02
1.089000e+03 7.657357e+02
1.090000e+03 8.643120e+00
1.091000e+03 1.061200e+01
1.092000e+03 5.943184e+02
1.093000e+03 6.622328e+02
1.094000e+03 8.668539e+01
1.095000e+03 9.067404e+02
1.096000e+03 1.320328e+02
1.097000e+03 2.033673e+02
1.098000e+03 8.757276e+02
1.099000e+03 3.072729e+01
1.100000e+03 1.423462e+00
1.101000e+03 2.899836e+00
1.102000e+03 1.672548e+01
1.103000e+03 7.819650e+02
1.104000e+03 1.180147e+03
1.105000e+03 9.803213e+02
1.106000e+03 6.970267e+01
1.107000e+03 1.751343e+00
1.108000e+03 3.042958e+02
1.109000e+03 1.049292e+01
1.110000e+03 1.373520e+03
1.111000e+03 7.212975e+02
1.112000e+03 1.653605e+02
1.113000e+03 1.014128e+03
1.114000e+03 1.088536e+02
1.115000e+03 1.566390e+01
1.116000e+03 9.449924e+00
1.117000e+03 7.137020e+02
1.118000e+03 1.625810e+01
1.119000e+03 2.314674e+02
1.120000e+03 1.035443e+01
1.121000e+03 6.163365e+02
1.122000e+03 9.884397e+02
1.123000e+03 1.037613e+03
1.124000e+03 1.135162e+03
1.125000e+03 5.998999e+02
1.126000e+03 2.531472e+03
1.127000e+03 9.663497e+02
1.128000e+03 1.450463e+03
1.129000e+03 4.383104e+02
1.130000e+03 1.412590e+03
1.131000e+03 1.794971e+03
1.132000e+03 1.807822e+01
1.133000e+03 5.577661e+01
1.134000e+03 4.476110e+02
1.135000e+03 9.152000e+02
1.136000e+03 1.245410e+02
1.137000e+03 1.270452e+03
1.138000e+03 4.001420e+02
1.139000e+03 1.949212e+03
1.140000e+03 2.030139e+03
1.141000e+03 1.683760e+03
1.142000e+03 2.232032e+03
1.143000e+03 7.130710e+02
1.144000e+03 2.199981e+03
1.145000e+03 1.020886e+01
1.146000e+03 2.446710e+03
1.147000e+03 2.034143e+03
1.148000e+03 4.546313e+01
1.149000e+03 1.446362e+03
1.150000e+03 9.505218e+02
1.151000e+03 2.463826e+03
1.152000e+03 1.917501e+03
1.153000e+03 2.089855e+03
1.154000e+03 2.520315e+03
1.155000e+03 1.237109e+03
1.156000e+03 2.205997e+03
1.157000e+03 2.425262e+03
1.158000e+03 7.322727e+02
1.159000e+03 2.304195e+03
1.160000e+03 7.034767e+02
1.161000e+03 2.153075e+03
1.162000e+03 1.547052e+02
1.163000e+03 3.803704e+02
1.164000e+03 2.535382e+01
1.165000e+03 1.454023e+03
1.166000e+03 8.913162e+02
1.167000e+03 7.487464e+02
1.168000e+03 2.710760e+03
1.169000e+03 2.806640e+03
1.170000e+03 6.905901e+02
1.171000e+03 1.589988e+03
1.172000e+03 7.992502e+02
1.173000e+03 1.415648e+03
1.174000e+03 4.714594e+01
1.175000e+03 1.842578e+01
1.176000e+03 9.470398e+00
1.177000e+03 3.379468e+03
1.178000e+03 3.311618e+03
1.179000e+03 2.981993e+03
1.180000e+03 1.620433e+03
1.181000e+03 3.089012e+03
1.182000e+03 2.771020e+03
1.183000e+03 1.802269e+03
1.184000e+03 1.546516e+03
1.185000e+03 1.941446e+03
1.186000e+03 1.898292e+02
1.187000e+03 2.308421e+03
1.188000e+03 1.160511e+03
1.189000e+03 2.692050e+03
1.190000e+03 2.653635e+03
1.191000e+03 2.109686e+03
1.192000e+03 2.344389e+03
1.193000e+03 1.683901e+03
1.194000e+03 2.253044e+03
1.195000e+03 2.207128e+03
1.196000e+03 7.481595e+03
1.197000e+03 1.033697e+04
1.198000e+03 4.903213e+02
1.199000e+03 9.863613e+03
1.200000e+03 1.072420e+03
1.201000e+03 8.702217e+03
1.202000e+03 3.407464e+03
1.203000e+03 6.894451e+03
1.204000e+03 9.447966e+02
1.205000e+03 5.366923e+03
1.206000e+03 5.255891e+03
1.207000e+03 1.556498e+03
1.208000e+03 3.387053e+03
1.209000e+03 2.984308e+03
1.210000e+03 3.373157e+01
1.211000e+03 1.445861e+03
1.212000e+03 7.355470e+02
1.213000e+03 4.209325e+02
1.214000e+03 1.447597e+02
1.215000e+03 3.431573e+01
1.216000e+03 2.775639e+01
1.217000e+03 9.681951e+01
1.218000e+03 3.510424e+02
1.219000e+03 8.213796e+02
1.220000e+03 7.664333e+02
1.221000e+03 2.516920e+03
1.222000e+03 3.242322e+03
1.223000e+03 3.777061e+03
1.224000e+03 6.132421e+03
1.225000e+03 6.600347e+02
1.226000e+03 9.830255e+03
1.227000e+03 1.106229e+04
1.228000e+03 2.916254e+03
1.229000e+03 1.115925e+04
1.230000e+03 8.879238e+03
1.231000e+03 2.110727e+03
1.232000e+03 1.960688e+04
1.233000e+03 2.147704e+04
1.234000e+03 1.905800e+04
1.235000e+03 2.129654e+04
1.236000e+03 4.225483e+03
1.237000e+03 2.582991e+04
1.238000e+03 2.396875e+04
1.239000e+03 1.720878e+04
1.240000e+03 1.746992e+04
1.241000e+03 1.638699e+04
1.242000e+03 2.528099e+04
1.243000e+03 3.249213e+04
1.244000e+03 3.474491e+04
1.245000e+03 3.273235e+04
1.246000e+03 2.641968e+04
1.247000e+03 3.099755e+04
1.248000e+03 3.314493e+04
1.249000e+03 4.068246e+04
1.250000e+03 2.989042e+04
1.251000e+03 4.153967e+04
1.252000e+03 3.568245e+04
1.253000e+03 4.372554e+04
1.254000e+03 3.831390e+04
1.255000e+03 2.531673e+04
1.256000e+03 3.466613e+04
1.257000e+03 3.712867e+04
1.258000e+03 2.349839e+04
1.259000e+03 3.295099e+04
1.260000e+03 4.829375e+04
1.261000e+03 5.119395e+03
1.262000e+03 5.180151e+04
1.263000e+03 4.686587e+04
1.264000e+03 2.960148e+04
1.265000e+03 2.419625e+03
1.266000e+03 5.397543e+04
1.267000e+03 3.814980e+04
