# wavelength_A flux
5.000000e+02 2.441723e-39
5.010000e+02 3.143341e-39
5.020000e+02 4.042539e-39
5.030000e+02 5.193820e-39
5.040000e+02 6.666659e-39
5.050000e+02 2.543210e-38
5.060000e+02 3.240761e-38
5.070000e+02 4.126236e-38
5.080000e+02 5.248309e-38
5.090000e+02 6.669446e-38
5.100000e+02 8.467685e-38
5.110000e+02 1.074144e-37
5.120000e+02 1.361323e-37
5.130000e+02 1.723747e-37
5.140000e+02 2.180731e-37
5.150000e+02 2.756365e-37
5.160000e+02 3.481452e-37
5.170000e+02 4.392572e-37
5.180000e+02 5.538080e-37
5.190000e+02 6.975830e-37
5.200000e+02 8.779206e-37
5.210000e+02 1.103851e-36
5.220000e+02 1.380356e-36
5.230000e+02 1.740714e-36
5.240000e+02 2.184081e-36
5.250000e+02 2.737670e-36
5.260000e+02 3.428252e-36
5.270000e+02 4.289480e-36
5.280000e+02 5.362679e-36
5.290000e+02 6.695671e-36
5.300000e+02 8.358542e-36
5.310000e+02 1.042692e-35
5.320000e+02 1.299504e-35
5.330000e+02 1.618197e-35
5.340000e+02 2.013313e-35
5.350000e+02 2.502833e-35
5.360000e+02 3.108060e-35
5.370000e+02 2.207163e-35
5.380000e+02 4.785020e-35
5.390000e+02 5.932471e-35
5.400000e+02 7.348148e-35
5.410000e+02 9.086649e-35
5.420000e+02 1.124494e-34
5.430000e+02 1.389478e-34
5.440000e+02 1.715622e-34
5.450000e+02 2.116745e-34
5.460000e+02 2.608833e-34
5.470000e+02 3.215172e-34
5.480000e+02 3.958166e-34
5.490000e+02 4.869326e-34
5.500000e+02 5.986059e-34
5.510000e+02 7.353428e-34
5.520000e+02 9.026687e-34
5.530000e+02 1.107283e-33
5.540000e+02 1.357319e-33
5.550000e+02 1.662647e-33
5.560000e+02 2.035235e-33
5.570000e+02 2.489588e-33
5.580000e+02 3.043269e-33
5.590000e+02 3.717528e-33
5.600000e+02 4.538072e-33
5.610000e+02 5.535961e-33
5.620000e+02 6.748894e-33
5.630000e+02 8.221812e-33
5.640000e+02 1.000949e-32
5.650000e+02 1.217775e-32
5.660000e+02 1.480598e-32
5.670000e+02 1.798943e-32
5.680000e+02 2.184315e-32
5.690000e+02 2.650507e-32
5.700000e+02 3.214111e-32
5.710000e+02 3.895050e-32
5.720000e+02 4.717221e-32
5.730000e+02 5.709458e-32
5.740000e+02 6.905807e-32
5.750000e+02 8.353555e-32
5.760000e+02 1.002295e-31
5.770000e+02 1.218250e-31
5.780000e+02 1.469811e-31
5.790000e+02 1.772212e-31
5.800000e+02 2.135488e-31
5.810000e+02 2.571582e-31
5.820000e+02 3.094570e-31
5.830000e+02 3.720032e-31
5.840000e+02 4.413830e-31
5.850000e+02 5.358515e-31
5.860000e+02 6.452712e-31
5.870000e+02 7.744478e-31
5.880000e+02 9.289735e-31
5.890000e+02 1.113430e-30
5.900000e+02 1.333773e-30
5.910000e+02 1.596717e-30
5.920000e+02 1.910436e-30
5.930000e+02 2.284442e-30
5.940000e+02 2.730101e-30
5.950000e+02 3.260947e-30
5.960000e+02 3.892674e-30
5.970000e+02 4.644163e-30
5.980000e+02 5.537625e-30
5.990000e+02 6.599294e-30
6.000000e+02 7.860202e-30
6.010000e+02 9.349349e-30
6.020000e+02 1.113221e-29
6.030000e+02 1.323727e-29
6.040000e+02 1.573185e-29
6.050000e+02 1.868705e-29
6.060000e+02 2.218465e-29
6.070000e+02 2.632280e-29
6.080000e+02 3.121621e-29
6.090000e+02 3.699968e-29
6.100000e+02 4.383134e-29
6.110000e+02 5.189766e-29
6.120000e+02 6.141606e-29
6.130000e+02 7.264245e-29
6.140000e+02 8.587652e-29
6.150000e+02 1.014729e-28
6.160000e+02 1.198370e-28
6.170000e+02 1.414517e-28
6.180000e+02 1.668800e-28
6.190000e+02 1.967792e-28
6.200000e+02 2.319211e-28
6.210000e+02 2.732010e-28
6.220000e+02 3.216685e-28
6.230000e+02 3.785466e-28
6.240000e+02 4.452641e-28
6.250000e+02 5.234922e-28
6.260000e+02 6.151529e-28
6.270000e+02 7.225109e-28
6.280000e+02 8.481993e-28
6.290000e+02 9.952716e-28
6.300000e+02 1.167187e-27
6.310000e+02 1.344943e-27
6.320000e+02 1.603292e-27
6.330000e+02 1.874490e-27
6.340000e+02 2.198214e-27
6.350000e+02 2.571034e-27
6.360000e+02 3.007784e-27
6.370000e+02 3.516446e-27
6.380000e+02 4.108794e-27
6.390000e+02 4.798723e-27
6.400000e+02 5.601948e-27
6.410000e+02 6.536653e-27
6.420000e+02 7.623892e-27
6.430000e+02 8.887952e-27
6.440000e+02 1.035696e-26
6.450000e+02 1.206319e-26
6.460000e+02 1.404489e-26
6.470000e+02 1.634449e-26
6.480000e+02 1.901226e-26
6.490000e+02 2.210580e-26
6.500000e+02 2.568757e-26
6.510000e+02 2.984563e-26
6.520000e+02 3.465721e-26
6.530000e+02 4.022679e-26
6.540000e+02 4.667153e-26
6.550000e+02 5.412574e-26
6.560000e+02 6.274395e-26
6.570000e+02 7.270088e-26
6.580000e+02 8.420924e-26
6.590000e+02 9.749484e-26
6.600000e+02 1.128294e-25
6.610000e+02 1.305232e-25
6.620000e+02 1.509281e-25
6.630000e+02 1.744514e-25
6.640000e+02 2.015591e-25
6.650000e+02 2.327832e-25
6.660000e+02 2.687371e-25
6.670000e+02 3.101187e-25
6.680000e+02 3.577295e-25
6.690000e+02 4.124849e-25
6.700000e+02 4.754323e-25
6.710000e+02 5.477691e-25
6.720000e+02 6.308632e-25
6.730000e+02 7.262774e-25
6.740000e+02 8.358037e-25
6.750000e+02 9.614639e-25
6.760000e+02 1.105589e-24
6.770000e+02 1.270828e-24
6.780000e+02 1.460203e-24
6.790000e+02 1.677158e-24
6.800000e+02 1.925614e-24
6.810000e+02 2.210040e-24
6.820000e+02 2.535520e-24
6.830000e+02 2.907842e-24
6.840000e+02 3.333589e-24
6.850000e+02 3.820229e-24
6.860000e+02 4.376341e-24
6.870000e+02 5.011565e-24
6.880000e+02 5.736825e-24
6.890000e+02 6.564640e-24
6.900000e+02 7.509171e-24
6.910000e+02 8.586484e-24
6.920000e+02 9.814808e-24
6.930000e+02 1.121481e-23
6.940000e+02 1.280992e-23
6.950000e+02 1.462668e-23
6.960000e+02 1.669517e-23
6.970000e+02 1.904920e-23
6.980000e+02 2.172804e-23
6.990000e+02 2.477482e-23
7.000000e+02 2.823867e-23
7.010000e+02 3.217561e-23
7.020000e+02 3.664871e-23
7.030000e+02 4.172729e-23
7.040000e+02 4.749777e-23
7.050000e+02 5.404519e-23
7.060000e+02 6.147403e-23
7.070000e+02 6.990078e-23
7.080000e+02 7.945535e-23
7.090000e+02 9.028465e-23
7.100000e+02 1.025574e-22
7.110000e+02 1.164584e-22
7.120000e+02 1.322008e-22
7.130000e+02 1.500199e-22
7.140000e+02 1.701847e-22
7.150000e+02 1.929959e-22
7.160000e+02 2.187941e-22
7.170000e+02 2.479584e-22
7.180000e+02 2.809177e-22
7.190000e+02 3.181614e-22
7.200000e+02 3.602231e-22
7.210000e+02 4.077146e-22
7.220000e+02 4.613195e-22
7.230000e+02 5.218058e-22
7.240000e+02 5.900408e-22
7.250000e+02 6.669829e-22
7.260000e+02 7.537107e-22
7.270000e+02 8.514666e-22
7.280000e+02 9.615912e-22
7.290000e+02 1.085619e-21
7.300000e+02 1.225265e-21
7.310000e+02 1.382446e-21
7.320000e+02 1.559310e-21
7.330000e+02 1.758262e-21
7.340000e+02 1.981992e-21
7.350000e+02 2.233520e-21
7.360000e+02 2.516117e-21
7.370000e+02 2.833787e-21
7.380000e+02 3.190507e-21
7.390000e+02 3.591053e-21
7.400000e+02 4.040658e-21
7.410000e+02 4.545243e-21
7.420000e+02 5.111276e-21
7.430000e+02 5.746168e-21
7.440000e+02 6.457973e-21
7.450000e+02 7.255828e-21
7.460000e+02 8.149870e-21
7.470000e+02 9.151410e-21
7.480000e+02 1.027305e-20
7.490000e+02 1.152883e-20
7.500000e+02 1.293439e-20
7.510000e+02 1.450715e-20
7.520000e+02 1.626650e-20
7.530000e+02 1.823403e-20
7.540000e+02 2.043373e-20
7.550000e+02 2.289233e-20
7.560000e+02 2.563955e-20
7.570000e+02 2.870724e-20
7.580000e+02 3.213548e-20
7.590000e+02 3.596155e-20
7.600000e+02 4.023246e-20
7.610000e+02 4.499777e-20
7.620000e+02 5.031372e-20
7.630000e+02 5.624217e-20
7.640000e+02 6.285197e-20
7.650000e+02 7.021925e-20
7.660000e+02 7.842903e-20
7.670000e+02 8.757476e-20
7.680000e+02 9.775975e-20
7.690000e+02 1.073276e-19
7.700000e+02 1.217263e-19
7.710000e+02 1.357751e-19
7.720000e+02 1.514051e-19
7.730000e+02 1.687895e-19
7.740000e+02 1.881203e-19
7.750000e+02 2.096098e-19
7.760000e+02 2.334273e-19
7.770000e+02 2.600298e-19
7.780000e+02 2.895066e-19
7.790000e+02 3.222410e-19
7.800000e+02 3.585839e-19
7.810000e+02 3.989227e-19
7.820000e+02 4.436854e-19
7.830000e+02 4.933448e-19
7.840000e+02 5.484218e-19
7.850000e+02 6.094926e-19
7.860000e+02 6.771906e-19
7.870000e+02 7.522818e-19
7.880000e+02 8.354201e-19
7.890000e+02 9.275136e-19
7.900000e+02 1.029502e-18
7.910000e+02 1.142419e-18
7.920000e+02 1.267407e-18
7.930000e+02 1.405721e-18
7.940000e+02 1.558747e-18
7.950000e+02 1.728003e-18
7.960000e+02 1.915168e-18
7.970000e+02 2.122086e-18
7.980000e+02 2.350788e-18
7.990000e+02 2.603505e-18
8.000000e+02 2.882695e-18
8.010000e+02 3.191046e-18
8.020000e+02 3.531548e-18
8.030000e+02 3.907438e-18
8.040000e+02 4.322307e-18
8.050000e+02 4.780086e-18
8.060000e+02 5.285096e-18
8.070000e+02 5.842080e-18
8.080000e+02 6.456246e-18
8.090000e+02 7.133314e-18
8.100000e+02 7.879525e-18
8.110000e+02 8.701766e-18
8.120000e+02 9.607571e-18
8.130000e+02 1.060521e-17
8.140000e+02 1.170374e-17
8.150000e+02 1.291309e-17
8.160000e+02 1.424413e-17
8.170000e+02 1.570874e-17
8.180000e+02 1.732008e-17
8.190000e+02 1.909231e-17
8.200000e+02 2.104112e-17
8.210000e+02 2.318361e-17
8.220000e+02 2.553851e-17
8.230000e+02 2.812631e-17
8.240000e+02 3.096948e-17
8.250000e+02 3.409236e-17
8.260000e+02 3.752182e-17
8.270000e+02 4.128710e-17
8.280000e+02 4.542020e-17
8.290000e+02 4.995605e-17
8.300000e+02 5.493282e-17
8.310000e+02 6.039219e-17
8.320000e+02 6.637970e-17
8.330000e+02 7.294494e-17
8.340000e+02 8.014214e-17
8.350000e+02 8.788294e-17
8.360000e+02 9.667403e-17
8.370000e+02 1.061444e-16
8.380000e+02 1.165128e-16
8.390000e+02 1.278763e-16
8.400000e+02 1.403130e-16
8.410000e+02 1.539266e-16
8.420000e+02 1.688234e-16
8.430000e+02 1.851271e-16
8.440000e+02 2.029604e-16
8.450000e+02 2.224651e-16
8.460000e+02 2.437934e-16
8.470000e+02 2.671109e-16
8.480000e+02 2.925979e-16
8.490000e+02 3.204507e-16
8.500000e+02 3.508825e-16
8.510000e+02 3.841255e-16
8.520000e+02 4.204311e-16
8.530000e+02 4.600758e-16
8.540000e+02 5.033590e-16
8.550000e+02 5.505992e-16
8.560000e+02 6.021504e-16
8.570000e+02 6.583962e-16
8.580000e+02 7.156745e-16
8.590000e+02 7.866653e-16
8.600000e+02 8.596294e-16
8.610000e+02 9.391738e-16
8.620000e+02 1.025875e-15
8.630000e+02 1.120357e-15
8.640000e+02 1.223301e-15
8.650000e+02 1.335331e-15
8.660000e+02 1.457579e-15
8.670000e+02 1.590575e-15
8.680000e+02 1.735366e-15
8.690000e+02 1.892970e-15
8.700000e+02 2.064488e-15
8.710000e+02 2.251112e-15
8.720000e+02 2.454134e-15
8.730000e+02 2.674952e-15
8.740000e+02 2.915082e-15
8.750000e+02 3.176163e-15
8.760000e+02 3.459968e-15
8.770000e+02 3.768407e-15
8.780000e+02 4.103594e-15
8.790000e+02 4.467738e-15
8.800000e+02 4.863280e-15
8.810000e+02 5.292849e-15
8.820000e+02 5.759287e-15
8.830000e+02 6.265634e-15
8.840000e+02 6.815299e-15
8.850000e+02 7.411777e-15
8.860000e+02 8.058972e-15
8.870000e+02 8.761069e-15
8.880000e+02 9.522587e-15
8.890000e+02 1.034840e-14
8.900000e+02 1.124379e-14
8.910000e+02 1.221443e-14
8.920000e+02 1.326528e-14
8.930000e+02 1.440649e-14
8.940000e+02 1.564168e-14
8.950000e+02 1.697973e-14
8.960000e+02 1.842893e-14
8.970000e+02 1.999825e-14
8.980000e+02 2.169736e-14
8.990000e+02 2.353664e-14
9.000000e+02 2.552732e-14
9.010000e+02 2.768148e-14
9.020000e+02 3.001212e-14
9.030000e+02 3.253256e-14
9.040000e+02 3.526014e-14
9.050000e+02 3.819162e-14
9.060000e+02 4.139706e-14
9.070000e+02 4.484268e-14
9.080000e+02 4.856835e-14
9.090000e+02 5.259361e-14
9.100000e+02 5.694270e-14
9.110000e+02 6.164271e-14
9.120000e+02 6.673938e-14
9.130000e+02 6.240472e-14
9.140000e+02 4.547474e-13
9.150000e+02 1.096106e-05
9.160000e+02 1.686738e-05
9.170000e+02 1.766260e-05
9.180000e+02 1.840122e-05
9.190000e+02 1.940223e-05
9.200000e+02 2.032719e-05
9.210000e+02 1.227907e-13
9.220000e+02 2.217531e-05
9.230000e+02 2.267963e-05
9.240000e+02 2.286363e-05
9.250000e+02 2.381401e-05
9.260000e+02 2.595513e-05
9.270000e+02 2.772280e-05
9.280000e+02 2.922555e-05
9.290000e+02 1.134593e-05
9.300000e+02 2.948953e-05
9.310000e+02 3.123158e-05
9.320000e+02 3.499973e-05
9.330000e+02 3.655533e-05
9.340000e+02 3.728777e-05
9.350000e+02 3.103651e-09
9.360000e+02 1.439772e-05
9.370000e+02 7.645014e-10
9.380000e+02 1.453160e-07
9.390000e+02 2.463263e-05
9.400000e+02 4.869582e-05
9.410000e+02 1.829140e-08
9.420000e+02 5.295298e-05
9.430000e+02 3.764376e-05
9.440000e+02 4.299013e-05
9.450000e+02 5.963679e-05
9.460000e+02 6.009770e-05
9.470000e+02 1.302924e-07
9.480000e+02 6.435168e-07
9.490000e+02 6.443320e-05
9.500000e+02 8.976713e-10
9.510000e+02 7.201455e-05
9.520000e+02 7.857549e-05
9.530000e+02 1.198881e-05
9.540000e+02 4.951798e-07
9.550000e+02 6.064354e-05
9.560000e+02 1.794579e-07
9.570000e+02 1.159053e-06
9.580000e+02 6.629125e-08
9.590000e+02 1.163731e-04
9.600000e+02 3.587047e-09
9.610000e+02 1.204740e-04
9.620000e+02 1.191647e-04
9.630000e+02 6.373008e-05
9.640000e+02 1.222361e-09
9.650000e+02 1.169348e-06
9.660000e+02 1.099787e-04
9.670000e+02 2.953857e-05
9.680000e+02 1.524372e-05
9.690000e+02 1.502639e-04
9.700000e+02 1.650138e-04
9.710000e+02 3.930428e-05
9.720000e+02 1.079118e-05
9.730000e+02 6.581520e-05
9.740000e+02 1.614527e-04
9.750000e+02 1.464175e-04
9.760000e+02 2.448970e-04
9.770000e+02 2.569395e-04
9.780000e+02 2.471995e-04
9.790000e+02 2.912234e-04
9.800000e+02 3.033027e-04
9.810000e+02 2.897362e-04
9.820000e+02 2.014564e-04
9.830000e+02 3.501107e-04
9.840000e+02 1.745796e-06
9.850000e+02 8.861183e-05
9.860000e+02 2.388375e-04
9.870000e+02 4.268289e-04
9.880000e+02 1.940673e-06
9.890000e+02 3.742228e-04
9.900000e+02 1.408746e-06
9.910000e+02 9.915510e-05
9.920000e+02 2.184979e-07
9.930000e+02 2.585113e-04
9.940000e+02 2.270099e-09
9.950000e+02 3.656574e-06
9.960000e+02 1.257384e-05
9.970000e+02 1.811713e-08
9.980000e+02 6.400978e-04
9.990000e+02 5.315916e-05
1.000000e+03 6.258077e-04
1.001000e+03 8.784684e-04
1.002000e+03 9.212643e-04
1.003000e+03 3.844922e-04
1.004000e+03 4.032190e-06
1.005000e+03 7.204721e-04
1.006000e+03 1.121416e-03
1.007000e+03 1.172873e-03
1.008000e+03 1.182374e-03
1.009000e+03 3.265142e-04
1.010000e+03 1.350276e-03
1.011000e+03 1.423895e-03
1.012000e+03 1.484839e-03
1.013000e+03 1.555496e-03
1.014000e+03 6.952323e-07
1.015000e+03 4.479080e-06
1.016000e+03 7.933484e-04
1.017000e+03 6.640330e-07
1.018000e+03 7.668032e-04
1.019000e+03 6.454764e-06
1.020000e+03 2.031457e-03
1.021000e+03 2.247863e-06
1.022000e+03 2.491819e-04
1.023000e+03 2.762990e-05
1.024000e+03 5.192995e-05
1.025000e+03 4.816366e-07
1.026000e+03 1.324464e-06
1.027000e+03 1.407167e-04
1.028000e+03 1.585577e-07
1.029000e+03 1.273816e-06
1.030000e+03 1.620447e-03
1.031000e+03 2.869340e-03
1.032000e+03 1.375786e-03
1.033000e+03 3.111083e-06
1.034000e+03 3.256943e-03
1.035000e+03 5.960464e-08
1.036000e+03 3.401190e-06
1.037000e+03 4.585260e-03
1.038000e+03 4.913341e-03
1.039000e+03 4.641647e-03
1.040000e+03 5.352984e-03
1.041000e+03 3.910567e-03
1.042000e+03 5.890767e-03
1.043000e+03 2.920670e-03
1.044000e+03 6.457561e-03
1.045000e+03 6.586011e-03
1.046000e+03 6.875549e-03
1.047000e+03 6.453926e-03
1.048000e+03 5.010008e-04
1.049000e+03 5.962972e-03
1.050000e+03 5.088044e-03
1.051000e+03 3.360027e-03
1.052000e+03 9.013768e-03
1.053000e+03 9.491727e-03
1.054000e+03 5.526468e-06
1.055000e+03 1.039498e-03
1.056000e+03 1.084979e-02
1.057000e+03 1.034408e-02
1.058000e+03 6.556324e-03
1.059000e+03 4.633238e-03
1.060000e+03 4.001157e-04
1.061000e+03 1.315256e-02
1.062000e+03 4.665280e-03
1.063000e+03 9.461473e-07
1.064000e+03 7.823110e-08
1.065000e+03 1.033209e-05
1.066000e+03 4.125386e-05
1.067000e+03 7.033652e-04
1.068000e+03 1.801918e-02
1.069000e+03 3.108429e-04
1.070000e+03 1.681272e-02
1.071000e+03 2.028614e-02
1.072000e+03 2.118263e-02
1.073000e+03 3.303215e-05
1.074000e+03 2.127489e-02
1.075000e+03 2.109548e-02
1.076000e+03 1.266954e-02
1.077000e+03 7.573515e-06
1.078000e+03 1.086529e-02
1.079000e+03 2.223119e-02
1.080000e+03 2.072925e-02
1.081000e+03 2.994747e-02
1.082000e+03 2.969530e-02
1.083000e+03 2.773965e-02
1.084000e+03 2.653414e-02
1.085000e+03 5.976785e-03
1.086000e+03 3.649157e-02
1.087000e+03 8.069504e-03
1.088000e+03 3.817300e-02
1.089000e+03 3.972902e-02
1.090000e+03 2.813906e-02
1.091000e+03 2.825554e-02
1.092000e+03 9.431163e-03
1.093000e+03 4.330979e-02
1.094000e+03 4.355934e-02
1.095000e+03 4.937750e-02
1.096000e+03 5.542636e-04
1.097000e+03 3.519812e-02
1.098000e+03 1.553537e-02
1.099000e+03 4.338532e-02
1.100000e+03 7.450159e-04
1.101000e+03 3.580481e-03
1.102000e+03 4.672084e-02
1.103000e+03 6.825798e-02
1.104000e+03 6.962904e-02
1.105000e+03 6.805987e-02
1.106000e+03 7.054599e-02
1.107000e+03 1.789600e-03
1.108000e+03 7.710691e-02
1.109000e+03 3.350722e-02
1.110000e+03 6.774417e-02
1.111000e+03 8.255725e-02
1.112000e+03 8.506753e-02
1.113000e+03 6.995045e-02
1.114000e+03 6.032501e-02
1.115000e+03 3.805673e-02
1.116000e+03 2.137682e-02
1.117000e+03 8.697750e-02
1.118000e+03 4.679788e-02
1.119000e+03 9.662732e-02
1.120000e+03 3.231147e-02
1.121000e+03 1.024276e-01
1.122000e+03 2.741762e-02
1.123000e+03 1.006181e-01
1.124000e+03 1.091842e-01
1.125000e+03 1.012033e-01
1.126000e+03 1.139054e-01
1.127000e+03 1.142784e-01
1.128000e+03 9.044678e-02
1.129000e+03 1.168858e-01
1.130000e+03 1.052835e-01
1.131000e+03 1.092843e-01
1.132000e+03 7.208325e-03
1.133000e+03 1.020469e-01
1.134000e+03 1.206413e-01
1.135000e+03 3.494769e-04
1.136000e+03 1.163069e-01
1.137000e+03 1.397020e-01
1.138000e+03 1.392564e-01
1.139000e+03 1.452778e-01
1.140000e+03 1.056970e-01
1.141000e+03 1.508747e-01
1.142000e+03 1.537915e-01
1.143000e+03 1.360600e-01
1.144000e+03 1.457105e-01
1.145000e+03 1.319043e-02
1.146000e+03 1.647137e-01
1.147000e+03 1.681293e-01
1.148000e+03 1.140580e-01
1.149000e+03 1.688156e-01
1.150000e+03 1.720544e-01
1.151000e+03 1.818232e-01
1.152000e+03 1.854650e-01
1.153000e+03 1.653536e-01
1.154000e+03 1.821193e-01
1.155000e+03 1.922736e-01
1.156000e+03 3.051609e-02
1.157000e+03 1.938927e-01
1.158000e+03 1.490193e-01
1.159000e+03 2.084281e-01
1.160000e+03 2.108600e-01
1.161000e+03 2.166331e-01
1.162000e+03 1.079368e-01
1.163000e+03 2.105621e-01
1.164000e+03 1.202822e-04
1.165000e+03 2.326328e-01
1.166000e+03 2.380669e-01
1.167000e+03 2.437249e-01
1.168000e+03 2.499265e-01
1.169000e+03 2.319420e-01
1.170000e+03 2.579142e-01
1.171000e+03 2.665131e-01
1.172000e+03 2.722438e-01
1.173000e+03 2.793274e-01
1.174000e+03 8.313462e-02
1.175000e+03 1.433194e-04
1.176000e+03 3.454089e-05
1.177000e+03 3.059568e-01
1.178000e+03 3.103413e-01
1.179000e+03 3.183565e-01
1.180000e+03 3.055570e-01
1.181000e+03 3.264984e-01
1.182000e+03 3.372622e-01
1.183000e+03 3.449466e-01
1.184000e+03 3.440732e-01
1.185000e+03 3.609448e-01
1.186000e+03 2.398902e-01
1.187000e+03 3.657541e-01
1.188000e+03 3.633620e-01
1.189000e+03 3.084188e-01
1.190000e+03 3.836165e-01
1.191000e+03 3.974106e-01
1.192000e+03 3.979825e-01
1.193000e+03 1.507581e-01
1.194000e+03 3.452744e-01
1.195000e+03 4.090740e-01
1.196000e+03 4.116630e-01
1.197000e+03 8.032172e-01
1.198000e+03 6.620229e-01
1.199000e+03 7.558108e-01
1.200000e+03 6.585476e-01
1.201000e+03 7.089635e-01
1.202000e+03 6.818796e-01
1.203000e+03 9.386297e-01
1.204000e+03 7.778192e-01
1.205000e+03 7.543098e-01
1.206000e+03 7.163538e-01
1.207000e+03 1.207739e-02
1.208000e+03 4.409024e-01
1.209000e+03 2.899633e-01
1.210000e+03 2.201051e-04
1.211000e+03 1.035188e-01
1.212000e+03 4.304334e-02
1.213000e+03 1.610502e-02
1.214000e+03 3.947327e-03
1.215000e+03 3.503687e-04
1.216000e+03 6.571451e-05
1.217000e+03 2.263413e-03
1.218000e+03 1.245932e-02
1.219000e+03 3.994415e-02
1.220000e+03 1.038749e-01
1.221000e+03 1.942608e-01
1.222000e+03 3.702274e-01
1.223000e+03 5.276315e-01
1.224000e+03 6.727359e-01
1.225000e+03 8.396423e-01
1.226000e+03 1.206314e+00
1.227000e+03 1.450679e+00
1.228000e+03 1.725600e+00
1.229000e+03 1.966818e+00
1.230000e+03 1.559681e-02
1.231000e+03 1.629641e+00
1.232000e+03 2.536153e+00
1.233000e+03 2.774120e+00
1.234000e+03 1.824274e+00
1.235000e+03 3.132911e+00
1.236000e+03 3.200372e+00
1.237000e+03 3.451308e+00
1.238000e+03 3.603141e+00
1.239000e+03 3.624565e+00
1.240000e+03 2.405851e-01
1.241000e+03 3.598025e+00
1.242000e+03 4.145524e+00
1.243000e+03 4.288898e+00
1.244000e+03 4.403167e+00
1.245000e+03 3.310314e+00
1.246000e+03 4.647546e+00
1.247000e+03 4.721370e+00
1.248000e+03 8.914771e-01
1.249000e+03 5.004234e+00
1.250000e+03 4.355627e+00
1.251000e+03 5.403426e+00
1.252000e+03 5.095186e+00
1.253000e+03 5.684345e+00
1.254000e+03 5.628451e+00
1.255000e+03 1.878017e+00
1.256000e+03 5.865050e+00
1.257000e+03 4.198811e+00
1.258000e+03 5.357160e+00
1.259000e+03 6.649193e+00
1.260000e+03 6.817138e+00
1.261000e+03 1.337805e-01
1.262000e+03 7.192238e+00
1.263000e+03 4.390235e+00
1.264000e+03 7.095813e+00
1.265000e+03 5.166173e-02
1.266000e+03 7.964681e+00
1.267000e+03 8.124251e+00
