# wavelength_A flux
5.000000e+02 1.123877e-06
5.010000e+02 1.264997e-06
5.020000e+02 1.423138e-06
5.030000e+02 1.600269e-06
5.040000e+02 1.798575e-06
5.050000e+02 2.127229e-06
5.060000e+02 2.387868e-06
5.070000e+02 2.679174e-06
5.080000e+02 3.004606e-06
5.090000e+02 3.368126e-06
5.100000e+02 3.773775e-06
5.110000e+02 4.226274e-06
5.120000e+02 4.730859e-06
5.130000e+02 5.293269e-06
5.140000e+02 5.919848e-06
5.150000e+02 6.617523e-06
5.160000e+02 7.394332e-06
5.170000e+02 8.257745e-06
5.180000e+02 9.219616e-06
5.190000e+02 1.028803e-05
5.200000e+02 1.147464e-05
5.210000e+02 1.279315e-05
5.220000e+02 1.425381e-05
5.230000e+02 1.588153e-05
5.240000e+02 1.768344e-05
5.250000e+02 1.968226e-05
5.260000e+02 2.189713e-05
5.270000e+02 2.435035e-05
5.280000e+02 2.706782e-05
5.290000e+02 3.005892e-05
5.300000e+02 3.340297e-05
5.310000e+02 3.708471e-05
5.320000e+02 4.115577e-05
5.330000e+02 4.565482e-05
5.340000e+02 5.062517e-05
5.350000e+02 5.611402e-05
5.360000e+02 6.217229e-05
5.370000e+02 6.703558e-05
5.380000e+02 7.623046e-05
5.390000e+02 8.436659e-05
5.400000e+02 9.332468e-05
5.410000e+02 1.031839e-04
5.420000e+02 1.140720e-04
5.430000e+02 1.260481e-04
5.440000e+02 1.392247e-04
5.450000e+02 1.537203e-04
5.460000e+02 1.696017e-04
5.470000e+02 1.871848e-04
5.480000e+02 2.064408e-04
5.490000e+02 2.275877e-04
5.500000e+02 2.508002e-04
5.510000e+02 2.762950e-04
5.520000e+02 3.042701e-04
5.530000e+02 3.349564e-04
5.540000e+02 3.686027e-04
5.550000e+02 4.054844e-04
5.560000e+02 4.458973e-04
5.570000e+02 4.901635e-04
5.580000e+02 5.386291e-04
5.590000e+02 5.916660e-04
5.600000e+02 6.497178e-04
5.610000e+02 7.132174e-04
5.620000e+02 7.826523e-04
5.630000e+02 8.585518e-04
5.640000e+02 9.414891e-04
5.650000e+02 1.032086e-03
5.660000e+02 1.131020e-03
5.670000e+02 1.239018e-03
5.680000e+02 1.356876e-03
5.690000e+02 1.485449e-03
5.700000e+02 1.625613e-03
5.710000e+02 1.778478e-03
5.720000e+02 1.945077e-03
5.730000e+02 2.126589e-03
5.740000e+02 2.324285e-03
5.750000e+02 2.539625e-03
5.760000e+02 2.773488e-03
5.770000e+02 3.028884e-03
5.780000e+02 3.306213e-03
5.790000e+02 3.607802e-03
5.800000e+02 3.935661e-03
5.810000e+02 4.291967e-03
5.820000e+02 4.679054e-03
5.830000e+02 5.099365e-03
5.840000e+02 5.552447e-03
5.850000e+02 6.050657e-03
5.860000e+02 6.589221e-03
5.870000e+02 7.172651e-03
5.880000e+02 7.805307e-03
5.890000e+02 8.490842e-03
5.900000e+02 9.234281e-03
5.910000e+02 1.003981e-02
5.920000e+02 1.091233e-02
5.930000e+02 1.185719e-02
5.940000e+02 1.288008e-02
5.950000e+02 1.398574e-02
5.960000e+02 1.518500e-02
5.970000e+02 1.648067e-02
5.980000e+02 1.788177e-02
5.990000e+02 1.939639e-02
6.000000e+02 2.103340e-02
6.010000e+02 2.280209e-02
6.020000e+02 2.471267e-02
6.030000e+02 2.677581e-02
6.040000e+02 2.900310e-02
6.050000e+02 3.140704e-02
6.060000e+02 3.400056e-02
6.070000e+02 3.679754e-02
6.080000e+02 3.981482e-02
6.090000e+02 4.306780e-02
6.100000e+02 4.657399e-02
6.110000e+02 5.035191e-02
6.120000e+02 5.442197e-02
6.130000e+02 5.880534e-02
6.140000e+02 6.352498e-02
6.150000e+02 6.860548e-02
6.160000e+02 7.407283e-02
6.170000e+02 7.995506e-02
6.180000e+02 8.628204e-02
6.190000e+02 9.308565e-02
6.200000e+02 1.004000e-01
6.210000e+02 1.082614e-01
6.220000e+02 1.167087e-01
6.230000e+02 1.257828e-01
6.240000e+02 1.355240e-01
6.250000e+02 1.459884e-01
6.260000e+02 1.572215e-01
6.270000e+02 1.692769e-01
6.280000e+02 1.822118e-01
6.290000e+02 1.960866e-01
6.300000e+02 2.109668e-01
6.310000e+02 2.269199e-01
6.320000e+02 2.440222e-01
6.330000e+02 2.623489e-01
6.340000e+02 2.819847e-01
6.350000e+02 3.030136e-01
6.360000e+02 3.244910e-01
6.370000e+02 3.496542e-01
6.380000e+02 3.754683e-01
6.390000e+02 4.030938e-01
6.400000e+02 4.326510e-01
6.410000e+02 4.642508e-01
6.420000e+02 4.980619e-01
6.430000e+02 5.342134e-01
6.440000e+02 5.728573e-01
6.450000e+02 6.141552e-01
6.460000e+02 6.582850e-01
6.470000e+02 7.054210e-01
6.480000e+02 7.557682e-01
6.490000e+02 8.095277e-01
6.500000e+02 8.669166e-01
6.510000e+02 9.281685e-01
6.520000e+02 9.935294e-01
6.530000e+02 1.063260e+00
6.540000e+02 1.137636e+00
6.550000e+02 1.216950e+00
6.560000e+02 1.301464e+00
6.570000e+02 1.391568e+00
6.580000e+02 1.487661e+00
6.590000e+02 1.590014e+00
6.600000e+02 1.699048e+00
6.610000e+02 1.815176e+00
6.620000e+02 1.938833e+00
6.630000e+02 2.070478e+00
6.640000e+02 2.210607e+00
6.650000e+02 2.359724e+00
6.660000e+02 2.518386e+00
6.670000e+02 2.687161e+00
6.680000e+02 2.866661e+00
6.690000e+02 3.057528e+00
6.700000e+02 3.260439e+00
6.710000e+02 3.475927e+00
6.720000e+02 3.703329e+00
6.730000e+02 3.948637e+00
6.740000e+02 4.207318e+00
6.750000e+02 4.482059e+00
6.760000e+02 4.773799e+00
6.770000e+02 5.083531e+00
6.780000e+02 5.412300e+00
6.790000e+02 5.761207e+00
6.800000e+02 6.131422e+00
6.810000e+02 6.524168e+00
6.820000e+02 6.940736e+00
6.830000e+02 7.382496e+00
6.840000e+02 7.850875e+00
6.850000e+02 8.347383e+00
6.860000e+02 8.873263e+00
6.870000e+02 9.430716e+00
6.880000e+02 1.002168e+01
6.890000e+02 1.064744e+01
6.900000e+02 1.131028e+01
6.910000e+02 1.201214e+01
6.920000e+02 1.275520e+01
6.930000e+02 1.354175e+01
6.940000e+02 1.437418e+01
6.950000e+02 1.525498e+01
6.960000e+02 1.618690e+01
6.970000e+02 1.717184e+01
6.980000e+02 1.821514e+01
6.990000e+02 1.931748e+01
7.000000e+02 2.048203e+01
7.010000e+02 2.171389e+01
7.020000e+02 2.301579e+01
7.030000e+02 2.439104e+01
7.040000e+02 2.584443e+01
7.050000e+02 2.737965e+01
7.060000e+02 2.900106e+01
7.070000e+02 3.071322e+01
7.080000e+02 3.252089e+01
7.090000e+02 3.442905e+01
7.100000e+02 3.644301e+01
7.110000e+02 3.856825e+01
7.120000e+02 4.081055e+01
7.130000e+02 4.317408e+01
7.140000e+02 4.566887e+01
7.150000e+02 4.829982e+01
7.160000e+02 5.107387e+01
7.170000e+02 5.399806e+01
7.180000e+02 5.707917e+01
7.190000e+02 6.032956e+01
7.200000e+02 6.375275e+01
7.210000e+02 6.735904e+01
7.220000e+02 7.115805e+01
7.230000e+02 7.515929e+01
7.240000e+02 7.937280e+01
7.250000e+02 8.380913e+01
7.260000e+02 8.847542e+01
7.270000e+02 9.339102e+01
7.280000e+02 9.856422e+01
7.290000e+02 1.040077e+02
7.300000e+02 1.097341e+02
7.310000e+02 1.157587e+02
7.320000e+02 1.220948e+02
7.330000e+02 1.287555e+02
7.340000e+02 1.357613e+02
7.350000e+02 1.431263e+02
7.360000e+02 1.508676e+02
7.370000e+02 1.590043e+02
7.380000e+02 1.675541e+02
7.390000e+02 1.765330e+02
7.400000e+02 1.859689e+02
7.410000e+02 1.958810e+02
7.420000e+02 2.062902e+02
7.430000e+02 2.172208e+02
7.440000e+02 2.286967e+02
7.450000e+02 2.407437e+02
7.460000e+02 2.533881e+02
7.470000e+02 2.666579e+02
7.480000e+02 2.805820e+02
7.490000e+02 2.951906e+02
7.500000e+02 3.105151e+02
7.510000e+02 3.265884e+02
7.520000e+02 3.434448e+02
7.530000e+02 3.611200e+02
7.540000e+02 3.796511e+02
7.550000e+02 3.990766e+02
7.560000e+02 4.194379e+02
7.570000e+02 4.407742e+02
7.580000e+02 4.631354e+02
7.590000e+02 4.865593e+02
7.600000e+02 5.111021e+02
7.610000e+02 5.367969e+02
7.620000e+02 5.637169e+02
7.630000e+02 5.919059e+02
7.640000e+02 6.214191e+02
7.650000e+02 6.523165e+02
7.660000e+02 6.846583e+02
7.670000e+02 7.185070e+02
7.680000e+02 7.539221e+02
7.690000e+02 7.909909e+02
7.700000e+02 8.297654e+02
7.710000e+02 8.703246e+02
7.720000e+02 9.127472e+02
7.730000e+02 9.571121e+02
7.740000e+02 1.003502e+03
7.750000e+02 1.052004e+03
7.760000e+02 1.102679e+03
7.770000e+02 1.155705e+03
7.780000e+02 1.211095e+03
7.790000e+02 1.268977e+03
7.800000e+02 1.329456e+03
7.810000e+02 1.392639e+03
7.820000e+02 1.458641e+03
7.830000e+02 1.527580e+03
7.840000e+02 1.599576e+03
7.850000e+02 1.674755e+03
7.860000e+02 1.753250e+03
7.870000e+02 1.835168e+03
7.880000e+02 1.920706e+03
7.890000e+02 2.009983e+03
7.900000e+02 2.103144e+03
7.910000e+02 2.200369e+03
7.920000e+02 2.301803e+03
7.930000e+02 2.407620e+03
7.940000e+02 2.517994e+03
7.950000e+02 2.633115e+03
7.960000e+02 2.753170e+03
7.970000e+02 2.878355e+03
7.980000e+02 3.008869e+03
7.990000e+02 3.144939e+03
8.000000e+02 3.286769e+03
8.010000e+02 3.434592e+03
8.020000e+02 3.588644e+03
8.030000e+02 3.749164e+03
8.040000e+02 3.916416e+03
8.050000e+02 4.090652e+03
8.060000e+02 4.272147e+03
8.070000e+02 4.461183e+03
8.080000e+02 4.658050e+03
8.090000e+02 4.863043e+03
8.100000e+02 5.076488e+03
8.110000e+02 5.298700e+03
8.120000e+02 5.529881e+03
8.130000e+02 5.770665e+03
8.140000e+02 6.021232e+03
8.150000e+02 6.281964e+03
8.160000e+02 6.553303e+03
8.170000e+02 6.835569e+03
8.180000e+02 7.129227e+03
8.190000e+02 7.434686e+03
8.200000e+02 7.752376e+03
8.210000e+02 8.082761e+03
8.220000e+02 8.426311e+03
8.230000e+02 8.783506e+03
8.240000e+02 9.154870e+03
8.250000e+02 9.540891e+03
8.260000e+02 9.942138e+03
8.270000e+02 1.035916e+04
8.280000e+02 1.079252e+04
8.290000e+02 1.124282e+04
8.300000e+02 1.171068e+04
8.310000e+02 1.219673e+04
8.320000e+02 1.270162e+04
8.330000e+02 1.322602e+04
8.340000e+02 1.377065e+04
8.350000e+02 1.433241e+04
8.360000e+02 1.492290e+04
8.370000e+02 1.553286e+04
8.380000e+02 1.616585e+04
8.390000e+02 1.682291e+04
8.400000e+02 1.750489e+04
8.410000e+02 1.821262e+04
8.420000e+02 1.894596e+04
8.430000e+02 1.970926e+04
8.440000e+02 2.049999e+04
8.450000e+02 2.132032e+04
8.460000e+02 2.217127e+04
8.470000e+02 2.305391e+04
8.480000e+02 2.396926e+04
8.490000e+02 2.491860e+04
8.500000e+02 2.590296e+04
8.510000e+02 2.692357e+04
8.520000e+02 2.798165e+04
8.530000e+02 2.907852e+04
8.540000e+02 3.021576e+04
8.550000e+02 3.139413e+04
8.560000e+02 3.261535e+04
8.570000e+02 3.388071e+04
8.580000e+02 3.519109e+04
8.590000e+02 3.654960e+04
8.600000e+02 3.795695e+04
8.610000e+02 3.941477e+04
8.620000e+02 4.092472e+04
8.630000e+02 4.248851e+04
8.640000e+02 4.410805e+04
8.650000e+02 4.578499e+04
8.660000e+02 4.752134e+04
8.670000e+02 4.931896e+04
8.680000e+02 5.117988e+04
8.690000e+02 5.310616e+04
8.700000e+02 5.509946e+04
8.710000e+02 5.716331e+04
8.720000e+02 5.929861e+04
8.730000e+02 6.150812e+04
8.740000e+02 6.379418e+04
8.750000e+02 6.615931e+04
8.760000e+02 6.860599e+04
8.770000e+02 7.113666e+04
8.780000e+02 7.375450e+04
8.790000e+02 7.645983e+04
8.800000e+02 7.925938e+04
8.810000e+02 8.215423e+04
8.820000e+02 8.514735e+04
8.830000e+02 8.824185e+04
8.840000e+02 9.144081e+04
8.850000e+02 9.474752e+04
8.860000e+02 9.816545e+04
8.870000e+02 1.016979e+05
8.880000e+02 1.053484e+05
8.890000e+02 1.091206e+05
8.900000e+02 1.130183e+05
8.910000e+02 1.170453e+05
8.920000e+02 1.207522e+05
8.930000e+02 1.255030e+05
8.940000e+02 1.299420e+05
8.950000e+02 1.345267e+05
8.960000e+02 1.392617e+05
8.970000e+02 1.441513e+05
8.980000e+02 1.492002e+05
8.990000e+02 1.544132e+05
9.000000e+02 1.597911e+05
9.010000e+02 1.653470e+05
9.020000e+02 1.710821e+05
9.030000e+02 1.770017e+05
9.040000e+02 1.831063e+05
9.050000e+02 1.894165e+05
9.060000e+02 1.959219e+05
9.070000e+02 2.026326e+05
9.080000e+02 2.095627e+05
9.090000e+02 2.167092e+05
9.100000e+02 2.240815e+05
9.110000e+02 2.316881e+05
9.120000e+02 2.395427e+05
9.130000e+02 2.413728e+05
9.140000e+02 2.631279e+05
9.150000e+02 1.514220e+06
9.160000e+02 1.273088e+07
9.170000e+02 1.812041e+07
9.180000e+02 1.591022e+07
9.190000e+02 2.219437e+07
9.200000e+02 2.366259e+07
9.210000e+02 3.038873e+05
9.220000e+02 2.501746e+07
9.230000e+02 1.948405e+07
9.240000e+02 1.451049e+07
9.250000e+02 2.584799e+07
9.260000e+02 2.418441e+07
9.270000e+02 2.808352e+07
9.280000e+02 2.899564e+07
9.290000e+02 1.683596e+07
9.300000e+02 2.929339e+07
9.310000e+02 2.758588e+07
9.320000e+02 3.194116e+07
9.330000e+02 3.250644e+07
9.340000e+02 3.350727e+07
9.350000e+02 1.079280e+07
9.360000e+02 3.474351e+07
9.370000e+02 7.237806e+06
9.380000e+02 1.933538e+07
9.390000e+02 3.748466e+07
9.400000e+02 3.850937e+07
9.410000e+02 2.924641e+07
9.420000e+02 4.033061e+07
9.430000e+02 4.123356e+07
9.440000e+02 1.936618e+07
9.450000e+02 4.301057e+07
9.460000e+02 4.413436e+07
9.470000e+02 2.191879e+07
9.480000e+02 4.564958e+07
9.490000e+02 4.552478e+07
9.500000e+02 7.625052e+06
9.510000e+02 4.145628e+07
9.520000e+02 5.048484e+07
9.530000e+02 5.147685e+07
9.540000e+02 3.264572e+07
9.550000e+02 5.414611e+07
9.560000e+02 5.576871e+07
9.570000e+02 4.717305e+07
9.580000e+02 5.643159e+07
9.590000e+02 5.964138e+07
9.600000e+02 1.214735e+07
9.610000e+02 6.263850e+07
9.620000e+02 6.327091e+07
9.630000e+02 6.542431e+07
9.640000e+02 1.388740e+06
9.650000e+02 5.263083e+07
9.660000e+02 6.978650e+07
9.670000e+02 7.112145e+07
9.680000e+02 7.086048e+07
9.690000e+02 7.304694e+07
9.700000e+02 7.529138e+07
9.710000e+02 7.506212e+07
9.720000e+02 5.903620e+07
9.730000e+02 5.613332e+07
9.740000e+02 7.896586e+07
9.750000e+02 8.374939e+07
9.760000e+02 8.626513e+07
9.770000e+02 8.819642e+07
9.780000e+02 8.997543e+07
9.790000e+02 9.232830e+07
9.800000e+02 9.435239e+07
9.810000e+02 9.645872e+07
9.820000e+02 9.604067e+07
9.830000e+02 1.004552e+08
9.840000e+02 1.249441e+07
9.850000e+02 1.048865e+08
9.860000e+02 1.070721e+08
9.870000e+02 1.091251e+08
9.880000e+02 1.099788e+08
9.890000e+02 4.285092e+07
9.900000e+02 3.597732e+06
9.910000e+02 1.160899e+08
9.920000e+02 1.124001e+08
9.930000e+02 1.111140e+08
9.940000e+02 1.063924e+07
9.950000e+02 8.341255e+06
9.960000e+02 1.544362e+07
9.970000e+02 1.390393e+07
9.980000e+02 1.355064e+08
9.990000e+02 1.347124e+08
1.000000e+03 1.428620e+08
1.001000e+03 1.457940e+08
1.002000e+03 1.485512e+08
1.003000e+03 1.063310e+08
1.004000e+03 1.547784e+08
1.005000e+03 1.212339e+08
1.006000e+03 1.610722e+08
1.007000e+03 1.643002e+08
1.008000e+03 1.672616e+08
1.009000e+03 1.489406e+08
1.010000e+03 1.741396e+08
1.011000e+03 1.775289e+08
1.012000e+03 1.808196e+08
1.013000e+03 1.844406e+08
1.014000e+03 1.877039e+08
1.015000e+03 1.793524e+08
1.016000e+03 1.940817e+08
1.017000e+03 1.980233e+08
1.018000e+03 2.016620e+08
1.019000e+03 2.047111e+08
1.020000e+03 2.073192e+08
1.021000e+03 1.835728e+08
1.022000e+03 2.049225e+08
1.023000e+03 2.042235e+08
1.024000e+03 1.800264e+08
1.025000e+03 8.705191e+07
1.026000e+03 2.235935e+07
1.027000e+03 1.608128e+08
1.028000e+03 6.010347e+07
1.029000e+03 2.368270e+08
1.030000e+03 2.394631e+08
1.031000e+03 2.575097e+08
1.032000e+03 2.579806e+08
1.033000e+03 1.532227e+08
1.034000e+03 2.771842e+08
1.035000e+03 4.639237e+07
1.036000e+03 2.827034e+08
1.037000e+03 1.171686e+07
1.038000e+03 2.999453e+08
1.039000e+03 3.006049e+08
1.040000e+03 3.127688e+08
1.041000e+03 3.177720e+08
1.042000e+03 2.960031e+08
1.043000e+03 3.278276e+08
1.044000e+03 3.346460e+08
1.045000e+03 3.427794e+08
1.046000e+03 3.501932e+08
1.047000e+03 3.570376e+08
1.048000e+03 3.562382e+08
1.049000e+03 3.669112e+08
1.050000e+03 3.776118e+08
1.051000e+03 3.846040e+08
1.052000e+03 3.917099e+08
1.053000e+03 3.752234e+08
1.054000e+03 4.055507e+08
1.055000e+03 4.135402e+08
1.056000e+03 4.212828e+08
1.057000e+03 4.285307e+08
1.058000e+03 4.365270e+08
1.059000e+03 4.445239e+08
1.060000e+03 4.525515e+08
1.061000e+03 4.608784e+08
1.062000e+03 4.691306e+08
1.063000e+03 3.669758e+08
1.064000e+03 6.315514e+07
1.065000e+03 5.107194e+08
1.066000e+03 5.174794e+08
1.067000e+03 4.640655e+08
1.068000e+03 5.389944e+08
1.069000e+03 5.478112e+08
1.070000e+03 5.327086e+08
1.071000e+03 5.698715e+08
1.072000e+03 5.796538e+08
1.073000e+03 5.895759e+08
1.074000e+03 6.002415e+08
1.075000e+03 6.096485e+08
1.076000e+03 6.215909e+08
1.077000e+03 6.313208e+08
1.078000e+03 6.434225e+08
1.079000e+03 6.465238e+08
1.080000e+03 6.637063e+08
1.081000e+03 6.774687e+08
1.082000e+03 6.878113e+08
1.083000e+03 7.009840e+08
1.084000e+03 4.566722e+08
1.085000e+03 5.736968e+08
1.086000e+03 7.377972e+08
1.087000e+03 7.496207e+08
1.088000e+03 7.554958e+08
1.089000e+03 7.753164e+08
1.090000e+03 7.874080e+08
1.091000e+03 8.016945e+08
1.092000e+03 8.156194e+08
1.093000e+03 8.274543e+08
1.094000e+03 8.437642e+08
1.095000e+03 8.535771e+08
1.096000e+03 8.718936e+08
1.097000e+03 8.687383e+08
1.098000e+03 8.798183e+08
1.099000e+03 9.143657e+08
1.100000e+03 8.986679e+08
1.101000e+03 8.497972e+08
1.102000e+03 2.106287e+09
1.103000e+03 7.592920e+09
1.104000e+03 2.346350e+09
1.105000e+03 9.269596e+08
1.106000e+03 1.909399e+10
1.107000e+03 1.764866e+10
1.108000e+03 1.963025e+10
1.109000e+03 8.286779e+09
1.110000e+03 1.247197e+09
1.111000e+03 2.234776e+09
1.112000e+03 1.745908e+10
1.113000e+03 2.077840e+10
1.114000e+03 6.731653e+08
1.115000e+03 1.959538e+10
1.116000e+03 2.070187e+10
1.117000e+03 6.334157e+08
1.118000e+03 1.761531e+10
1.119000e+03 2.146006e+10
1.120000e+03 2.177190e+10
1.121000e+03 9.936681e+09
1.122000e+03 8.843981e+07
1.123000e+03 2.347593e+09
1.124000e+03 2.246789e+10
1.125000e+03 5.096956e+09
1.126000e+03 2.329103e+10
1.127000e+03 2.087659e+10
1.128000e+03 1.035392e+10
1.129000e+03 2.343974e+10
1.130000e+03 1.190015e+10
1.131000e+03 2.490958e+10
1.132000e+03 2.707415e+08
1.133000e+03 2.323644e+10
1.134000e+03 2.318736e+10
1.135000e+03 1.930465e+08
1.136000e+03 2.477093e+10
1.137000e+03 2.635360e+10
1.138000e+03 2.711950e+10
1.139000e+03 2.650817e+10
1.140000e+03 2.226565e+08
1.141000e+03 2.809340e+10
1.142000e+03 2.300330e+10
1.143000e+03 2.832482e+10
1.144000e+03 2.876053e+10
1.145000e+03 1.666005e+10
1.146000e+03 2.916476e+10
1.147000e+03 2.814329e+10
1.148000e+03 2.861413e+10
1.149000e+03 3.014463e+10
1.150000e+03 2.571491e+10
1.151000e+03 3.004931e+10
1.152000e+03 2.999447e+10
1.153000e+03 4.135117e+09
1.154000e+03 4.056535e+08
1.155000e+03 2.355275e+10
1.156000e+03 1.038565e+10
1.157000e+03 3.247614e+10
1.158000e+03 4.943146e+08
1.159000e+03 2.663684e+10
1.160000e+03 3.317259e+10
1.161000e+03 3.424963e+10
1.162000e+03 1.602755e+09
1.163000e+03 3.123749e+10
1.164000e+03 1.111946e+09
1.165000e+03 3.536710e+10
1.166000e+03 3.371110e+10
1.167000e+03 2.721987e+10
1.168000e+03 3.620643e+10
1.169000e+03 3.420055e+10
1.170000e+03 3.680121e+10
1.171000e+03 3.705145e+10
1.172000e+03 3.118225e+10
1.173000e+03 3.726714e+10
1.174000e+03 3.522514e+10
1.175000e+03 9.907548e+08
1.176000e+03 5.498880e+08
1.177000e+03 3.658659e+10
1.178000e+03 3.029250e+10
1.179000e+03 3.811274e+10
1.180000e+03 2.515891e+10
1.181000e+03 3.535245e+10
1.182000e+03 3.823381e+10
1.183000e+03 3.805927e+10
1.184000e+03 3.805095e+10
1.185000e+03 3.444280e+10
1.186000e+03 3.757497e+10
1.187000e+03 3.732881e+10
1.188000e+03 3.359861e+10
1.189000e+03 4.955566e+08
1.190000e+03 8.080507e+09
1.191000e+03 3.356633e+10
1.192000e+03 3.343418e+10
1.193000e+03 3.339264e+08
1.194000e+03 5.778657e+08
1.195000e+03 1.023226e+10
1.196000e+03 3.021314e+10
1.197000e+03 2.940426e+10
1.198000e+03 2.979049e+10
1.199000e+03 2.784857e+10
1.200000e+03 2.279863e+10
1.201000e+03 2.406068e+10
1.202000e+03 2.323191e+10
1.203000e+03 2.185239e+10
1.204000e+03 1.909219e+10
1.205000e+03 1.712212e+10
1.206000e+03 1.258151e+10
1.207000e+03 9.058136e+09
1.208000e+03 1.014870e+10
1.209000e+03 7.516669e+09
1.210000e+03 1.109701e+09
1.211000e+03 4.220822e+09
1.212000e+03 2.751743e+09
1.213000e+03 1.647524e+09
1.214000e+03 9.248476e+08
1.215000e+03 5.411233e+08
1.216000e+03 4.676980e+08
1.217000e+03 7.958193e+08
1.218000e+03 1.465298e+09
1.219000e+03 2.594718e+09
1.220000e+03 4.210022e+09
1.221000e+03 6.283599e+09
1.222000e+03 8.769354e+09
1.223000e+03 1.162018e+10
1.224000e+03 1.478782e+10
1.225000e+03 1.822794e+10
1.226000e+03 2.169019e+10
1.227000e+03 2.553906e+10
1.228000e+03 2.982096e+10
1.229000e+03 3.385214e+10
1.230000e+03 3.796594e+10
1.231000e+03 4.246880e+10
1.232000e+03 4.684965e+10
1.233000e+03 5.120563e+10
1.234000e+03 2.813041e+10
1.235000e+03 5.966705e+10
1.236000e+03 6.406509e+10
1.237000e+03 6.810581e+10
1.238000e+03 7.240918e+10
1.239000e+03 7.656186e+10
1.240000e+03 7.421046e+10
1.241000e+03 1.171862e+11
1.242000e+03 7.358098e+10
1.243000e+03 1.075029e+11
1.244000e+03 4.659598e+10
1.245000e+03 7.201581e+10
1.246000e+03 1.782187e+11
1.247000e+03 1.990390e+11
1.248000e+03 5.342557e+10
1.249000e+03 6.959409e+10
1.250000e+03 2.359832e+11
1.251000e+03 2.421997e+11
1.252000e+03 2.435499e+11
1.253000e+03 2.753716e+11
1.254000e+03 2.811138e+11
1.255000e+03 2.931528e+11
1.256000e+03 3.036138e+11
1.257000e+03 3.266372e+11
1.258000e+03 3.276835e+11
1.259000e+03 3.005411e+11
1.260000e+03 2.246753e+11
1.261000e+03 1.202441e+09
1.262000e+03 3.266413e+10
1.263000e+03 3.770723e+11
1.264000e+03 3.016713e+11
1.265000e+03 9.518981e+08
1.266000e+03 3.950571e+11
1.267000e+03 4.497419e+11
