# wavelength_A flux
5.000000e+02 2.756673e-08
5.010000e+02 3.126797e-08
5.020000e+02 3.544766e-08
5.030000e+02 4.016525e-08
5.040000e+02 4.548717e-08
5.050000e+02 5.261439e-08
5.060000e+02 5.951786e-08
5.070000e+02 6.729316e-08
5.080000e+02 7.604607e-08
5.090000e+02 8.589706e-08
5.100000e+02 9.697320e-08
5.110000e+02 1.094240e-07
5.120000e+02 1.234127e-07
5.130000e+02 1.391220e-07
5.140000e+02 1.567550e-07
5.150000e+02 1.765362e-07
5.160000e+02 1.987223e-07
5.170000e+02 2.235809e-07
5.180000e+02 2.514469e-07
5.190000e+02 2.826436e-07
5.200000e+02 3.175625e-07
5.210000e+02 3.566291e-07
5.220000e+02 4.002792e-07
5.230000e+02 4.491500e-07
5.240000e+02 5.037103e-07
5.250000e+02 5.646478e-07
5.260000e+02 6.326666e-07
5.270000e+02 7.085610e-07
5.280000e+02 7.932058e-07
5.290000e+02 8.873897e-07
5.300000e+02 9.927173e-07
5.310000e+02 1.109838e-06
5.320000e+02 1.240240e-06
5.330000e+02 1.385358e-06
5.340000e+02 1.546789e-06
5.350000e+02 1.726290e-06
5.360000e+02 1.925789e-06
5.370000e+02 2.123188e-06
5.380000e+02 2.393586e-06
5.390000e+02 2.666869e-06
5.400000e+02 2.970126e-06
5.410000e+02 3.306262e-06
5.420000e+02 3.679338e-06
5.430000e+02 4.092646e-06
5.440000e+02 4.550495e-06
5.450000e+02 5.057515e-06
5.460000e+02 5.617951e-06
5.470000e+02 6.239795e-06
5.480000e+02 6.926689e-06
5.490000e+02 7.686193e-06
5.500000e+02 8.525588e-06
5.510000e+02 9.452961e-06
5.520000e+02 1.047712e-05
5.530000e+02 1.160773e-05
5.540000e+02 1.285540e-05
5.550000e+02 1.423171e-05
5.560000e+02 1.574938e-05
5.570000e+02 1.742225e-05
5.580000e+02 1.926557e-05
5.590000e+02 2.129591e-05
5.600000e+02 2.353147e-05
5.610000e+02 2.599206e-05
5.620000e+02 2.869935e-05
5.630000e+02 3.167701e-05
5.640000e+02 3.495082e-05
5.650000e+02 3.854890e-05
5.660000e+02 4.250223e-05
5.670000e+02 4.684406e-05
5.680000e+02 5.161101e-05
5.690000e+02 5.684285e-05
5.700000e+02 6.258281e-05
5.710000e+02 6.887841e-05
5.720000e+02 7.578067e-05
5.730000e+02 8.334561e-05
5.740000e+02 9.163402e-05
5.750000e+02 1.007134e-04
5.760000e+02 1.106402e-04
5.770000e+02 1.215320e-04
5.780000e+02 1.334355e-04
5.790000e+02 1.464555e-04
5.800000e+02 1.606919e-04
5.810000e+02 1.762534e-04
5.820000e+02 1.932573e-04
5.830000e+02 2.118295e-04
5.840000e+02 2.320536e-04
5.850000e+02 2.542436e-04
5.860000e+02 2.784237e-04
5.870000e+02 3.047891e-04
5.880000e+02 3.335427e-04
5.890000e+02 3.648859e-04
5.900000e+02 3.990594e-04
5.910000e+02 4.362880e-04
5.920000e+02 4.768407e-04
5.930000e+02 5.209987e-04
5.940000e+02 5.690685e-04
5.950000e+02 6.213615e-04
5.960000e+02 6.782922e-04
5.970000e+02 7.401889e-04
5.980000e+02 8.074873e-04
5.990000e+02 8.806368e-04
6.000000e+02 9.601224e-04
6.010000e+02 1.046360e-03
6.020000e+02 1.140236e-03
6.030000e+02 1.242036e-03
6.040000e+02 1.352526e-03
6.050000e+02 1.472410e-03
6.060000e+02 1.602447e-03
6.070000e+02 1.743461e-03
6.080000e+02 1.896333e-03
6.090000e+02 2.062015e-03
6.100000e+02 2.241525e-03
6.110000e+02 2.435971e-03
6.120000e+02 2.646528e-03
6.130000e+02 2.874470e-03
6.140000e+02 3.121165e-03
6.150000e+02 3.388082e-03
6.160000e+02 3.676798e-03
6.170000e+02 3.989010e-03
6.180000e+02 4.326537e-03
6.190000e+02 4.691332e-03
6.200000e+02 5.085495e-03
6.210000e+02 5.511273e-03
6.220000e+02 5.971081e-03
6.230000e+02 6.467506e-03
6.240000e+02 7.003324e-03
6.250000e+02 7.581508e-03
6.260000e+02 8.205245e-03
6.270000e+02 8.877950e-03
6.280000e+02 9.603279e-03
6.290000e+02 1.038512e-02
6.300000e+02 1.122772e-02
6.310000e+02 1.213528e-02
6.320000e+02 1.311336e-02
6.330000e+02 1.416632e-02
6.340000e+02 1.529996e-02
6.350000e+02 1.652008e-02
6.360000e+02 1.781264e-02
6.370000e+02 1.924538e-02
6.380000e+02 2.076444e-02
6.390000e+02 2.239781e-02
6.400000e+02 2.415366e-02
6.410000e+02 2.604071e-02
6.420000e+02 2.806829e-02
6.430000e+02 3.024635e-02
6.440000e+02 3.258546e-02
6.450000e+02 3.509694e-02
6.460000e+02 3.779285e-02
6.470000e+02 4.068605e-02
6.480000e+02 4.379035e-02
6.490000e+02 4.712024e-02
6.500000e+02 5.069122e-02
6.510000e+02 5.452008e-02
6.520000e+02 5.862440e-02
6.530000e+02 6.302296e-02
6.540000e+02 6.773578e-02
6.550000e+02 7.278416e-02
6.560000e+02 7.819079e-02
6.570000e+02 8.397825e-02
6.580000e+02 9.017680e-02
6.590000e+02 9.680910e-02
6.600000e+02 1.039054e-01
6.610000e+02 1.114974e-01
6.620000e+02 1.196169e-01
6.630000e+02 1.282991e-01
6.640000e+02 1.375810e-01
6.650000e+02 1.475014e-01
6.660000e+02 1.581031e-01
6.670000e+02 1.694293e-01
6.680000e+02 1.815273e-01
6.690000e+02 1.944469e-01
6.700000e+02 2.082406e-01
6.710000e+02 2.229653e-01
6.720000e+02 2.386787e-01
6.730000e+02 2.554482e-01
6.740000e+02 2.733361e-01
6.750000e+02 2.924150e-01
6.760000e+02 3.127598e-01
6.770000e+02 3.344501e-01
6.780000e+02 3.575701e-01
6.790000e+02 3.822091e-01
6.800000e+02 4.084616e-01
6.810000e+02 4.364268e-01
6.820000e+02 4.662120e-01
6.830000e+02 4.979285e-01
6.840000e+02 5.316948e-01
6.850000e+02 5.676345e-01
6.860000e+02 6.058856e-01
6.870000e+02 6.465790e-01
6.880000e+02 6.898761e-01
6.890000e+02 7.359205e-01
6.900000e+02 7.848846e-01
6.910000e+02 8.369428e-01
6.920000e+02 8.922786e-01
6.930000e+02 9.510877e-01
6.940000e+02 1.013576e+00
6.950000e+02 1.079961e+00
6.960000e+02 1.150473e+00
6.970000e+02 1.225339e+00
6.980000e+02 1.304861e+00
6.990000e+02 1.389260e+00
7.000000e+02 1.478841e+00
7.010000e+02 1.573902e+00
7.020000e+02 1.674757e+00
7.030000e+02 1.781745e+00
7.040000e+02 1.895215e+00
7.050000e+02 2.015540e+00
7.060000e+02 2.143107e+00
7.070000e+02 2.278334e+00
7.080000e+02 2.421643e+00
7.090000e+02 2.573495e+00
7.100000e+02 2.734397e+00
7.110000e+02 2.904823e+00
7.120000e+02 3.085318e+00
7.130000e+02 3.276437e+00
7.140000e+02 3.478781e+00
7.150000e+02 3.692966e+00
7.160000e+02 3.919650e+00
7.170000e+02 4.159502e+00
7.180000e+02 4.413234e+00
7.190000e+02 4.681729e+00
7.200000e+02 4.965637e+00
7.210000e+02 5.265852e+00
7.220000e+02 5.583257e+00
7.230000e+02 5.918781e+00
7.240000e+02 6.273394e+00
7.250000e+02 6.648110e+00
7.260000e+02 7.044032e+00
7.270000e+02 7.462287e+00
7.280000e+02 7.904046e+00
7.290000e+02 8.370559e+00
7.300000e+02 8.863132e+00
7.310000e+02 9.383138e+00
7.320000e+02 9.932014e+00
7.330000e+02 1.051127e+01
7.340000e+02 1.112250e+01
7.350000e+02 1.176734e+01
7.360000e+02 1.244755e+01
7.370000e+02 1.316497e+01
7.380000e+02 1.392149e+01
7.390000e+02 1.471913e+01
7.400000e+02 1.555992e+01
7.410000e+02 1.644626e+01
7.420000e+02 1.738014e+01
7.430000e+02 1.836437e+01
7.440000e+02 1.940121e+01
7.450000e+02 2.049339e+01
7.460000e+02 2.164368e+01
7.470000e+02 2.285500e+01
7.480000e+02 2.413038e+01
7.490000e+02 2.547303e+01
7.500000e+02 2.688625e+01
7.510000e+02 2.837356e+01
7.520000e+02 2.993861e+01
7.530000e+02 3.158514e+01
7.540000e+02 3.331727e+01
7.550000e+02 3.513911e+01
7.560000e+02 3.705505e+01
7.570000e+02 3.906872e+01
7.580000e+02 4.118764e+01
7.590000e+02 4.341388e+01
7.600000e+02 4.575407e+01
7.610000e+02 4.821323e+01
7.620000e+02 5.079714e+01
7.630000e+02 5.351172e+01
7.640000e+02 5.636321e+01
7.650000e+02 5.935807e+01
7.660000e+02 6.250315e+01
7.670000e+02 6.580544e+01
7.680000e+02 6.927199e+01
7.690000e+02 7.291154e+01
7.700000e+02 7.673097e+01
7.710000e+02 8.073925e+01
7.720000e+02 8.494502e+01
7.730000e+02 8.935738e+01
7.740000e+02 9.398588e+01
7.750000e+02 9.884043e+01
7.760000e+02 1.039207e+02
7.770000e+02 1.092696e+02
7.780000e+02 1.148662e+02
7.790000e+02 1.207330e+02
7.800000e+02 1.268823e+02
7.810000e+02 1.333267e+02
7.820000e+02 1.400796e+02
7.830000e+02 1.471546e+02
7.840000e+02 1.545666e+02
7.850000e+02 1.623301e+02
7.860000e+02 1.704608e+02
7.870000e+02 1.789759e+02
7.880000e+02 1.878910e+02
7.890000e+02 1.972243e+02
7.900000e+02 2.069942e+02
7.910000e+02 2.172198e+02
7.920000e+02 2.279210e+02
7.930000e+02 2.391185e+02
7.940000e+02 2.508339e+02
7.950000e+02 2.630896e+02
7.960000e+02 2.759089e+02
7.970000e+02 2.893156e+02
7.980000e+02 3.033358e+02
7.990000e+02 3.179953e+02
8.000000e+02 3.333214e+02
8.010000e+02 3.493405e+02
8.020000e+02 3.660866e+02
8.030000e+02 3.835871e+02
8.040000e+02 4.018744e+02
8.050000e+02 4.209816e+02
8.060000e+02 4.409432e+02
8.070000e+02 4.617947e+02
8.080000e+02 4.835734e+02
8.090000e+02 5.063177e+02
8.100000e+02 5.300676e+02
8.110000e+02 5.548647e+02
8.120000e+02 5.807521e+02
8.130000e+02 6.077746e+02
8.140000e+02 6.359787e+02
8.150000e+02 6.654117e+02
8.160000e+02 6.961265e+02
8.170000e+02 7.281719e+02
8.180000e+02 7.616038e+02
8.190000e+02 7.964771e+02
8.200000e+02 8.328503e+02
8.210000e+02 8.707834e+02
8.220000e+02 9.103372e+02
8.230000e+02 9.515797e+02
8.240000e+02 9.945770e+02
8.250000e+02 1.039398e+03
8.260000e+02 1.086115e+03
8.270000e+02 1.134803e+03
8.280000e+02 1.185540e+03
8.290000e+02 1.238406e+03
8.300000e+02 1.293484e+03
8.310000e+02 1.350860e+03
8.320000e+02 1.410624e+03
8.330000e+02 1.472869e+03
8.340000e+02 1.537690e+03
8.350000e+02 1.605056e+03
8.360000e+02 1.675456e+03
8.370000e+02 1.748625e+03
8.380000e+02 1.824763e+03
8.390000e+02 1.904049e+03
8.400000e+02 1.986545e+03
8.410000e+02 2.072391e+03
8.420000e+02 2.161678e+03
8.430000e+02 2.254648e+03
8.440000e+02 2.351325e+03
8.450000e+02 2.451883e+03
8.460000e+02 2.556469e+03
8.470000e+02 2.665242e+03
8.480000e+02 2.778351e+03
8.490000e+02 2.895957e+03
8.500000e+02 3.018225e+03
8.510000e+02 3.145330e+03
8.520000e+02 3.277441e+03
8.530000e+02 3.414759e+03
8.540000e+02 3.557477e+03
8.550000e+02 3.705762e+03
8.560000e+02 3.859834e+03
8.570000e+02 4.019903e+03
8.580000e+02 4.186185e+03
8.590000e+02 4.358906e+03
8.600000e+02 4.538295e+03
8.610000e+02 4.724595e+03
8.620000e+02 4.918049e+03
8.630000e+02 5.118909e+03
8.640000e+02 5.327458e+03
8.650000e+02 5.543932e+03
8.660000e+02 5.768665e+03
8.670000e+02 6.001902e+03
8.680000e+02 6.243944e+03
8.690000e+02 6.495129e+03
8.700000e+02 6.755763e+03
8.710000e+02 7.026175e+03
8.720000e+02 7.306705e+03
8.730000e+02 7.597706e+03
8.740000e+02 7.899540e+03
8.750000e+02 8.212579e+03
8.760000e+02 8.537212e+03
8.770000e+02 8.873812e+03
8.780000e+02 9.222863e+03
8.790000e+02 9.584715e+03
8.800000e+02 9.959829e+03
8.810000e+02 1.034864e+04
8.820000e+02 1.075164e+04
8.830000e+02 1.116930e+04
8.840000e+02 1.160212e+04
8.850000e+02 1.205059e+04
8.860000e+02 1.251522e+04
8.870000e+02 1.299661e+04
8.880000e+02 1.349528e+04
8.890000e+02 1.401181e+04
8.900000e+02 1.454676e+04
8.910000e+02 1.510081e+04
8.920000e+02 1.565519e+04
8.930000e+02 1.626862e+04
8.940000e+02 1.688370e+04
8.950000e+02 1.752046e+04
8.960000e+02 1.817965e+04
8.970000e+02 1.886196e+04
8.980000e+02 1.956816e+04
8.990000e+02 2.029901e+04
9.000000e+02 2.105531e+04
9.010000e+02 2.183789e+04
9.020000e+02 2.264754e+04
9.030000e+02 2.348521e+04
9.040000e+02 2.435152e+04
9.050000e+02 2.524809e+04
9.060000e+02 2.617524e+04
9.070000e+02 2.713360e+04
9.080000e+02 2.812563e+04
9.090000e+02 2.915095e+04
9.100000e+02 3.021108e+04
9.110000e+02 3.130722e+04
9.120000e+02 3.244104e+04
9.130000e+02 3.314349e+04
9.140000e+02 3.533155e+04
9.150000e+02 1.391708e+05
9.160000e+02 4.113772e+05
9.170000e+02 4.293925e+05
9.180000e+02 4.108674e+05
9.190000e+02 4.847334e+05
9.200000e+02 5.056480e+05
9.210000e+02 4.308243e+04
9.220000e+02 5.367905e+05
9.230000e+02 4.932821e+05
9.240000e+02 5.203568e+05
9.250000e+02 5.781760e+05
9.260000e+02 5.740351e+05
9.270000e+02 6.182425e+05
9.280000e+02 6.381024e+05
9.290000e+02 5.892984e+05
9.300000e+02 6.666079e+05
9.310000e+02 6.653417e+05
9.320000e+02 7.140039e+05
9.330000e+02 7.328987e+05
9.340000e+02 7.551377e+05
9.350000e+02 2.045547e+05
9.360000e+02 7.683319e+05
9.370000e+02 1.528373e+05
9.380000e+02 4.026303e+05
9.390000e+02 8.629048e+05
9.400000e+02 8.917661e+05
9.410000e+02 3.818629e+05
9.420000e+02 9.425488e+05
9.430000e+02 9.672258e+05
9.440000e+02 6.948009e+05
9.450000e+02 1.022656e+06
9.460000e+02 1.050498e+06
9.470000e+02 8.001537e+05
9.480000e+02 9.003649e+05
9.490000e+02 1.127564e+06
9.500000e+02 2.203064e+05
9.510000e+02 1.166705e+06
9.520000e+02 1.235434e+06
9.530000e+02 1.244873e+06
9.540000e+02 1.098420e+06
9.550000e+02 1.339187e+06
9.560000e+02 1.042221e+06
9.570000e+02 9.930720e+05
9.580000e+02 1.405919e+06
9.590000e+02 1.496868e+06
9.600000e+02 3.141385e+05
9.610000e+02 1.574744e+06
9.620000e+02 1.618473e+06
9.630000e+02 1.663465e+06
9.640000e+02 1.943490e+05
9.650000e+02 1.609201e+06
9.660000e+02 1.798760e+06
9.670000e+02 1.829439e+06
9.680000e+02 1.866958e+06
9.690000e+02 1.933691e+06
9.700000e+02 1.990112e+06
9.710000e+02 2.018713e+06
9.720000e+02 1.924599e+06
9.730000e+02 1.929285e+06
9.740000e+02 2.182352e+06
9.750000e+02 2.263549e+06
9.760000e+02 2.330670e+06
9.770000e+02 2.393012e+06
9.780000e+02 2.448736e+06
9.790000e+02 2.521336e+06
9.800000e+02 2.585890e+06
9.810000e+02 2.651537e+06
9.820000e+02 2.704170e+06
9.830000e+02 2.789887e+06
9.840000e+02 1.254045e+06
9.850000e+02 2.931578e+06
9.860000e+02 3.004168e+06
9.870000e+02 3.085330e+06
9.880000e+02 3.115220e+06
9.890000e+02 2.639845e+06
9.900000e+02 5.084461e+05
9.910000e+02 3.358490e+06
9.920000e+02 2.987516e+06
9.930000e+02 3.387131e+06
9.940000e+02 6.187888e+05
9.950000e+02 1.139017e+06
9.960000e+02 1.969873e+06
9.970000e+02 8.803585e+05
9.980000e+02 4.041603e+06
9.990000e+02 4.056616e+06
1.000000e+03 4.254493e+06
1.001000e+03 4.360518e+06
1.002000e+03 4.465793e+06
1.003000e+03 4.308175e+06
1.004000e+03 4.643798e+06
1.005000e+03 4.425156e+06
1.006000e+03 4.919391e+06
1.007000e+03 5.024474e+06
1.008000e+03 5.151938e+06
1.009000e+03 5.182183e+06
1.010000e+03 5.411146e+06
1.011000e+03 5.541322e+06
1.012000e+03 5.672569e+06
1.013000e+03 5.807600e+06
1.014000e+03 5.622923e+06
1.015000e+03 5.926700e+06
1.016000e+03 6.196882e+06
1.017000e+03 6.084110e+06
1.018000e+03 6.500598e+06
1.019000e+03 6.568102e+06
1.020000e+03 6.812521e+06
1.021000e+03 4.010204e+06
1.022000e+03 6.515414e+06
1.023000e+03 7.027441e+06
1.024000e+03 6.653502e+06
1.025000e+03 5.280726e+06
1.026000e+03 2.638557e+06
1.027000e+03 6.927617e+06
1.028000e+03 2.213482e+06
1.029000e+03 7.940122e+06
1.030000e+03 8.441053e+06
1.031000e+03 8.759585e+06
1.032000e+03 8.955968e+06
1.033000e+03 4.380732e+06
1.034000e+03 9.444535e+06
1.035000e+03 2.191349e+06
1.036000e+03 8.945722e+06
1.037000e+03 1.813565e+06
1.038000e+03 1.037091e+07
1.039000e+03 1.052167e+07
1.040000e+03 1.085136e+07
1.041000e+03 1.098982e+07
1.042000e+03 1.125783e+07
1.043000e+03 1.124682e+07
1.044000e+03 1.185689e+07
1.045000e+03 1.212591e+07
1.046000e+03 1.242466e+07
1.047000e+03 1.268124e+07
1.048000e+03 1.280772e+07
1.049000e+03 1.284807e+07
1.050000e+03 1.356342e+07
1.051000e+03 1.385192e+07
1.052000e+03 1.419088e+07
1.053000e+03 1.439016e+07
1.054000e+03 1.404044e+07
1.055000e+03 1.493271e+07
1.056000e+03 1.549462e+07
1.057000e+03 1.581882e+07
1.058000e+03 1.615826e+07
1.059000e+03 1.641649e+07
1.060000e+03 1.672712e+07
1.061000e+03 1.725969e+07
1.062000e+03 1.761102e+07
1.063000e+03 6.613608e+06
1.064000e+03 4.115855e+06
1.065000e+03 1.820096e+07
1.066000e+03 1.504478e+07
1.067000e+03 1.918607e+07
1.068000e+03 2.017063e+07
1.069000e+03 1.984320e+07
1.070000e+03 2.086904e+07
1.071000e+03 2.150678e+07
1.072000e+03 2.196430e+07
1.073000e+03 2.182013e+07
1.074000e+03 2.287841e+07
1.075000e+03 2.334640e+07
1.076000e+03 2.389289e+07
1.077000e+03 2.425928e+07
1.078000e+03 2.486665e+07
1.079000e+03 2.535900e+07
1.080000e+03 2.594917e+07
1.081000e+03 2.650699e+07
1.082000e+03 2.705202e+07
1.083000e+03 2.759313e+07
1.084000e+03 2.813349e+07
1.085000e+03 2.130282e+07
1.086000e+03 2.939733e+07
1.087000e+03 2.978895e+07
1.088000e+03 3.053942e+07
1.089000e+03 3.124706e+07
1.090000e+03 3.179084e+07
1.091000e+03 3.241050e+07
1.092000e+03 3.320425e+07
1.093000e+03 3.386008e+07
1.094000e+03 3.456329e+07
1.095000e+03 3.525736e+07
1.096000e+03 3.597259e+07
1.097000e+03 3.622214e+07
1.098000e+03 3.697276e+07
1.099000e+03 3.816237e+07
1.100000e+03 3.768326e+07
1.101000e+03 3.624739e+07
1.102000e+03 7.874861e+07
1.103000e+03 2.433379e+08
1.104000e+03 1.011065e+08
1.105000e+03 3.953034e+07
1.106000e+03 5.547884e+08
1.107000e+03 3.152063e+08
1.108000e+03 5.769212e+08
1.109000e+03 3.336350e+08
1.110000e+03 1.392642e+08
1.111000e+03 8.980515e+07
1.112000e+03 5.204815e+08
1.113000e+03 6.383340e+08
1.114000e+03 3.207946e+07
1.115000e+03 5.762877e+08
1.116000e+03 5.711468e+08
1.117000e+03 3.613581e+07
1.118000e+03 4.256451e+08
1.119000e+03 6.820757e+08
1.120000e+03 6.192275e+08
1.121000e+03 6.308004e+08
1.122000e+03 1.363318e+07
1.123000e+03 7.037165e+07
1.124000e+03 7.379097e+08
1.125000e+03 3.713677e+08
1.126000e+03 7.666385e+08
1.127000e+03 7.489944e+08
1.128000e+03 3.375623e+08
1.129000e+03 7.674103e+08
1.130000e+03 6.743025e+08
1.131000e+03 8.253704e+08
1.132000e+03 3.873370e+07
1.133000e+03 6.253388e+08
1.134000e+03 8.087691e+08
1.135000e+03 2.210579e+07
1.136000e+03 8.273201e+08
1.137000e+03 8.975094e+08
1.138000e+03 8.915920e+08
1.139000e+03 9.024418e+08
1.140000e+03 2.469440e+07
1.141000e+03 9.511332e+08
1.142000e+03 9.466585e+08
1.143000e+03 9.747540e+08
1.144000e+03 9.966290e+08
1.145000e+03 6.707624e+08
1.146000e+03 1.024613e+09
1.147000e+03 1.023771e+09
1.148000e+03 9.302975e+08
1.149000e+03 1.065949e+09
1.150000e+03 1.050524e+09
1.151000e+03 1.093385e+09
1.152000e+03 1.109019e+09
1.153000e+03 3.363382e+08
1.154000e+03 8.142995e+07
1.155000e+03 8.677049e+08
1.156000e+03 2.647267e+08
1.157000e+03 1.191752e+09
1.158000e+03 3.687410e+07
1.159000e+03 9.963505e+08
1.160000e+03 1.182899e+09
1.161000e+03 1.266028e+09
1.162000e+03 3.107569e+08
1.163000e+03 1.241853e+09
1.164000e+03 5.396576e+07
1.165000e+03 1.339195e+09
1.166000e+03 1.346409e+09
1.167000e+03 1.341076e+09
1.168000e+03 1.406346e+09
1.169000e+03 1.390309e+09
1.170000e+03 1.446485e+09
1.171000e+03 1.468504e+09
1.172000e+03 1.438229e+09
1.173000e+03 1.516358e+09
1.174000e+03 1.327594e+09
1.175000e+03 6.265024e+07
1.176000e+03 5.267968e+07
1.177000e+03 1.605946e+09
1.178000e+03 1.543756e+09
1.179000e+03 1.654353e+09
1.180000e+03 1.280511e+09
1.181000e+03 1.690740e+09
1.182000e+03 1.725301e+09
1.183000e+03 1.740926e+09
1.184000e+03 1.759230e+09
1.185000e+03 1.755343e+09
1.186000e+03 1.746875e+09
1.187000e+03 1.825371e+09
1.188000e+03 1.793254e+09
1.189000e+03 6.443827e+07
1.190000e+03 2.482451e+08
1.191000e+03 1.851443e+09
1.192000e+03 1.871681e+09
1.193000e+03 5.988851e+07
1.194000e+03 7.391629e+07
1.195000e+03 1.390352e+09
1.196000e+03 1.898713e+09
1.197000e+03 2.551766e+09
1.198000e+03 2.496077e+09
1.199000e+03 2.499605e+09
1.200000e+03 2.205860e+09
1.201000e+03 2.341817e+09
1.202000e+03 2.281512e+09
1.203000e+03 2.669668e+09
1.204000e+03 2.333061e+09
1.205000e+03 2.251787e+09
1.206000e+03 1.997372e+09
1.207000e+03 4.403155e+08
1.208000e+03 1.553850e+09
1.209000e+03 1.189636e+09
1.210000e+03 1.073299e+08
1.211000e+03 7.128271e+08
1.212000e+03 4.627022e+08
1.213000e+03 2.940802e+08
1.214000e+03 1.709349e+08
1.215000e+03 1.067039e+08
1.216000e+03 9.674862e+07
1.217000e+03 1.500438e+08
1.218000e+03 2.660185e+08
1.219000e+03 4.593013e+08
1.220000e+03 7.248378e+08
1.221000e+03 1.056512e+09
1.222000e+03 1.429538e+09
1.223000e+03 1.836658e+09
1.224000e+03 2.267540e+09
1.225000e+03 2.615610e+09
1.226000e+03 3.139581e+09
1.227000e+03 3.558355e+09
1.228000e+03 3.954480e+09
1.229000e+03 4.437060e+09
1.230000e+03 4.801291e+09
1.231000e+03 5.126299e+09
1.232000e+03 5.733157e+09
1.233000e+03 6.129345e+09
1.234000e+03 3.949637e+09
1.235000e+03 6.852577e+09
1.236000e+03 6.827000e+09
1.237000e+03 7.550414e+09
1.238000e+03 7.819607e+09
1.239000e+03 8.133029e+09
1.240000e+03 7.606955e+09
1.241000e+03 1.412106e+10
1.242000e+03 7.372036e+09
1.243000e+03 1.137674e+10
1.244000e+03 4.448026e+09
1.245000e+03 6.754510e+09
1.246000e+03 2.291082e+10
1.247000e+03 2.314286e+10
1.248000e+03 4.770199e+09
1.249000e+03 6.024192e+09
1.250000e+03 2.795082e+10
1.251000e+03 2.974278e+10
1.252000e+03 2.941305e+10
1.253000e+03 3.208005e+10
1.254000e+03 3.151561e+10
1.255000e+03 3.396451e+10
1.256000e+03 3.324717e+10
1.257000e+03 3.596294e+10
1.258000e+03 3.214394e+10
1.259000e+03 3.453620e+10
1.260000e+03 2.895528e+10
1.261000e+03 2.197397e+08
1.262000e+03 2.816257e+09
1.263000e+03 3.977023e+10
1.264000e+03 3.279005e+10
1.265000e+03 2.235105e+08
1.266000e+03 4.144205e+10
1.267000e+03 4.091005e+10
