# wavelength_A flux
5.000000e+02 4.093112e-04
5.010000e+02 4.554591e-04
5.020000e+02 5.065903e-04
5.030000e+02 5.632124e-04
5.040000e+02 6.258882e-04
5.050000e+02 7.091399e-04
5.060000e+02 7.872665e-04
5.070000e+02 8.736244e-04
5.080000e+02 9.690406e-04
5.090000e+02 1.074453e-03
5.100000e+02 1.190787e-03
5.110000e+02 1.319171e-03
5.120000e+02 1.460784e-03
5.130000e+02 1.616928e-03
5.140000e+02 1.789024e-03
5.150000e+02 1.978610e-03
5.160000e+02 2.187427e-03
5.170000e+02 2.417210e-03
5.180000e+02 2.670215e-03
5.190000e+02 2.948431e-03
5.200000e+02 3.254337e-03
5.210000e+02 3.590553e-03
5.220000e+02 3.959585e-03
5.230000e+02 4.365581e-03
5.240000e+02 4.810936e-03
5.250000e+02 5.299758e-03
5.260000e+02 5.835937e-03
5.270000e+02 6.423903e-03
5.280000e+02 7.068417e-03
5.290000e+02 7.773292e-03
5.300000e+02 8.548237e-03
5.310000e+02 9.395281e-03
5.320000e+02 1.032245e-02
5.330000e+02 1.133689e-02
5.340000e+02 1.244644e-02
5.350000e+02 1.365958e-02
5.360000e+02 1.498545e-02
5.370000e+02 1.626236e-02
5.380000e+02 1.801617e-02
5.390000e+02 1.974395e-02
5.400000e+02 2.162968e-02
5.410000e+02 2.368571e-02
5.420000e+02 2.593067e-02
5.430000e+02 2.837707e-02
5.440000e+02 3.104358e-02
5.450000e+02 3.394892e-02
5.460000e+02 3.710875e-02
5.470000e+02 4.055902e-02
5.480000e+02 4.430933e-02
5.490000e+02 4.839036e-02
5.500000e+02 5.282932e-02
5.510000e+02 5.765630e-02
5.520000e+02 6.290336e-02
5.530000e+02 6.860524e-02
5.540000e+02 7.479941e-02
5.550000e+02 8.152617e-02
5.560000e+02 8.882900e-02
5.570000e+02 9.675470e-02
5.580000e+02 1.053537e-01
5.590000e+02 1.146802e-01
5.600000e+02 1.247927e-01
5.610000e+02 1.357540e-01
5.620000e+02 1.476301e-01
5.630000e+02 1.604966e-01
5.640000e+02 1.744301e-01
5.650000e+02 1.895144e-01
5.660000e+02 2.058402e-01
5.670000e+02 2.235037e-01
5.680000e+02 2.426091e-01
5.690000e+02 2.632678e-01
5.700000e+02 2.855988e-01
5.710000e+02 3.097326e-01
5.720000e+02 3.358047e-01
5.730000e+02 3.639639e-01
5.740000e+02 3.943649e-01
5.750000e+02 4.271884e-01
5.760000e+02 4.625555e-01
5.770000e+02 5.008080e-01
5.780000e+02 5.420091e-01
5.790000e+02 5.864341e-01
5.800000e+02 6.343123e-01
5.810000e+02 6.859112e-01
5.820000e+02 7.414966e-01
5.830000e+02 8.013549e-01
5.840000e+02 8.656150e-01
5.850000e+02 9.351507e-01
5.860000e+02 1.009860e+00
5.870000e+02 1.090188e+00
5.880000e+02 1.176579e+00
5.890000e+02 1.269451e+00
5.900000e+02 1.369318e+00
5.910000e+02 1.476622e+00
5.920000e+02 1.591909e+00
5.930000e+02 1.715738e+00
5.940000e+02 1.848707e+00
5.950000e+02 1.991392e+00
5.960000e+02 2.144661e+00
5.970000e+02 2.309025e+00
5.980000e+02 2.485364e+00
5.990000e+02 2.674478e+00
6.000000e+02 2.877240e+00
6.010000e+02 3.094371e+00
6.020000e+02 3.327488e+00
6.030000e+02 3.577015e+00
6.040000e+02 3.844291e+00
6.050000e+02 4.130495e+00
6.060000e+02 4.436887e+00
6.070000e+02 4.764802e+00
6.080000e+02 5.115718e+00
6.090000e+02 5.491126e+00
6.100000e+02 5.892633e+00
6.110000e+02 6.321966e+00
6.120000e+02 6.780930e+00
6.130000e+02 7.271370e+00
6.140000e+02 7.795499e+00
6.150000e+02 8.355421e+00
6.160000e+02 8.953424e+00
6.170000e+02 9.591957e+00
6.180000e+02 1.027361e+01
6.190000e+02 1.100112e+01
6.200000e+02 1.177741e+01
6.210000e+02 1.260554e+01
6.220000e+02 1.348880e+01
6.230000e+02 1.443062e+01
6.240000e+02 1.543468e+01
6.250000e+02 1.650484e+01
6.260000e+02 1.764520e+01
6.270000e+02 1.886011e+01
6.280000e+02 2.015414e+01
6.290000e+02 2.153189e+01
6.300000e+02 2.299900e+01
6.310000e+02 2.456034e+01
6.320000e+02 2.622255e+01
6.330000e+02 2.799076e+01
6.340000e+02 2.987175e+01
6.350000e+02 3.187220e+01
6.360000e+02 3.396097e+01
6.370000e+02 3.626021e+01
6.380000e+02 3.866354e+01
6.390000e+02 4.121744e+01
6.400000e+02 4.393074e+01
6.410000e+02 4.681277e+01
6.420000e+02 4.987343e+01
6.430000e+02 5.312313e+01
6.440000e+02 5.657214e+01
6.450000e+02 6.023330e+01
6.460000e+02 6.411832e+01
6.470000e+02 6.823975e+01
6.480000e+02 7.261157e+01
6.490000e+02 7.724768e+01
6.500000e+02 8.216320e+01
6.510000e+02 8.737390e+01
6.520000e+02 9.289655e+01
6.530000e+02 9.874859e+01
6.540000e+02 1.049485e+02
6.550000e+02 1.115154e+02
6.560000e+02 1.184702e+02
6.570000e+02 1.258324e+02
6.580000e+02 1.336300e+02
6.590000e+02 1.418812e+02
6.600000e+02 1.506127e+02
6.610000e+02 1.598514e+02
6.620000e+02 1.696241e+02
6.630000e+02 1.799601e+02
6.640000e+02 1.908899e+02
6.650000e+02 2.024429e+02
6.660000e+02 2.146578e+02
6.670000e+02 2.275670e+02
6.680000e+02 2.412076e+02
6.690000e+02 2.556185e+02
6.700000e+02 2.708406e+02
6.710000e+02 2.869167e+02
6.720000e+02 3.038804e+02
6.730000e+02 3.218125e+02
6.740000e+02 3.407285e+02
6.750000e+02 3.606915e+02
6.760000e+02 3.817557e+02
6.770000e+02 4.039781e+02
6.780000e+02 4.274183e+02
6.790000e+02 4.521386e+02
6.800000e+02 4.782045e+02
6.810000e+02 5.056847e+02
6.820000e+02 5.346508e+02
6.830000e+02 5.651780e+02
6.840000e+02 5.973450e+02
6.850000e+02 6.312328e+02
6.860000e+02 6.669316e+02
6.870000e+02 7.045242e+02
6.880000e+02 7.441175e+02
6.890000e+02 7.857990e+02
6.900000e+02 8.296746e+02
6.910000e+02 8.758557e+02
6.920000e+02 9.244419e+02
6.930000e+02 9.755721e+02
6.940000e+02 1.029360e+03
6.950000e+02 1.085935e+03
6.960000e+02 1.145432e+03
6.970000e+02 1.207978e+03
6.980000e+02 1.273761e+03
6.990000e+02 1.342895e+03
7.000000e+02 1.415543e+03
7.010000e+02 1.491893e+03
7.020000e+02 1.572109e+03
7.030000e+02 1.656375e+03
7.040000e+02 1.744883e+03
7.050000e+02 1.837830e+03
7.060000e+02 1.935425e+03
7.070000e+02 2.037885e+03
7.080000e+02 2.145435e+03
7.090000e+02 2.258305e+03
7.100000e+02 2.376761e+03
7.110000e+02 2.501039e+03
7.120000e+02 2.631414e+03
7.130000e+02 2.768163e+03
7.140000e+02 2.911578e+03
7.150000e+02 3.061961e+03
7.160000e+02 3.219629e+03
7.170000e+02 3.384860e+03
7.180000e+02 3.558065e+03
7.190000e+02 3.739647e+03
7.200000e+02 3.929875e+03
7.210000e+02 4.129171e+03
7.220000e+02 4.337940e+03
7.230000e+02 4.556600e+03
7.240000e+02 4.785587e+03
7.250000e+02 5.025354e+03
7.260000e+02 5.276374e+03
7.270000e+02 5.539143e+03
7.280000e+02 5.814165e+03
7.290000e+02 6.101975e+03
7.300000e+02 6.403125e+03
7.310000e+02 6.718193e+03
7.320000e+02 7.047773e+03
7.330000e+02 7.392488e+03
7.340000e+02 7.752986e+03
7.350000e+02 8.129937e+03
7.360000e+02 8.524032e+03
7.370000e+02 8.936015e+03
7.380000e+02 9.366620e+03
7.390000e+02 9.816639e+03
7.400000e+02 1.028673e+04
7.410000e+02 1.077806e+04
7.420000e+02 1.129128e+04
7.430000e+02 1.182742e+04
7.440000e+02 1.238733e+04
7.450000e+02 1.297201e+04
7.460000e+02 1.358250e+04
7.470000e+02 1.421984e+04
7.480000e+02 1.488513e+04
7.490000e+02 1.557952e+04
7.500000e+02 1.630404e+04
7.510000e+02 1.706018e+04
7.520000e+02 1.784908e+04
7.530000e+02 1.867206e+04
7.540000e+02 1.953047e+04
7.550000e+02 2.042574e+04
7.560000e+02 2.135935e+04
7.570000e+02 2.233242e+04
7.580000e+02 2.334766e+04
7.590000e+02 2.440549e+04
7.600000e+02 2.550822e+04
7.610000e+02 2.665740e+04
7.620000e+02 2.785453e+04
7.630000e+02 2.910218e+04
7.640000e+02 3.040198e+04
7.650000e+02 3.175593e+04
7.660000e+02 3.316615e+04
7.670000e+02 3.463477e+04
7.680000e+02 3.616391e+04
7.690000e+02 3.775615e+04
7.700000e+02 3.941376e+04
7.710000e+02 4.113921e+04
7.720000e+02 4.293508e+04
7.730000e+02 4.480402e+04
7.740000e+02 4.674879e+04
7.750000e+02 4.877223e+04
7.760000e+02 5.087391e+04
7.770000e+02 5.306697e+04
7.780000e+02 5.534448e+04
7.790000e+02 5.771303e+04
7.800000e+02 6.017600e+04
7.810000e+02 6.273686e+04
7.820000e+02 6.539920e+04
7.830000e+02 6.816575e+04
7.840000e+02 7.104237e+04
7.850000e+02 7.403193e+04
7.860000e+02 7.713853e+04
7.870000e+02 8.036673e+04
7.880000e+02 8.372044e+04
7.890000e+02 8.720437e+04
7.900000e+02 9.082320e+04
7.910000e+02 9.458173e+04
7.920000e+02 9.848495e+04
7.930000e+02 1.025380e+05
7.940000e+02 1.067452e+05
7.950000e+02 1.111140e+05
7.960000e+02 1.156490e+05
7.970000e+02 1.203560e+05
7.980000e+02 1.252412e+05
7.990000e+02 1.303106e+05
8.000000e+02 1.355708e+05
8.010000e+02 1.410280e+05
8.020000e+02 1.466899e+05
8.030000e+02 1.525627e+05
8.040000e+02 1.586516e+05
8.050000e+02 1.649687e+05
8.060000e+02 1.715194e+05
8.070000e+02 1.783116e+05
8.080000e+02 1.853536e+05
8.090000e+02 1.926538e+05
8.100000e+02 2.002209e+05
8.110000e+02 2.080639e+05
8.120000e+02 2.161922e+05
8.130000e+02 2.246150e+05
8.140000e+02 2.333424e+05
8.150000e+02 2.423841e+05
8.160000e+02 2.517516e+05
8.170000e+02 2.614544e+05
8.180000e+02 2.715042e+05
8.190000e+02 2.819123e+05
8.200000e+02 2.926903e+05
8.210000e+02 3.038504e+05
8.220000e+02 3.154051e+05
8.230000e+02 3.273644e+05
8.240000e+02 3.397470e+05
8.250000e+02 3.525634e+05
8.260000e+02 3.658280e+05
8.270000e+02 3.795549e+05
8.280000e+02 3.937591e+05
8.290000e+02 4.084556e+05
8.300000e+02 4.236604e+05
8.310000e+02 4.393893e+05
8.320000e+02 4.556590e+05
8.330000e+02 4.724866e+05
8.340000e+02 4.898895e+05
8.350000e+02 5.078497e+05
8.360000e+02 5.264876e+05
8.370000e+02 5.457286e+05
8.380000e+02 5.656152e+05
8.390000e+02 5.861791e+05
8.400000e+02 6.074312e+05
8.410000e+02 6.293962e+05
8.420000e+02 6.520874e+05
8.430000e+02 6.755529e+05
8.440000e+02 6.997901e+05
8.450000e+02 7.248316e+05
8.460000e+02 7.507014e+05
8.470000e+02 7.774250e+05
8.480000e+02 8.050279e+05
8.490000e+02 8.335367e+05
8.500000e+02 8.629785e+05
8.510000e+02 8.933813e+05
8.520000e+02 9.247726e+05
8.530000e+02 9.571846e+05
8.540000e+02 9.906492e+05
8.550000e+02 1.025191e+06
8.560000e+02 1.060844e+06
8.570000e+02 1.097643e+06
8.580000e+02 1.135620e+06
8.590000e+02 1.174811e+06
8.600000e+02 1.215245e+06
8.610000e+02 1.256969e+06
8.620000e+02 1.300015e+06
8.630000e+02 1.344419e+06
8.640000e+02 1.390226e+06
8.650000e+02 1.437470e+06
8.660000e+02 1.486199e+06
8.670000e+02 1.536449e+06
8.680000e+02 1.588266e+06
8.690000e+02 1.641694e+06
8.700000e+02 1.696780e+06
8.710000e+02 1.753570e+06
8.720000e+02 1.812112e+06
8.730000e+02 1.872437e+06
8.740000e+02 1.934632e+06
8.750000e+02 1.998731e+06
8.760000e+02 2.064785e+06
8.770000e+02 2.132848e+06
8.780000e+02 2.202986e+06
8.790000e+02 2.275244e+06
8.800000e+02 2.349684e+06
8.810000e+02 2.426368e+06
8.820000e+02 2.505356e+06
8.830000e+02 2.586711e+06
8.840000e+02 2.670498e+06
8.850000e+02 2.756784e+06
8.860000e+02 2.845626e+06
8.870000e+02 2.937112e+06
8.880000e+02 3.031304e+06
8.890000e+02 3.128275e+06
8.900000e+02 3.228100e+06
8.910000e+02 3.330855e+06
8.920000e+02 3.433440e+06
8.930000e+02 3.545468e+06
8.940000e+02 3.657489e+06
8.950000e+02 3.772760e+06
8.960000e+02 3.891379e+06
8.970000e+02 4.013421e+06
8.980000e+02 4.138981e+06
8.990000e+02 4.268150e+06
9.000000e+02 4.401024e+06
9.010000e+02 4.537697e+06
9.020000e+02 4.678269e+06
9.030000e+02 4.822840e+06
9.040000e+02 4.971474e+06
9.050000e+02 5.124392e+06
9.060000e+02 5.281598e+06
9.070000e+02 5.443154e+06
9.080000e+02 5.609393e+06
9.090000e+02 5.780154e+06
9.100000e+02 5.955750e+06
9.110000e+02 6.136256e+06
9.120000e+02 6.321866e+06
9.130000e+02 6.455672e+06
9.140000e+02 6.753504e+06
9.150000e+02 1.374787e+07
9.160000e+02 3.969631e+07
9.170000e+02 4.309705e+07
9.180000e+02 3.367151e+07
9.190000e+02 7.231938e+07
9.200000e+02 9.279499e+07
9.210000e+02 8.038100e+06
9.220000e+02 1.061433e+08
9.230000e+02 4.363270e+07
9.240000e+02 9.569399e+07
9.250000e+02 1.167153e+08
9.260000e+02 6.538400e+07
9.270000e+02 1.182885e+08
9.280000e+02 1.299504e+08
9.290000e+02 1.136064e+08
9.300000e+02 1.248357e+08
9.310000e+02 7.949209e+07
9.320000e+02 1.406233e+08
9.330000e+02 1.464321e+08
9.340000e+02 1.507002e+08
9.350000e+02 4.449251e+07
9.360000e+02 1.556775e+08
9.370000e+02 3.087634e+07
9.380000e+02 5.665931e+07
9.390000e+02 1.630413e+08
9.400000e+02 1.717348e+08
9.410000e+02 8.176607e+07
9.420000e+02 1.805403e+08
9.430000e+02 1.841407e+08
9.440000e+02 1.146245e+08
9.450000e+02 1.927566e+08
9.460000e+02 1.967037e+08
9.470000e+02 1.443705e+08
9.480000e+02 1.753571e+08
9.490000e+02 1.902841e+08
9.500000e+02 4.049544e+07
9.510000e+02 2.041219e+08
9.520000e+02 2.228028e+08
9.530000e+02 2.215334e+08
9.540000e+02 1.924411e+08
9.550000e+02 2.388901e+08
9.560000e+02 1.973052e+08
9.570000e+02 1.858641e+08
9.580000e+02 2.440406e+08
9.590000e+02 2.617605e+08
9.600000e+02 5.550178e+07
9.610000e+02 2.722659e+08
9.620000e+02 2.774131e+08
9.630000e+02 2.847089e+08
9.640000e+02 2.827008e+07
9.650000e+02 2.692629e+08
9.660000e+02 3.027248e+08
9.670000e+02 3.054090e+08
9.680000e+02 3.064264e+08
9.690000e+02 3.193073e+08
9.700000e+02 3.258423e+08
9.710000e+02 3.239750e+08
9.720000e+02 2.687206e+08
9.730000e+02 2.580124e+08
9.740000e+02 3.454016e+08
9.750000e+02 3.612819e+08
9.760000e+02 3.719040e+08
9.770000e+02 3.800254e+08
9.780000e+02 3.865813e+08
9.790000e+02 3.969415e+08
9.800000e+02 4.051445e+08
9.810000e+02 4.129610e+08
9.820000e+02 4.165439e+08
9.830000e+02 4.303756e+08
9.840000e+02 1.756459e+08
9.850000e+02 4.472526e+08
9.860000e+02 4.556342e+08
9.870000e+02 4.661671e+08
9.880000e+02 4.640332e+08
9.890000e+02 3.573655e+08
9.900000e+02 6.511311e+07
9.910000e+02 4.922570e+08
9.920000e+02 4.290138e+08
9.930000e+02 4.947313e+08
9.940000e+02 8.416387e+07
9.950000e+02 1.447447e+08
9.960000e+02 1.622668e+08
9.970000e+02 1.202212e+08
9.980000e+02 5.777704e+08
9.990000e+02 5.724735e+08
1.000000e+03 6.025731e+08
1.001000e+03 6.148218e+08
1.002000e+03 6.262791e+08
1.003000e+03 5.667414e+08
1.004000e+03 6.428149e+08
1.005000e+03 5.800901e+08
1.006000e+03 6.766525e+08
1.007000e+03 6.870028e+08
1.008000e+03 7.016136e+08
1.009000e+03 6.895706e+08
1.010000e+03 7.296987e+08
1.011000e+03 7.437445e+08
1.012000e+03 7.572899e+08
1.013000e+03 7.715592e+08
1.014000e+03 7.243387e+08
1.015000e+03 7.692409e+08
1.016000e+03 8.072149e+08
1.017000e+03 7.784836e+08
1.018000e+03 8.411146e+08
1.019000e+03 8.421935e+08
1.020000e+03 8.747371e+08
1.021000e+03 5.553699e+08
1.022000e+03 8.390845e+08
1.023000e+03 8.756381e+08
1.024000e+03 8.384552e+08
1.025000e+03 6.093420e+08
1.026000e+03 2.888424e+08
1.027000e+03 8.409992e+08
1.028000e+03 2.777953e+08
1.029000e+03 9.593283e+08
1.030000e+03 1.029438e+09
1.031000e+03 1.064727e+09
1.032000e+03 1.084052e+09
1.033000e+03 5.709797e+08
1.034000e+03 1.138269e+09
1.035000e+03 2.548325e+08
1.036000e+03 1.064215e+09
1.037000e+03 1.752676e+08
1.038000e+03 1.228701e+09
1.039000e+03 1.235232e+09
1.040000e+03 1.273318e+09
1.041000e+03 1.286767e+09
1.042000e+03 1.284422e+09
1.043000e+03 1.310195e+09
1.044000e+03 1.362346e+09
1.045000e+03 1.390661e+09
1.046000e+03 1.419417e+09
1.047000e+03 1.437697e+09
1.048000e+03 1.426132e+09
1.049000e+03 1.448902e+09
1.050000e+03 1.520611e+09
1.051000e+03 1.542777e+09
1.052000e+03 1.577639e+09
1.053000e+03 1.571498e+09
1.054000e+03 1.508781e+09
1.055000e+03 1.646141e+09
1.056000e+03 1.692862e+09
1.057000e+03 1.717251e+09
1.058000e+03 1.747415e+09
1.059000e+03 1.752216e+09
1.060000e+03 1.780271e+09
1.061000e+03 1.841863e+09
1.062000e+03 1.870706e+09
1.063000e+03 7.492137e+08
1.064000e+03 4.062149e+08
1.065000e+03 1.888902e+09
1.066000e+03 1.662295e+09
1.067000e+03 1.923095e+09
1.068000e+03 2.106357e+09
1.069000e+03 2.010940e+09
1.070000e+03 2.124908e+09
1.071000e+03 2.217247e+09
1.072000e+03 2.254124e+09
1.073000e+03 2.197430e+09
1.074000e+03 2.321313e+09
1.075000e+03 2.355991e+09
1.076000e+03 2.410053e+09
1.077000e+03 2.428249e+09
1.078000e+03 2.482453e+09
1.079000e+03 2.517397e+09
1.080000e+03 2.568841e+09
1.081000e+03 2.614605e+09
1.082000e+03 2.658205e+09
1.083000e+03 2.693617e+09
1.084000e+03 2.661724e+09
1.085000e+03 2.060923e+09
1.086000e+03 2.842467e+09
1.087000e+03 2.844630e+09
1.088000e+03 2.927766e+09
1.089000e+03 2.982553e+09
1.090000e+03 3.009505e+09
1.091000e+03 3.056815e+09
1.092000e+03 3.131017e+09
1.093000e+03 3.179368e+09
1.094000e+03 3.230721e+09
1.095000e+03 3.281155e+09
1.096000e+03 3.335512e+09
1.097000e+03 3.349349e+09
1.098000e+03 3.359680e+09
1.099000e+03 3.489972e+09
1.100000e+03 3.423356e+09
1.101000e+03 3.286685e+09
1.102000e+03 6.823101e+09
1.103000e+03 1.946545e+10
1.104000e+03 8.770605e+09
1.105000e+03 3.529927e+09
1.106000e+03 4.037781e+10
1.107000e+03 1.935023e+10
1.108000e+03 4.254288e+10
1.109000e+03 2.081141e+10
1.110000e+03 7.987044e+09
1.111000e+03 7.680520e+09
1.112000e+03 3.724537e+10
1.113000e+03 4.667598e+10
1.114000e+03 2.746782e+09
1.115000e+03 4.014334e+10
1.116000e+03 3.827520e+10
1.117000e+03 3.136913e+09
1.118000e+03 2.878464e+10
1.119000e+03 4.790415e+10
1.120000e+03 4.233044e+10
1.121000e+03 4.125919e+10
1.122000e+03 1.002222e+09
1.123000e+03 5.515041e+09
1.124000e+03 5.146936e+10
1.125000e+03 2.139331e+10
1.126000e+03 5.373166e+10
1.127000e+03 5.205579e+10
1.128000e+03 2.198452e+10
1.129000e+03 5.183934e+10
1.130000e+03 4.301748e+10
1.131000e+03 5.687277e+10
1.132000e+03 2.819203e+09
1.133000e+03 3.738528e+10
1.134000e+03 5.423059e+10
1.135000e+03 1.512534e+09
1.136000e+03 5.252628e+10
1.137000e+03 6.065294e+10
1.138000e+03 5.835938e+10
1.139000e+03 6.063972e+10
1.140000e+03 1.775067e+09
1.141000e+03 6.313771e+10
1.142000e+03 6.034049e+10
1.143000e+03 6.415338e+10
1.144000e+03 6.612895e+10
1.145000e+03 4.060614e+10
1.146000e+03 6.744193e+10
1.147000e+03 6.704805e+10
1.148000e+03 5.663867e+10
1.149000e+03 6.938685e+10
1.150000e+03 6.539063e+10
1.151000e+03 7.099248e+10
1.152000e+03 7.073065e+10
1.153000e+03 1.772349e+10
1.154000e+03 4.812333e+09
1.155000e+03 5.321452e+10
1.156000e+03 1.700200e+10
1.157000e+03 7.586285e+10
1.158000e+03 2.436631e+09
1.159000e+03 6.123319e+10
1.160000e+03 6.937490e+10
1.161000e+03 7.932701e+10
1.162000e+03 1.527495e+10
1.163000e+03 7.274486e+10
1.164000e+03 3.841487e+09
1.165000e+03 8.297084e+10
1.166000e+03 8.179152e+10
1.167000e+03 7.810185e+10
1.168000e+03 8.605772e+10
1.169000e+03 8.485188e+10
1.170000e+03 8.758078e+10
1.171000e+03 8.801717e+10
1.172000e+03 8.059506e+10
1.173000e+03 9.051872e+10
1.174000e+03 7.336469e+10
1.175000e+03 4.214366e+09
1.176000e+03 3.359269e+09
1.177000e+03 9.388797e+10
1.178000e+03 8.481786e+10
1.179000e+03 9.640285e+10
1.180000e+03 6.923712e+10
1.181000e+03 9.734803e+10
1.182000e+03 9.912851e+10
1.183000e+03 9.939307e+10
1.184000e+03 9.976724e+10
1.185000e+03 9.689461e+10
1.186000e+03 9.735460e+10
1.187000e+03 1.026490e+11
1.188000e+03 9.545454e+10
1.189000e+03 3.838480e+09
1.190000e+03 1.462290e+10
1.191000e+03 1.016561e+11
1.192000e+03 1.037096e+11
1.193000e+03 3.387851e+09
1.194000e+03 4.371104e+09
1.195000e+03 6.397198e+10
1.196000e+03 1.030885e+11
1.197000e+03 1.247265e+11
1.198000e+03 1.212777e+11
1.199000e+03 1.226308e+11
1.200000e+03 1.074088e+11
1.201000e+03 1.149884e+11
1.202000e+03 1.100087e+11
1.203000e+03 1.217946e+11
1.204000e+03 1.043938e+11
1.205000e+03 1.043595e+11
1.206000e+03 8.441765e+10
1.207000e+03 2.895971e+10
1.208000e+03 7.384408e+10
1.209000e+03 5.659628e+10
1.210000e+03 6.158889e+09
1.211000e+03 3.583725e+10
1.212000e+03 2.386242e+10
1.213000e+03 1.553481e+10
1.214000e+03 9.108796e+09
1.215000e+03 5.597117e+09
1.216000e+03 5.024967e+09
1.217000e+03 7.904397e+09
1.218000e+03 1.391798e+10
1.219000e+03 2.339904e+10
1.220000e+03 3.566472e+10
1.221000e+03 5.064173e+10
1.222000e+03 6.664601e+10
1.223000e+03 8.381040e+10
1.224000e+03 1.012968e+11
1.225000e+03 1.130286e+11
1.226000e+03 1.338085e+11
1.227000e+03 1.498666e+11
1.228000e+03 1.617630e+11
1.229000e+03 1.777825e+11
1.230000e+03 1.887574e+11
1.231000e+03 2.000841e+11
1.232000e+03 2.225427e+11
1.233000e+03 2.350545e+11
1.234000e+03 1.669114e+11
1.235000e+03 2.556325e+11
1.236000e+03 2.484471e+11
1.237000e+03 2.760791e+11
1.238000e+03 2.804197e+11
1.239000e+03 2.904392e+11
1.240000e+03 2.723113e+11
1.241000e+03 4.740498e+11
1.242000e+03 2.617560e+11
1.243000e+03 3.882591e+11
1.244000e+03 1.568837e+11
1.245000e+03 2.367415e+11
1.246000e+03 6.886148e+11
1.247000e+03 6.917957e+11
1.248000e+03 1.670276e+11
1.249000e+03 2.076575e+11
1.250000e+03 8.122509e+11
1.251000e+03 8.625951e+11
1.252000e+03 8.235560e+11
1.253000e+03 9.036085e+11
1.254000e+03 8.702834e+11
1.255000e+03 9.479659e+11
1.256000e+03 9.059007e+11
1.257000e+03 9.846582e+11
1.258000e+03 8.733601e+11
1.259000e+03 9.428738e+11
1.260000e+03 8.759721e+11
1.261000e+03 1.011025e+10
1.262000e+03 9.524494e+10
1.263000e+03 1.084836e+12
1.264000e+03 8.970587e+11
1.265000e+03 9.942794e+09
1.266000e+03 1.082979e+12
1.267000e+03 1.055492e+12
