# wavelength_A flux
5.000000e+02 4.372350e-31
5.010000e+02 5.508494e-31
5.020000e+02 6.933347e-31
5.030000e+02 8.718612e-31
5.040000e+02 1.095339e-30
5.050000e+02 1.383491e-30
5.060000e+02 1.734618e-30
5.070000e+02 2.172703e-30
5.080000e+02 2.719282e-30
5.090000e+02 3.400112e-30
5.100000e+02 4.223165e-30
5.110000e+02 5.301691e-30
5.120000e+02 6.611014e-30
5.130000e+02 8.237718e-30
5.140000e+02 1.025501e-29
5.150000e+02 1.275523e-29
5.160000e+02 1.585135e-29
5.170000e+02 1.968241e-29
5.180000e+02 2.441846e-29
5.190000e+02 3.026852e-29
5.200000e+02 3.748859e-29
5.210000e+02 4.639208e-29
5.220000e+02 5.736021e-29
5.230000e+02 7.086847e-29
5.240000e+02 8.748286e-29
5.250000e+02 1.079039e-28
5.260000e+02 1.329837e-28
5.270000e+02 1.637605e-28
5.280000e+02 2.014980e-28
5.290000e+02 2.477340e-28
5.300000e+02 3.043376e-28
5.310000e+02 3.735791e-28
5.320000e+02 4.582140e-28
5.330000e+02 5.615842e-28
5.340000e+02 6.877398e-28
5.350000e+02 8.415846e-28
5.360000e+02 1.029052e-27
5.370000e+02 1.255130e-27
5.380000e+02 1.535056e-27
5.390000e+02 1.872732e-27
5.400000e+02 2.282968e-27
5.410000e+02 2.780974e-27
5.420000e+02 3.385139e-27
5.430000e+02 4.117489e-27
5.440000e+02 5.004598e-27
5.450000e+02 6.078390e-27
5.460000e+02 7.377210e-27
5.470000e+02 8.947089e-27
5.480000e+02 1.084324e-26
5.490000e+02 1.313184e-26
5.500000e+02 1.589218e-26
5.510000e+02 1.921914e-26
5.520000e+02 2.322625e-26
5.530000e+02 2.804917e-26
5.540000e+02 3.385001e-26
5.550000e+02 4.082225e-26
5.560000e+02 4.919670e-26
5.570000e+02 5.924853e-26
5.580000e+02 7.130554e-26
5.590000e+02 8.575804e-26
5.600000e+02 1.030703e-25
5.610000e+02 1.237945e-25
5.620000e+02 1.485865e-25
5.630000e+02 1.782254e-25
5.640000e+02 2.136353e-25
5.650000e+02 2.559126e-25
5.660000e+02 3.063563e-25
5.670000e+02 3.665051e-25
5.680000e+02 4.381801e-25
5.690000e+02 5.235357e-25
5.700000e+02 6.251186e-25
5.710000e+02 7.459375e-25
5.720000e+02 8.895448e-25
5.730000e+02 1.060132e-24
5.740000e+02 1.262643e-24
5.750000e+02 1.502902e-24
5.760000e+02 1.787770e-24
5.770000e+02 2.125328e-24
5.780000e+02 2.525070e-24
5.790000e+02 2.998169e-24
5.800000e+02 3.557750e-24
5.810000e+02 4.219225e-24
5.820000e+02 5.000682e-24
5.830000e+02 5.923333e-24
5.840000e+02 7.011932e-24
5.850000e+02 8.295958e-24
5.860000e+02 9.809244e-24
5.870000e+02 1.159175e-23
5.880000e+02 1.369019e-23
5.890000e+02 1.615915e-23
5.900000e+02 1.906239e-23
5.910000e+02 2.247437e-23
5.920000e+02 2.648194e-23
5.930000e+02 3.118644e-23
5.940000e+02 3.670597e-23
5.950000e+02 4.317812e-23
5.960000e+02 5.076310e-23
5.970000e+02 5.964734e-23
5.980000e+02 7.004769e-23
5.990000e+02 8.221623e-23
6.000000e+02 9.644585e-23
6.010000e+02 1.130766e-22
6.020000e+02 1.325034e-22
6.030000e+02 1.551839e-22
6.040000e+02 1.816491e-22
6.050000e+02 2.125142e-22
6.060000e+02 2.484918e-22
6.070000e+02 2.904065e-22
6.080000e+02 3.392129e-22
6.090000e+02 3.960144e-22
6.100000e+02 4.620865e-22
6.110000e+02 5.389030e-22
6.120000e+02 6.281653e-22
6.130000e+02 7.318370e-22
6.140000e+02 8.521833e-22
6.150000e+02 9.918157e-22
6.160000e+02 1.153744e-21
6.170000e+02 1.341434e-21
6.180000e+02 1.558876e-21
6.190000e+02 1.810662e-21
6.200000e+02 2.102074e-21
6.210000e+02 2.439182e-21
6.220000e+02 2.828963e-21
6.230000e+02 3.279427e-21
6.240000e+02 3.799772e-21
6.250000e+02 4.400550e-21
6.260000e+02 5.093862e-21
6.270000e+02 5.893580e-21
6.280000e+02 6.815600e-21
6.290000e+02 7.878124e-21
6.300000e+02 9.101990e-21
6.310000e+02 1.051095e-20
6.320000e+02 1.213254e-20
6.330000e+02 1.399767e-20
6.340000e+02 1.614204e-20
6.350000e+02 1.860632e-20
6.360000e+02 2.143697e-20
6.370000e+02 2.468698e-20
6.380000e+02 2.841679e-20
6.390000e+02 3.269530e-20
6.400000e+02 3.760107e-20
6.410000e+02 4.322353e-20
6.420000e+02 4.966456e-20
6.430000e+02 5.704007e-20
6.440000e+02 6.548194e-20
6.450000e+02 7.514013e-20
6.460000e+02 8.618510e-20
6.470000e+02 9.881051e-20
6.480000e+02 1.132363e-19
6.490000e+02 1.297122e-19
6.500000e+02 1.485214e-19
6.510000e+02 1.699854e-19
6.520000e+02 1.944686e-19
6.530000e+02 2.223838e-19
6.540000e+02 2.541988e-19
6.550000e+02 2.904434e-19
6.560000e+02 3.317172e-19
6.570000e+02 3.786987e-19
6.580000e+02 4.321553e-19
6.590000e+02 4.929544e-19
6.600000e+02 5.620766e-19
6.610000e+02 6.406294e-19
6.620000e+02 7.298634e-19
6.630000e+02 8.311905e-19
6.640000e+02 9.462035e-19
6.650000e+02 1.076699e-18
6.660000e+02 1.224703e-18
6.670000e+02 1.392498e-18
6.680000e+02 1.582656e-18
6.690000e+02 1.798074e-18
6.700000e+02 2.042012e-18
6.710000e+02 2.318139e-18
6.720000e+02 2.630582e-18
6.730000e+02 2.983983e-18
6.740000e+02 3.383558e-18
6.750000e+02 3.835168e-18
6.760000e+02 4.345397e-18
6.770000e+02 4.921636e-18
6.780000e+02 5.572182e-18
6.790000e+02 6.306343e-18
6.800000e+02 7.134558e-18
6.810000e+02 8.068531e-18
6.820000e+02 9.121380e-18
6.830000e+02 1.030780e-17
6.840000e+02 1.164425e-17
6.850000e+02 1.314915e-17
6.860000e+02 1.484313e-17
6.870000e+02 1.674926e-17
6.880000e+02 1.889333e-17
6.890000e+02 2.130418e-17
6.900000e+02 2.401406e-17
6.910000e+02 2.705897e-17
6.920000e+02 3.047912e-17
6.930000e+02 3.431943e-17
6.940000e+02 3.862998e-17
6.950000e+02 4.346670e-17
6.960000e+02 4.889192e-17
6.970000e+02 5.497516e-17
6.980000e+02 6.179389e-17
6.990000e+02 6.943442e-17
7.000000e+02 7.799288e-17
7.010000e+02 8.757632e-17
7.020000e+02 9.830388e-17
7.030000e+02 1.103081e-16
7.040000e+02 1.237364e-16
7.050000e+02 1.387529e-16
7.060000e+02 1.555396e-16
7.070000e+02 1.742992e-16
7.080000e+02 1.952566e-16
7.090000e+02 2.186617e-16
7.100000e+02 2.447918e-16
7.110000e+02 2.739546e-16
7.120000e+02 3.064919e-16
7.130000e+02 3.427823e-16
7.140000e+02 3.832457e-16
7.150000e+02 4.283477e-16
7.160000e+02 4.786040e-16
7.170000e+02 5.345860e-16
7.180000e+02 5.969265e-16
7.190000e+02 6.663258e-16
7.200000e+02 7.435592e-16
7.210000e+02 8.294844e-16
7.220000e+02 9.250498e-16
7.230000e+02 1.031304e-15
7.240000e+02 1.149407e-15
7.250000e+02 1.280640e-15
7.260000e+02 1.426418e-15
7.270000e+02 1.588303e-15
7.280000e+02 1.768023e-15
7.290000e+02 1.967480e-15
7.300000e+02 2.188778e-15
7.310000e+02 2.434234e-15
7.320000e+02 2.706404e-15
7.330000e+02 3.008108e-15
7.340000e+02 3.342451e-15
7.350000e+02 3.712856e-15
7.360000e+02 4.123093e-15
7.370000e+02 4.577313e-15
7.380000e+02 5.080087e-15
7.390000e+02 5.636444e-15
7.400000e+02 6.251918e-15
7.410000e+02 6.932597e-15
7.420000e+02 7.685173e-15
7.430000e+02 8.517006e-15
7.440000e+02 9.436183e-15
7.450000e+02 1.045159e-14
7.460000e+02 1.157299e-14
7.470000e+02 1.281109e-14
7.480000e+02 1.417767e-14
7.490000e+02 1.568564e-14
7.500000e+02 1.734917e-14
7.510000e+02 1.918380e-14
7.520000e+02 2.120658e-14
7.530000e+02 2.343621e-14
7.540000e+02 2.589315e-14
7.550000e+02 2.859986e-14
7.560000e+02 3.158094e-14
7.570000e+02 3.486330e-14
7.580000e+02 3.847644e-14
7.590000e+02 4.245264e-14
7.600000e+02 4.682721e-14
7.610000e+02 5.163880e-14
7.620000e+02 5.692969e-14
7.630000e+02 6.274611e-14
7.640000e+02 6.913856e-14
7.650000e+02 7.616230e-14
7.660000e+02 8.387767e-14
7.670000e+02 9.235059e-14
7.680000e+02 1.016531e-13
7.690000e+02 1.118637e-13
7.700000e+02 1.230683e-13
7.710000e+02 1.353606e-13
7.720000e+02 1.488426e-13
7.730000e+02 1.636259e-13
7.740000e+02 1.798320e-13
7.750000e+02 1.975934e-13
7.760000e+02 2.170545e-13
7.770000e+02 2.383728e-13
7.780000e+02 2.617196e-13
7.790000e+02 2.872818e-13
7.800000e+02 3.152627e-13
7.810000e+02 3.458837e-13
7.820000e+02 3.793859e-13
7.830000e+02 4.160314e-13
7.840000e+02 4.561055e-13
7.850000e+02 4.999186e-13
7.860000e+02 5.478081e-13
7.870000e+02 6.001406e-13
7.880000e+02 6.573150e-13
7.890000e+02 7.197645e-13
7.900000e+02 7.879597e-13
7.910000e+02 8.624119e-13
7.920000e+02 9.436761e-13
7.930000e+02 1.032355e-12
7.940000e+02 1.129103e-12
7.950000e+02 1.234630e-12
7.960000e+02 1.349705e-12
7.970000e+02 1.475165e-12
7.980000e+02 1.611915e-12
7.990000e+02 1.760937e-12
8.000000e+02 1.923296e-12
8.010000e+02 2.100145e-12
8.020000e+02 2.292736e-12
8.030000e+02 2.502421e-12
8.040000e+02 2.730668e-12
8.050000e+02 2.979063e-12
8.060000e+02 3.249328e-12
8.070000e+02 3.543321e-12
8.080000e+02 3.863056e-12
8.090000e+02 4.210710e-12
8.100000e+02 4.588641e-12
8.110000e+02 4.999395e-12
8.120000e+02 5.445726e-12
8.130000e+02 5.930611e-12
8.140000e+02 6.457269e-12
8.150000e+02 7.029174e-12
8.160000e+02 7.650083e-12
8.170000e+02 8.324051e-12
8.180000e+02 9.055458e-12
8.190000e+02 9.849032e-12
8.200000e+02 1.070988e-11
8.210000e+02 1.164350e-11
8.220000e+02 1.265584e-11
8.230000e+02 1.375331e-11
8.240000e+02 1.494283e-11
8.250000e+02 1.623184e-11
8.260000e+02 1.762838e-11
8.270000e+02 1.914112e-11
8.280000e+02 2.077938e-11
8.290000e+02 2.255323e-11
8.300000e+02 2.447349e-11
8.310000e+02 2.655184e-11
8.320000e+02 2.880083e-11
8.330000e+02 3.123400e-11
8.340000e+02 3.386589e-11
8.350000e+02 3.671218e-11
8.360000e+02 3.978972e-11
8.370000e+02 4.311664e-11
8.380000e+02 4.671245e-11
8.390000e+02 5.059812e-11
8.400000e+02 5.479620e-11
8.410000e+02 5.933091e-11
8.420000e+02 6.422832e-11
8.430000e+02 6.951641e-11
8.440000e+02 7.522524e-11
8.450000e+02 8.138712e-11
8.460000e+02 8.803674e-11
8.470000e+02 9.521132e-11
8.480000e+02 1.029509e-10
8.490000e+02 1.112983e-10
8.500000e+02 1.202996e-10
8.510000e+02 1.300042e-10
8.520000e+02 1.404652e-10
8.530000e+02 1.517394e-10
8.540000e+02 1.638877e-10
8.550000e+02 1.769755e-10
8.560000e+02 1.910728e-10
8.570000e+02 2.062548e-10
8.580000e+02 2.226019e-10
8.590000e+02 2.402004e-10
8.600000e+02 2.591425e-10
8.610000e+02 2.795273e-10
8.620000e+02 3.014605e-10
8.630000e+02 3.250556e-10
8.640000e+02 3.504341e-10
8.650000e+02 3.777258e-10
8.660000e+02 4.070697e-10
8.670000e+02 4.386145e-10
8.680000e+02 4.725195e-10
8.690000e+02 5.089547e-10
8.700000e+02 5.481021e-10
8.710000e+02 5.901564e-10
8.720000e+02 6.353254e-10
8.730000e+02 6.838315e-10
8.740000e+02 7.359122e-10
8.750000e+02 7.918214e-10
8.760000e+02 8.518302e-10
8.770000e+02 9.162281e-10
8.780000e+02 9.853245e-10
8.790000e+02 1.059450e-09
8.800000e+02 1.138956e-09
8.810000e+02 1.224220e-09
8.820000e+02 1.315643e-09
8.830000e+02 1.413654e-09
8.840000e+02 1.518709e-09
8.850000e+02 1.631297e-09
8.860000e+02 1.751937e-09
8.870000e+02 1.881185e-09
8.880000e+02 2.019631e-09
8.890000e+02 2.167906e-09
8.900000e+02 2.326682e-09
8.910000e+02 2.496675e-09
8.920000e+02 2.678647e-09
8.930000e+02 2.873411e-09
8.940000e+02 3.081834e-09
8.950000e+02 3.304837e-09
8.960000e+02 3.543401e-09
8.970000e+02 3.798573e-09
8.980000e+02 4.071464e-09
8.990000e+02 4.363260e-09
9.000000e+02 4.675220e-09
9.010000e+02 5.008686e-09
9.020000e+02 5.365083e-09
9.030000e+02 5.745931e-09
9.040000e+02 6.152842e-09
9.050000e+02 6.587533e-09
9.060000e+02 7.051829e-09
9.070000e+02 7.547669e-09
9.080000e+02 8.077115e-09
9.090000e+02 8.642359e-09
9.100000e+02 9.245729e-09
9.110000e+02 9.889698e-09
9.120000e+02 1.057689e-08
9.130000e+02 1.131011e-08
9.140000e+02 1.245314e-08
9.150000e+02 3.195765e-06
9.160000e+02 1.464340e-05
9.170000e+02 1.830495e-07
9.180000e+02 4.118581e-06
9.190000e+02 4.066976e-05
9.200000e+02 1.022305e-04
9.210000e+02 1.922947e-08
9.220000e+02 1.963420e-05
9.230000e+02 2.558476e-07
9.240000e+02 2.885645e-07
9.250000e+02 2.786120e-06
9.260000e+02 5.530438e-06
9.270000e+02 2.543820e-07
9.280000e+02 4.217695e-04
9.290000e+02 5.029452e-04
9.300000e+02 1.275422e-04
9.310000e+02 3.829518e-07
9.320000e+02 4.181834e-04
9.330000e+02 1.575169e-05
9.340000e+02 4.385714e-06
9.350000e+02 1.779323e-06
9.360000e+02 7.580512e-07
9.370000e+02 2.204091e-07
9.380000e+02 1.185666e-06
9.390000e+02 2.279010e-06
9.400000e+02 1.700693e-04
9.410000e+02 2.793310e-05
9.420000e+02 1.518191e-03
9.430000e+02 3.329958e-06
9.440000e+02 1.740741e-03
9.450000e+02 1.312735e-03
9.460000e+02 5.086761e-05
9.470000e+02 1.406688e-07
9.480000e+02 3.862678e-04
9.490000e+02 7.490464e-05
9.500000e+02 2.506004e-06
9.510000e+02 4.960875e-05
9.520000e+02 1.020544e-04
9.530000e+02 7.865401e-07
9.540000e+02 1.855456e-07
9.550000e+02 8.367701e-06
9.560000e+02 1.231231e-03
9.570000e+02 4.546819e-06
9.580000e+02 1.992867e-07
9.590000e+02 3.477312e-04
9.600000e+02 4.672267e-06
9.610000e+02 7.179921e-05
9.620000e+02 2.650592e-05
9.630000e+02 5.109643e-06
9.640000e+02 1.234745e-06
9.650000e+02 4.486064e-07
9.660000e+02 8.995296e-06
9.670000e+02 1.667766e-06
9.680000e+02 1.167646e-06
9.690000e+02 5.481852e-05
9.700000e+02 7.178186e-05
9.710000e+02 2.612316e-06
9.720000e+02 1.360873e-06
9.730000e+02 2.153123e-05
9.740000e+02 8.079797e-05
9.750000e+02 1.945184e-05
9.760000e+02 7.339264e-04
9.770000e+02 3.103626e-04
9.780000e+02 1.182606e-04
9.790000e+02 6.457803e-03
9.800000e+02 4.710739e-03
9.810000e+02 7.470022e-05
9.820000e+02 1.417135e-05
9.830000e+02 2.535242e-03
9.840000e+02 3.356741e-04
9.850000e+02 3.513572e-05
9.860000e+02 5.928156e-05
9.870000e+02 2.682156e-03
9.880000e+02 1.530745e-06
9.890000e+02 3.901690e-04
9.900000e+02 1.396648e-03
9.910000e+02 1.506900e-05
9.920000e+02 1.448095e-06
9.930000e+02 1.211182e-02
9.940000e+02 3.547895e-06
9.950000e+02 5.177896e-04
9.960000e+02 4.642643e-06
9.970000e+02 9.363672e-04
9.980000e+02 1.501164e-03
9.990000e+02 2.687021e-05
1.000000e+03 2.314080e-02
1.001000e+03 1.668051e-02
1.002000e+03 8.875827e-03
1.003000e+03 2.731755e-05
1.004000e+03 3.190711e-06
1.005000e+03 9.758584e-05
1.006000e+03 5.315026e-03
1.007000e+03 1.134899e-02
1.008000e+03 2.495397e-03
1.009000e+03 4.378412e-05
1.010000e+03 2.598378e-03
1.011000e+03 3.913984e-03
1.012000e+03 3.701812e-03
1.013000e+03 3.370066e-03
1.014000e+03 4.857662e-06
1.015000e+03 5.814247e-06
1.016000e+03 1.312164e-04
1.017000e+03 5.700625e-06
1.018000e+03 4.226761e-05
1.019000e+03 6.670132e-06
1.020000e+03 8.509315e-03
1.021000e+03 8.516992e-05
1.022000e+03 1.233052e-04
1.023000e+03 1.042662e-05
1.024000e+03 2.437168e-03
1.025000e+03 8.711577e-06
1.026000e+03 1.641161e-05
1.027000e+03 4.860824e-04
1.028000e+03 1.064921e-04
1.029000e+03 1.074327e-05
1.030000e+03 4.965421e-04
1.031000e+03 9.835567e-04
1.032000e+03 1.352634e-02
1.033000e+03 8.021174e-04
1.034000e+03 1.285283e-03
1.035000e+03 7.828092e-05
1.036000e+03 1.545949e-05
1.037000e+03 9.448238e-03
1.038000e+03 7.096080e-02
1.039000e+03 9.837314e-03
1.040000e+03 9.276207e-03
1.041000e+03 7.719076e-02
1.042000e+03 3.617931e-02
1.043000e+03 4.178938e-02
1.044000e+03 2.859425e-01
1.045000e+03 5.494208e-05
1.046000e+03 9.131961e-03
1.047000e+03 3.337845e-03
1.048000e+03 7.993914e-05
1.049000e+03 3.267709e-03
1.050000e+03 9.693652e-04
1.051000e+03 5.382821e-04
1.052000e+03 4.739595e-02
1.053000e+03 9.653482e-02
1.054000e+03 3.831647e-05
1.055000e+03 1.256785e-01
1.056000e+03 1.400879e-01
1.057000e+03 9.918343e-03
1.058000e+03 5.261442e-04
1.059000e+03 4.902706e-04
1.060000e+03 1.285784e-04
1.061000e+03 1.696688e-02
1.062000e+03 2.895604e-04
1.063000e+03 1.556276e-02
1.064000e+03 1.173019e-04
1.065000e+03 6.572902e-05
1.066000e+03 2.529112e-02
1.067000e+03 3.743964e-04
1.068000e+03 3.806152e-01
1.069000e+03 1.178113e-04
1.070000e+03 4.714966e-03
1.071000e+03 7.943488e-02
1.072000e+03 2.999498e-01
1.073000e+03 9.703636e-05
1.074000e+03 1.117739e-02
1.075000e+03 6.454825e-03
1.076000e+03 3.409828e-01
1.077000e+03 4.707891e-04
1.078000e+03 7.633567e-04
1.079000e+03 3.442665e-03
1.080000e+03 1.396445e-02
1.081000e+03 6.497174e-02
1.082000e+03 3.552771e-02
1.083000e+03 1.861224e-02
1.084000e+03 1.173525e+00
1.085000e+03 4.771322e-03
1.086000e+03 5.699454e-01
1.087000e+03 9.955764e-04
1.088000e+03 1.523962e+00
1.089000e+03 1.609381e+00
1.090000e+03 3.793859e-03
1.091000e+03 5.632639e-03
1.092000e+03 9.792972e-01
1.093000e+03 1.417810e+00
1.094000e+03 4.858106e-02
1.095000e+03 2.455486e+00
1.096000e+03 2.500492e-01
1.097000e+03 2.506961e-01
1.098000e+03 1.806510e+00
1.099000e+03 1.426578e-02
1.100000e+03 4.188120e-04
1.101000e+03 8.756481e-04
1.102000e+03 9.515115e-03
1.103000e+03 1.621996e+00
1.104000e+03 2.870454e+00
1.105000e+03 2.191378e+00
1.106000e+03 4.556007e-02
1.107000e+03 6.487966e-04
1.108000e+03 3.150797e-01
1.109000e+03 5.652785e-03
1.110000e+03 3.257975e+00
1.111000e+03 1.105663e+00
1.112000e+03 1.360153e-01
1.113000e+03 2.344006e+00
1.114000e+03 8.083557e-02
1.115000e+03 7.162776e-03
1.116000e+03 2.808289e-03
1.117000e+03 1.240932e+00
1.118000e+03 9.541541e-03
1.119000e+03 1.580203e-01
1.120000e+03 3.979206e-03
1.121000e+03 7.527528e-01
1.122000e+03 5.970712e+00
1.123000e+03 1.770380e+00
1.124000e+03 2.094159e+00
1.125000e+03 8.274982e-01
1.126000e+03 1.338248e+01
1.127000e+03 1.106731e+00
1.128000e+03 5.624287e+00
1.129000e+03 4.809375e-01
1.130000e+03 3.472107e+00
1.131000e+03 5.952697e+00
1.132000e+03 7.382289e-03
1.133000e+03 5.128002e-02
1.134000e+03 6.080890e-01
1.135000e+03 5.063523e+00
1.136000e+03 1.078303e-01
1.137000e+03 2.348012e+00
1.138000e+03 4.936028e-01
1.139000e+03 5.893424e+00
1.140000e+03 5.409649e+00
1.141000e+03 4.946064e+00
1.142000e+03 7.792369e+00
1.143000e+03 6.592960e-01
1.144000e+03 7.464773e+00
1.145000e+03 4.608631e-03
1.146000e+03 8.705086e+00
1.147000e+03 5.937351e+00
1.148000e+03 3.015757e-02
1.149000e+03 2.678981e+00
1.150000e+03 1.787499e+00
1.151000e+03 7.713151e+00
1.152000e+03 3.609272e+00
1.153000e+03 6.222868e+00
1.154000e+03 9.475568e+00
1.155000e+03 2.472915e+00
1.156000e+03 7.349190e+00
1.157000e+03 8.569573e+00
1.158000e+03 7.983894e-01
1.159000e+03 7.349434e+00
1.160000e+03 1.063752e+00
1.161000e+03 6.130192e+00
1.162000e+03 1.329224e-01
1.163000e+03 4.732461e-01
1.164000e+03 4.875517e-02
1.165000e+03 2.850324e+00
1.166000e+03 1.666300e+00
1.167000e+03 1.502044e+00
1.168000e+03 8.776784e+00
1.169000e+03 9.918280e+00
1.170000e+03 1.046800e+00
1.171000e+03 4.279517e+00
1.172000e+03 1.617254e+00
1.173000e+03 3.755422e+00
1.174000e+03 2.584535e-02
1.175000e+03 2.981633e-02
1.176000e+03 1.156199e-02
1.177000e+03 1.237744e+01
1.178000e+03 1.204293e+01
1.179000e+03 9.748053e+00
1.180000e+03 3.593687e+00
1.181000e+03 1.061468e+01
1.182000e+03 8.658906e+00
1.183000e+03 3.701430e+00
1.184000e+03 2.962681e+00
1.185000e+03 3.830263e+00
1.186000e+03 1.291154e-01
1.187000e+03 6.339087e+00
1.188000e+03 2.252166e+00
1.189000e+03 8.706645e+00
1.190000e+03 8.248388e+00
1.191000e+03 5.716638e+00
1.192000e+03 6.883650e+00
1.193000e+03 4.885645e+00
1.194000e+03 6.638843e+00
1.195000e+03 6.242754e+00
1.196000e+03 2.960782e+01
1.197000e+03 7.134435e+01
1.198000e+03 3.886185e-01
1.199000e+03 6.345796e+01
1.200000e+03 1.262007e+00
1.201000e+03 4.461810e+01
1.202000e+03 8.254949e+00
1.203000e+03 2.815198e+01
1.204000e+03 1.368615e+00
1.205000e+03 1.885304e+01
1.206000e+03 1.850138e+01
1.207000e+03 4.403833e+00
1.208000e+03 1.053054e+01
1.209000e+03 9.721342e+00
1.210000e+03 5.451822e-02
1.211000e+03 4.068945e+00
1.212000e+03 1.691726e+00
1.213000e+03 1.071571e+00
1.214000e+03 3.454664e-01
1.215000e+03 5.439241e-02
1.216000e+03 3.889525e-02
1.217000e+03 2.203782e-01
1.218000e+03 8.998846e-01
1.219000e+03 2.220129e+00
1.220000e+03 1.331857e+00
1.221000e+03 7.739978e+00
1.222000e+03 9.387699e+00
1.223000e+03 8.682038e+00
1.224000e+03 2.354450e+01
1.225000e+03 6.860962e-01
1.226000e+03 4.659182e+01
1.227000e+03 5.268074e+01
1.228000e+03 5.027607e+00
1.229000e+03 4.793277e+01
1.230000e+03 3.250724e+01
1.231000e+03 2.788223e+00
1.232000e+03 1.414265e+02
1.233000e+03 1.670549e+02
1.234000e+03 1.655351e+02
1.235000e+03 1.288226e+02
1.236000e+03 8.006767e+00
1.237000e+03 2.166624e+02
1.238000e+03 1.738140e+02
1.239000e+03 5.385258e+01
1.240000e+03 1.217772e+02
1.241000e+03 6.203508e+01
1.242000e+03 1.546438e+02
1.243000e+03 3.123824e+02
1.244000e+03 3.579495e+02
1.245000e+03 2.991557e+02
1.246000e+03 1.280653e+02
1.247000e+03 2.104856e+02
1.248000e+03 3.451584e+02
1.249000e+03 4.830078e+02
1.250000e+03 2.669832e+02
1.251000e+03 4.467561e+02
1.252000e+03 2.670388e+02
1.253000e+03 5.085674e+02
1.254000e+03 3.006819e+02
1.255000e+03 1.514639e+02
1.256000e+03 2.214913e+02
1.257000e+03 3.022522e+02
1.258000e+03 8.999295e+01
1.259000e+03 1.576128e+02
1.260000e+03 5.062851e+02
1.261000e+03 1.881390e+01
1.262000e+03 5.869628e+02
1.263000e+03 3.908788e+02
1.264000e+03 1.224488e+02
1.265000e+03 1.770840e+02
1.266000e+03 5.715060e+02
1.267000e+03 2.070663e+02
