# wavelength_A flux
5.000000e+02 3.564098e-10
5.010000e+02 4.078170e-10
5.020000e+02 4.663797e-10
5.030000e+02 5.330571e-10
5.040000e+02 6.089327e-10
5.050000e+02 7.063274e-10
5.060000e+02 8.058992e-10
5.070000e+02 9.190128e-10
5.080000e+02 1.047442e-09
5.090000e+02 1.193193e-09
5.100000e+02 1.358496e-09
5.110000e+02 1.545886e-09
5.120000e+02 1.758206e-09
5.130000e+02 1.998648e-09
5.140000e+02 2.270798e-09
5.150000e+02 2.578664e-09
5.160000e+02 2.926814e-09
5.170000e+02 3.320175e-09
5.180000e+02 3.764697e-09
5.190000e+02 4.266484e-09
5.200000e+02 4.832741e-09
5.210000e+02 5.471433e-09
5.220000e+02 6.191045e-09
5.230000e+02 7.002858e-09
5.240000e+02 7.916706e-09
5.250000e+02 8.945542e-09
5.260000e+02 1.010315e-08
5.270000e+02 1.140511e-08
5.280000e+02 1.286871e-08
5.290000e+02 1.451107e-08
5.300000e+02 1.636027e-08
5.310000e+02 1.843371e-08
5.320000e+02 2.076031e-08
5.330000e+02 2.336970e-08
5.340000e+02 2.629496e-08
5.350000e+02 2.957283e-08
5.360000e+02 3.324406e-08
5.370000e+02 3.705735e-08
5.380000e+02 4.195353e-08
5.390000e+02 4.709902e-08
5.400000e+02 5.285148e-08
5.410000e+02 5.927711e-08
5.420000e+02 6.646122e-08
5.430000e+02 7.448049e-08
5.440000e+02 8.343056e-08
5.450000e+02 9.341572e-08
5.460000e+02 1.045386e-07
5.470000e+02 1.169635e-07
5.480000e+02 1.307939e-07
5.490000e+02 1.461982e-07
5.500000e+02 1.633478e-07
5.510000e+02 1.824329e-07
5.520000e+02 2.036631e-07
5.530000e+02 2.272698e-07
5.540000e+02 2.535085e-07
5.550000e+02 2.826607e-07
5.560000e+02 3.150372e-07
5.570000e+02 3.509800e-07
5.580000e+02 3.908662e-07
5.590000e+02 4.351109e-07
5.600000e+02 4.841712e-07
5.610000e+02 5.385499e-07
5.620000e+02 5.988002e-07
5.630000e+02 6.655301e-07
5.640000e+02 7.394082e-07
5.650000e+02 8.211684e-07
5.660000e+02 9.116190e-07
5.670000e+02 1.011644e-06
5.680000e+02 1.122216e-06
5.690000e+02 1.244401e-06
5.700000e+02 1.379368e-06
5.710000e+02 1.528402e-06
5.720000e+02 1.692905e-06
5.730000e+02 1.874418e-06
5.740000e+02 2.074625e-06
5.750000e+02 2.295397e-06
5.760000e+02 2.538549e-06
5.770000e+02 2.806789e-06
5.780000e+02 3.102056e-06
5.790000e+02 3.427152e-06
5.800000e+02 3.784962e-06
5.810000e+02 4.178640e-06
5.820000e+02 4.611626e-06
5.830000e+02 5.087653e-06
5.840000e+02 5.609898e-06
5.850000e+02 6.185576e-06
5.860000e+02 6.817265e-06
5.870000e+02 7.510606e-06
5.880000e+02 8.271597e-06
5.890000e+02 9.106503e-06
5.900000e+02 1.002243e-05
5.910000e+02 1.102667e-05
5.920000e+02 1.212745e-05
5.930000e+02 1.333365e-05
5.940000e+02 1.465495e-05
5.950000e+02 1.610172e-05
5.960000e+02 1.768578e-05
5.970000e+02 1.941915e-05
5.980000e+02 2.131545e-05
5.990000e+02 2.338934e-05
6.000000e+02 2.565673e-05
6.010000e+02 2.813439e-05
6.020000e+02 3.084254e-05
6.030000e+02 3.380002e-05
6.040000e+02 3.702936e-05
6.050000e+02 4.055453e-05
6.060000e+02 4.440129e-05
6.070000e+02 4.859791e-05
6.080000e+02 5.317462e-05
6.090000e+02 5.816439e-05
6.100000e+02 6.360285e-05
6.110000e+02 6.952861e-05
6.120000e+02 7.598334e-05
6.130000e+02 8.301219e-05
6.140000e+02 9.066395e-05
6.150000e+02 9.899140e-05
6.160000e+02 1.080515e-04
6.170000e+02 1.179059e-04
6.180000e+02 1.286210e-04
6.190000e+02 1.402687e-04
6.200000e+02 1.529265e-04
6.210000e+02 1.666781e-04
6.220000e+02 1.816138e-04
6.230000e+02 1.978308e-04
6.240000e+02 2.154342e-04
6.250000e+02 2.345371e-04
6.260000e+02 2.552614e-04
6.270000e+02 2.777386e-04
6.280000e+02 3.021101e-04
6.290000e+02 3.285283e-04
6.300000e+02 3.571573e-04
6.310000e+02 3.881467e-04
6.320000e+02 4.217671e-04
6.330000e+02 4.581413e-04
6.340000e+02 4.975187e-04
6.350000e+02 5.401320e-04
6.360000e+02 5.860813e-04
6.370000e+02 6.361085e-04
6.380000e+02 6.900360e-04
6.390000e+02 7.483358e-04
6.400000e+02 8.113462e-04
6.410000e+02 8.794297e-04
6.420000e+02 9.529761e-04
6.430000e+02 1.032403e-03
6.440000e+02 1.118159e-03
6.450000e+02 1.210724e-03
6.460000e+02 1.310615e-03
6.470000e+02 1.418383e-03
6.480000e+02 1.534621e-03
6.490000e+02 1.659962e-03
6.500000e+02 1.795087e-03
6.510000e+02 1.940722e-03
6.520000e+02 2.097646e-03
6.530000e+02 2.266694e-03
6.540000e+02 2.448757e-03
6.550000e+02 2.644790e-03
6.560000e+02 2.855813e-03
6.570000e+02 3.082887e-03
6.580000e+02 3.327273e-03
6.590000e+02 3.590124e-03
6.600000e+02 3.872802e-03
6.610000e+02 4.176739e-03
6.620000e+02 4.503448e-03
6.630000e+02 4.854556e-03
6.640000e+02 5.231798e-03
6.650000e+02 5.637018e-03
6.660000e+02 6.072209e-03
6.670000e+02 6.539463e-03
6.680000e+02 7.041031e-03
6.690000e+02 7.579313e-03
6.700000e+02 8.156865e-03
6.710000e+02 8.776410e-03
6.720000e+02 9.440852e-03
6.730000e+02 1.015329e-02
6.740000e+02 1.091702e-02
6.750000e+02 1.173554e-02
6.760000e+02 1.261261e-02
6.770000e+02 1.355219e-02
6.780000e+02 1.455853e-02
6.790000e+02 1.563614e-02
6.800000e+02 1.678980e-02
6.810000e+02 1.802463e-02
6.820000e+02 1.934604e-02
6.830000e+02 2.075981e-02
6.840000e+02 2.227208e-02
6.850000e+02 2.388934e-02
6.860000e+02 2.561856e-02
6.870000e+02 2.746702e-02
6.880000e+02 2.944269e-02
6.890000e+02 3.155372e-02
6.900000e+02 3.380898e-02
6.910000e+02 3.621784e-02
6.920000e+02 3.879021e-02
6.930000e+02 4.153664e-02
6.940000e+02 4.446830e-02
6.950000e+02 4.759706e-02
6.960000e+02 5.093550e-02
6.970000e+02 5.449648e-02
6.980000e+02 5.829553e-02
6.990000e+02 6.234625e-02
7.000000e+02 6.666498e-02
7.010000e+02 7.126854e-02
7.020000e+02 7.617477e-02
7.030000e+02 8.140252e-02
7.040000e+02 8.697179e-02
7.050000e+02 9.290374e-02
7.060000e+02 9.922076e-02
7.070000e+02 1.059466e-01
7.080000e+02 1.131062e-01
7.090000e+02 1.207262e-01
7.100000e+02 1.288348e-01
7.110000e+02 1.374615e-01
7.120000e+02 1.466377e-01
7.130000e+02 1.563966e-01
7.140000e+02 1.667733e-01
7.150000e+02 1.778048e-01
7.160000e+02 1.895303e-01
7.170000e+02 2.019908e-01
7.180000e+02 2.152296e-01
7.190000e+02 2.292962e-01
7.200000e+02 2.442352e-01
7.210000e+02 2.600995e-01
7.220000e+02 2.769433e-01
7.230000e+02 2.948241e-01
7.240000e+02 3.138022e-01
7.250000e+02 3.339414e-01
7.260000e+02 3.553089e-01
7.270000e+02 3.779756e-01
7.280000e+02 4.020163e-01
7.290000e+02 4.275098e-01
7.300000e+02 4.545393e-01
7.310000e+02 4.831923e-01
7.320000e+02 5.135610e-01
7.330000e+02 5.457426e-01
7.340000e+02 5.798396e-01
7.350000e+02 6.159598e-01
7.360000e+02 6.542165e-01
7.370000e+02 6.947299e-01
7.380000e+02 7.376252e-01
7.390000e+02 7.830350e-01
7.400000e+02 8.310980e-01
7.410000e+02 8.819631e-01
7.420000e+02 9.357814e-01
7.430000e+02 9.927185e-01
7.440000e+02 1.052943e+00
7.450000e+02 1.116634e+00
7.460000e+02 1.183980e+00
7.470000e+02 1.255181e+00
7.480000e+02 1.330445e+00
7.490000e+02 1.409990e+00
7.500000e+02 1.494046e+00
7.510000e+02 1.582856e+00
7.520000e+02 1.676672e+00
7.530000e+02 1.775762e+00
7.540000e+02 1.880406e+00
7.550000e+02 1.990898e+00
7.560000e+02 2.107545e+00
7.570000e+02 2.230659e+00
7.580000e+02 2.360619e+00
7.590000e+02 2.497738e+00
7.600000e+02 2.642415e+00
7.610000e+02 2.795031e+00
7.620000e+02 2.956002e+00
7.630000e+02 3.125757e+00
7.640000e+02 3.304749e+00
7.650000e+02 3.493454e+00
7.660000e+02 3.692369e+00
7.670000e+02 3.902012e+00
7.680000e+02 4.122922e+00
7.690000e+02 4.355701e+00
7.700000e+02 4.600916e+00
7.710000e+02 4.859206e+00
7.720000e+02 5.131227e+00
7.730000e+02 5.417669e+00
7.740000e+02 5.719251e+00
7.750000e+02 6.036728e+00
7.760000e+02 6.370708e+00
7.770000e+02 6.722561e+00
7.780000e+02 7.092608e+00
7.790000e+02 7.481935e+00
7.800000e+02 7.891488e+00
7.810000e+02 8.322257e+00
7.820000e+02 8.775277e+00
7.830000e+02 9.251630e+00
7.840000e+02 9.752449e+00
7.850000e+02 1.027892e+01
7.860000e+02 1.083227e+01
7.870000e+02 1.141381e+01
7.880000e+02 1.202487e+01
7.890000e+02 1.266687e+01
7.900000e+02 1.334129e+01
7.910000e+02 1.404965e+01
7.920000e+02 1.479359e+01
7.930000e+02 1.557476e+01
7.940000e+02 1.639494e+01
7.950000e+02 1.725594e+01
7.960000e+02 1.815968e+01
7.970000e+02 1.910816e+01
7.980000e+02 2.010345e+01
7.990000e+02 2.114775e+01
8.000000e+02 2.224329e+01
8.010000e+02 2.339246e+01
8.020000e+02 2.459774e+01
8.030000e+02 2.586168e+01
8.040000e+02 2.718696e+01
8.050000e+02 2.857640e+01
8.060000e+02 3.003291e+01
8.070000e+02 3.155953e+01
8.080000e+02 3.315942e+01
8.090000e+02 3.483591e+01
8.100000e+02 3.659243e+01
8.110000e+02 3.843256e+01
8.120000e+02 4.036005e+01
8.130000e+02 4.237880e+01
8.140000e+02 4.449286e+01
8.150000e+02 4.670642e+01
8.160000e+02 4.902397e+01
8.170000e+02 5.145000e+01
8.180000e+02 5.398933e+01
8.190000e+02 5.664690e+01
8.200000e+02 5.942789e+01
8.210000e+02 6.233768e+01
8.220000e+02 6.538187e+01
8.230000e+02 6.856626e+01
8.240000e+02 7.189694e+01
8.250000e+02 7.538020e+01
8.260000e+02 7.902259e+01
8.270000e+02 8.283093e+01
8.280000e+02 8.681232e+01
8.290000e+02 9.097413e+01
8.300000e+02 9.532402e+01
8.310000e+02 9.986996e+01
8.320000e+02 1.046202e+02
8.330000e+02 1.095835e+02
8.340000e+02 1.147686e+02
8.350000e+02 1.201801e+02
8.360000e+02 1.258417e+02
8.370000e+02 1.317500e+02
8.380000e+02 1.379192e+02
8.390000e+02 1.443608e+02
8.400000e+02 1.510856e+02
8.410000e+02 1.581054e+02
8.420000e+02 1.654311e+02
8.430000e+02 1.730794e+02
8.440000e+02 1.810590e+02
8.450000e+02 1.893850e+02
8.460000e+02 1.980715e+02
8.470000e+02 2.071330e+02
8.480000e+02 2.165848e+02
8.490000e+02 2.264425e+02
8.500000e+02 2.367224e+02
8.510000e+02 2.474416e+02
8.520000e+02 2.586174e+02
8.530000e+02 2.702683e+02
8.540000e+02 2.824135e+02
8.550000e+02 2.950717e+02
8.560000e+02 3.082635e+02
8.570000e+02 3.220100e+02
8.580000e+02 3.363331e+02
8.590000e+02 3.512554e+02
8.600000e+02 3.668003e+02
8.610000e+02 3.829921e+02
8.620000e+02 3.998559e+02
8.630000e+02 4.174177e+02
8.640000e+02 4.357048e+02
8.650000e+02 4.547446e+02
8.660000e+02 4.745670e+02
8.670000e+02 4.952012e+02
8.680000e+02 5.166785e+02
8.690000e+02 5.390312e+02
8.700000e+02 5.622919e+02
8.710000e+02 5.864968e+02
8.720000e+02 6.116800e+02
8.730000e+02 6.378789e+02
8.740000e+02 6.651319e+02
8.750000e+02 6.934785e+02
8.760000e+02 7.229595e+02
8.770000e+02 7.536171e+02
8.780000e+02 7.854964e+02
8.790000e+02 8.186413e+02
8.800000e+02 8.530992e+02
8.810000e+02 8.889188e+02
8.820000e+02 9.261500e+02
8.830000e+02 9.648448e+02
8.840000e+02 1.005057e+03
8.850000e+02 1.046842e+03
8.860000e+02 1.090257e+03
8.870000e+02 1.135361e+03
8.880000e+02 1.182216e+03
8.890000e+02 1.230885e+03
8.900000e+02 1.281434e+03
8.910000e+02 1.333930e+03
8.920000e+02 1.387726e+03
8.930000e+02 1.445044e+03
8.940000e+02 1.503809e+03
8.950000e+02 1.564815e+03
8.960000e+02 1.628142e+03
8.970000e+02 1.693872e+03
8.980000e+02 1.762089e+03
8.990000e+02 1.832880e+03
9.000000e+02 1.906338e+03
9.010000e+02 1.982554e+03
9.020000e+02 2.061626e+03
9.030000e+02 2.143653e+03
9.040000e+02 2.228735e+03
9.050000e+02 2.316986e+03
9.060000e+02 2.408509e+03
9.070000e+02 2.503406e+03
9.080000e+02 2.601829e+03
9.090000e+02 2.703863e+03
9.100000e+02 2.809645e+03
9.110000e+02 2.919305e+03
9.120000e+02 3.032994e+03
9.130000e+02 3.139240e+03
9.140000e+02 3.300813e+03
9.150000e+02 1.510932e+04
9.160000e+02 2.985963e+04
9.170000e+02 3.077496e+04
9.180000e+02 2.989458e+04
9.190000e+02 3.549519e+04
9.200000e+02 3.715524e+04
9.210000e+02 4.240386e+03
9.220000e+02 3.964309e+04
9.230000e+02 3.623994e+04
9.240000e+02 3.910087e+04
9.250000e+02 4.298151e+04
9.260000e+02 4.292852e+04
9.270000e+02 4.562110e+04
9.280000e+02 4.806748e+04
9.290000e+02 4.517080e+04
9.300000e+02 5.061309e+04
9.310000e+02 4.939000e+04
9.320000e+02 5.444632e+04
9.330000e+02 5.614256e+04
9.340000e+02 5.794496e+04
9.350000e+02 1.341079e+04
9.360000e+02 5.856313e+04
9.370000e+02 1.140920e+04
9.380000e+02 3.874256e+04
9.390000e+02 6.601217e+04
9.400000e+02 6.964365e+04
9.410000e+02 2.949546e+04
9.420000e+02 7.383973e+04
9.430000e+02 7.538950e+04
9.440000e+02 6.150296e+04
9.450000e+02 8.107502e+04
9.460000e+02 8.341734e+04
9.470000e+02 7.723484e+04
9.480000e+02 7.922792e+04
9.490000e+02 9.055044e+04
9.500000e+02 1.906628e+04
9.510000e+02 9.434866e+04
9.520000e+02 9.985012e+04
9.530000e+02 9.567257e+04
9.540000e+02 8.872003e+04
9.550000e+02 1.086641e+05
9.560000e+02 1.018064e+05
9.570000e+02 7.028514e+04
9.580000e+02 1.002565e+05
9.590000e+02 1.236521e+05
9.600000e+02 2.507295e+04
9.610000e+02 1.308867e+05
9.620000e+02 1.340806e+05
9.630000e+02 1.381812e+05
9.640000e+02 2.040139e+04
9.650000e+02 1.313150e+05
9.660000e+02 1.504778e+05
9.670000e+02 1.516068e+05
9.680000e+02 1.503045e+05
9.690000e+02 1.639051e+05
9.700000e+02 1.688267e+05
9.710000e+02 1.677481e+05
9.720000e+02 1.648958e+05
9.730000e+02 1.683753e+05
9.740000e+02 1.880841e+05
9.750000e+02 1.943301e+05
9.760000e+02 2.021600e+05
9.770000e+02 2.079168e+05
9.780000e+02 2.126705e+05
9.790000e+02 2.205967e+05
9.800000e+02 2.269049e+05
9.810000e+02 2.324031e+05
9.820000e+02 2.348676e+05
9.830000e+02 2.467959e+05
9.840000e+02 1.169180e+05
9.850000e+02 2.591057e+05
9.860000e+02 2.659646e+05
9.870000e+02 2.759581e+05
9.880000e+02 2.624978e+05
9.890000e+02 2.428541e+05
9.900000e+02 5.476242e+04
9.910000e+02 2.926841e+05
9.920000e+02 2.449669e+05
9.930000e+02 3.131238e+05
9.940000e+02 6.070553e+04
9.950000e+02 1.136659e+05
9.960000e+02 3.067028e+05
9.970000e+02 9.314184e+04
9.980000e+02 3.718711e+05
9.990000e+02 3.685856e+05
1.000000e+03 3.940953e+05
1.001000e+03 4.051694e+05
1.002000e+03 4.160173e+05
1.003000e+03 4.026976e+05
1.004000e+03 4.133323e+05
1.005000e+03 4.220612e+05
1.006000e+03 4.630628e+05
1.007000e+03 4.756188e+05
1.008000e+03 4.877185e+05
1.009000e+03 4.880301e+05
1.010000e+03 5.145213e+05
1.011000e+03 5.285608e+05
1.012000e+03 5.421789e+05
1.013000e+03 5.563611e+05
1.014000e+03 4.417742e+05
1.015000e+03 5.281547e+05
1.016000e+03 5.886800e+05
1.017000e+03 4.882004e+05
1.018000e+03 6.230446e+05
1.019000e+03 5.935603e+05
1.020000e+03 6.657680e+05
1.021000e+03 3.923725e+05
1.022000e+03 6.175007e+05
1.023000e+03 6.430754e+05
1.024000e+03 6.897068e+05
1.025000e+03 4.711052e+05
1.026000e+03 2.977268e+05
1.027000e+03 7.121996e+05
1.028000e+03 2.093640e+05
1.029000e+03 6.684171e+05
1.030000e+03 8.478861e+05
1.031000e+03 8.707182e+05
1.032000e+03 9.037756e+05
1.033000e+03 3.694919e+05
1.034000e+03 9.512606e+05
1.035000e+03 2.260376e+05
1.036000e+03 7.991227e+05
1.037000e+03 6.128494e+05
1.038000e+03 1.059057e+06
1.039000e+03 1.080095e+06
1.040000e+03 1.112771e+06
1.041000e+03 1.134780e+06
1.042000e+03 1.164664e+06
1.043000e+03 1.152153e+06
1.044000e+03 1.230353e+06
1.045000e+03 1.259760e+06
1.046000e+03 1.293633e+06
1.047000e+03 1.317503e+06
1.048000e+03 1.280051e+06
1.049000e+03 1.371917e+06
1.050000e+03 1.419596e+06
1.051000e+03 1.446162e+06
1.052000e+03 1.498766e+06
1.053000e+03 1.529502e+06
1.054000e+03 1.236174e+06
1.055000e+03 1.611204e+06
1.056000e+03 1.653229e+06
1.057000e+03 1.687055e+06
1.058000e+03 1.723390e+06
1.059000e+03 1.713701e+06
1.060000e+03 1.723324e+06
1.061000e+03 1.859088e+06
1.062000e+03 1.885238e+06
1.063000e+03 8.387748e+05
1.064000e+03 4.781676e+05
1.065000e+03 1.694954e+06
1.066000e+03 1.884569e+06
1.067000e+03 2.037982e+06
1.068000e+03 2.209352e+06
1.069000e+03 1.995770e+06
1.070000e+03 2.301284e+06
1.071000e+03 2.371942e+06
1.072000e+03 2.427830e+06
1.073000e+03 2.146578e+06
1.074000e+03 2.527173e+06
1.075000e+03 2.577854e+06
1.076000e+03 2.665689e+06
1.077000e+03 2.639370e+06
1.078000e+03 2.762326e+06
1.079000e+03 2.839637e+06
1.080000e+03 2.914242e+06
1.081000e+03 2.987470e+06
1.082000e+03 3.055290e+06
1.083000e+03 3.123159e+06
1.084000e+03 3.205786e+06
1.085000e+03 2.738755e+06
1.086000e+03 3.354892e+06
1.087000e+03 3.308864e+06
1.088000e+03 3.502225e+06
1.089000e+03 3.590066e+06
1.090000e+03 3.624445e+06
1.091000e+03 3.702154e+06
1.092000e+03 3.839440e+06
1.093000e+03 3.924155e+06
1.094000e+03 4.009274e+06
1.095000e+03 4.104395e+06
1.096000e+03 4.186140e+06
1.097000e+03 4.265658e+06
1.098000e+03 4.373944e+06
1.099000e+03 4.468322e+06
1.100000e+03 4.288604e+06
1.101000e+03 4.202472e+06
1.102000e+03 8.853501e+06
1.103000e+03 2.821277e+07
1.104000e+03 1.074176e+07
1.105000e+03 4.782516e+06
1.106000e+03 5.057078e+07
1.107000e+03 1.473643e+07
1.108000e+03 5.784991e+07
1.109000e+03 2.902954e+07
1.110000e+03 1.874092e+07
1.111000e+03 1.034852e+07
1.112000e+03 5.565686e+07
1.113000e+03 6.546211e+07
1.114000e+03 4.137526e+06
1.115000e+03 4.524217e+07
1.116000e+03 4.113305e+07
1.117000e+03 4.219412e+06
1.118000e+03 3.753020e+07
1.119000e+03 6.762470e+07
1.120000e+03 4.487070e+07
1.121000e+03 6.633140e+07
1.122000e+03 1.916680e+06
1.123000e+03 1.126467e+07
1.124000e+03 7.612565e+07
1.125000e+03 4.705842e+07
1.126000e+03 8.053130e+07
1.127000e+03 7.870056e+07
1.128000e+03 3.197873e+07
1.129000e+03 7.726927e+07
1.130000e+03 7.879333e+07
1.131000e+03 8.675342e+07
1.132000e+03 5.632184e+06
1.133000e+03 5.399954e+07
1.134000e+03 8.257183e+07
1.135000e+03 3.854772e+06
1.136000e+03 7.520962e+07
1.137000e+03 9.469533e+07
1.138000e+03 8.853924e+07
1.139000e+03 9.616134e+07
1.140000e+03 3.457844e+06
1.141000e+03 1.006445e+08
1.142000e+03 1.026128e+08
1.143000e+03 1.026208e+08
1.144000e+03 1.069730e+08
1.145000e+03 4.402390e+07
1.146000e+03 1.106492e+08
1.147000e+03 1.101502e+08
1.148000e+03 7.452190e+07
1.149000e+03 1.143088e+08
1.150000e+03 1.098481e+08
1.151000e+03 1.188469e+08
1.152000e+03 1.202929e+08
1.153000e+03 5.032000e+07
1.154000e+03 3.078048e+07
1.155000e+03 1.199873e+08
1.156000e+03 5.119109e+07
1.157000e+03 1.306865e+08
1.158000e+03 5.939802e+06
1.159000e+03 1.186589e+08
1.160000e+03 1.247908e+08
1.161000e+03 1.388664e+08
1.162000e+03 4.096210e+07
1.163000e+03 1.236842e+08
1.164000e+03 6.680584e+06
1.165000e+03 1.477903e+08
1.166000e+03 1.475766e+08
1.167000e+03 1.473824e+08
1.168000e+03 1.569475e+08
1.169000e+03 1.563698e+08
1.170000e+03 1.597912e+08
1.171000e+03 1.632801e+08
1.172000e+03 1.518751e+08
1.173000e+03 1.712095e+08
1.174000e+03 1.069239e+08
1.175000e+03 8.007424e+06
1.176000e+03 7.311616e+06
1.177000e+03 1.835463e+08
1.178000e+03 1.819417e+08
1.179000e+03 1.890672e+08
1.180000e+03 1.442308e+08
1.181000e+03 1.951819e+08
1.182000e+03 1.984369e+08
1.183000e+03 1.981653e+08
1.184000e+03 1.992385e+08
1.185000e+03 2.050593e+08
1.186000e+03 1.774187e+08
1.187000e+03 2.116721e+08
1.188000e+03 1.988609e+08
1.189000e+03 9.896656e+06
1.190000e+03 5.291810e+07
1.191000e+03 2.171583e+08
1.192000e+03 2.228067e+08
1.193000e+03 9.530304e+06
1.194000e+03 1.128874e+07
1.195000e+03 1.793704e+08
1.196000e+03 2.286166e+08
1.197000e+03 3.461248e+08
1.198000e+03 2.965882e+08
1.199000e+03 3.401186e+08
1.200000e+03 2.760246e+08
1.201000e+03 3.205370e+08
1.202000e+03 2.991240e+08
1.203000e+03 3.976354e+08
1.204000e+03 2.943350e+08
1.205000e+03 3.326299e+08
1.206000e+03 3.099080e+08
1.207000e+03 5.239280e+07
1.208000e+03 2.335877e+08
1.209000e+03 1.802258e+08
1.210000e+03 1.546890e+07
1.211000e+03 1.077448e+08
1.212000e+03 7.265027e+07
1.213000e+03 4.622368e+07
1.214000e+03 2.759394e+07
1.215000e+03 1.756471e+07
1.216000e+03 1.605254e+07
1.217000e+03 2.451510e+07
1.218000e+03 4.250312e+07
1.219000e+03 7.176221e+07
1.220000e+03 1.096806e+08
1.221000e+03 1.615159e+08
1.222000e+03 2.175596e+08
1.223000e+03 2.811796e+08
1.224000e+03 3.512840e+08
1.225000e+03 3.446329e+08
1.226000e+03 4.962647e+08
1.227000e+03 5.636898e+08
1.228000e+03 5.672127e+08
1.229000e+03 6.950958e+08
1.230000e+03 7.330577e+08
1.231000e+03 7.019095e+08
1.232000e+03 9.380625e+08
1.233000e+03 1.009262e+09
1.234000e+03 6.223736e+08
1.235000e+03 1.127462e+09
1.236000e+03 9.215731e+08
1.237000e+03 1.251924e+09
1.238000e+03 1.266409e+09
1.239000e+03 1.308766e+09
1.240000e+03 1.230718e+09
1.241000e+03 1.877062e+09
1.242000e+03 1.194509e+09
1.243000e+03 1.870969e+09
1.244000e+03 7.864145e+08
1.245000e+03 1.157001e+09
1.246000e+03 2.890515e+09
1.247000e+03 2.930473e+09
1.248000e+03 8.221380e+08
1.249000e+03 1.099334e+09
1.250000e+03 3.371962e+09
1.251000e+03 3.771597e+09
1.252000e+03 3.604127e+09
1.253000e+03 3.950507e+09
1.254000e+03 3.735120e+09
1.255000e+03 4.157702e+09
1.256000e+03 3.889086e+09
1.257000e+03 4.268332e+09
1.258000e+03 3.401733e+09
1.259000e+03 4.044281e+09
1.260000e+03 3.850199e+09
1.261000e+03 3.818815e+07
1.262000e+03 5.013161e+08
1.263000e+03 4.697249e+09
1.264000e+03 3.725986e+09
1.265000e+03 3.995840e+07
1.266000e+03 4.846018e+09
1.267000e+03 4.366594e+09
