# wavelength_A flux
5.000000e+02 6.285765e-15
5.010000e+02 7.349600e-15
5.020000e+02 8.587970e-15
5.030000e+02 1.002860e-14
5.040000e+02 1.170348e-14
5.050000e+02 1.416064e-14
5.060000e+02 1.650102e-14
5.070000e+02 1.921627e-14
5.080000e+02 2.236453e-14
5.090000e+02 2.601333e-14
5.100000e+02 3.023801e-14
5.110000e+02 3.512785e-14
5.120000e+02 4.078372e-14
5.130000e+02 4.732184e-14
5.140000e+02 5.487544e-14
5.150000e+02 6.359586e-14
5.160000e+02 7.366158e-14
5.170000e+02 8.526404e-14
5.180000e+02 9.864796e-14
5.190000e+02 1.140602e-13
5.200000e+02 1.318046e-13
5.210000e+02 1.522220e-13
5.220000e+02 1.756741e-13
5.230000e+02 2.026903e-13
5.240000e+02 2.336944e-13
5.250000e+02 2.692904e-13
5.260000e+02 3.101346e-13
5.270000e+02 3.569768e-13
5.280000e+02 4.106683e-13
5.290000e+02 4.720083e-13
5.300000e+02 5.426046e-13
5.310000e+02 6.232016e-13
5.320000e+02 7.153893e-13
5.330000e+02 8.207713e-13
5.340000e+02 9.411771e-13
5.350000e+02 1.078677e-12
5.360000e+02 1.235603e-12
5.370000e+02 1.387770e-12
5.380000e+02 1.618753e-12
5.390000e+02 1.851322e-12
5.400000e+02 2.116440e-12
5.410000e+02 2.417913e-12
5.420000e+02 2.761427e-12
5.430000e+02 3.151868e-12
5.440000e+02 3.595713e-12
5.450000e+02 4.100015e-12
5.460000e+02 4.671697e-12
5.470000e+02 5.322816e-12
5.480000e+02 6.060358e-12
5.490000e+02 6.896771e-12
5.500000e+02 7.844782e-12
5.510000e+02 8.918830e-12
5.520000e+02 1.013505e-11
5.530000e+02 1.151163e-11
5.540000e+02 1.306898e-11
5.550000e+02 1.483001e-11
5.560000e+02 1.682046e-11
5.570000e+02 1.906915e-11
5.580000e+02 2.160843e-11
5.590000e+02 2.447455e-11
5.600000e+02 2.770810e-11
5.610000e+02 3.135454e-11
5.620000e+02 3.546476e-11
5.630000e+02 4.009566e-11
5.640000e+02 4.531088e-11
5.650000e+02 5.118135e-11
5.660000e+02 5.778718e-11
5.670000e+02 6.521638e-11
5.680000e+02 7.356860e-11
5.690000e+02 8.295403e-11
5.700000e+02 9.349595e-11
5.710000e+02 1.053323e-10
5.720000e+02 1.186158e-10
5.730000e+02 1.335173e-10
5.740000e+02 1.502268e-10
5.750000e+02 1.689599e-10
5.760000e+02 1.899010e-10
5.770000e+02 2.134454e-10
5.780000e+02 2.397542e-10
5.790000e+02 2.691940e-10
5.800000e+02 3.021239e-10
5.810000e+02 3.389424e-10
5.820000e+02 3.800915e-10
5.830000e+02 4.260569e-10
5.840000e+02 4.771952e-10
5.850000e+02 5.346638e-10
5.860000e+02 5.986676e-10
5.870000e+02 6.700093e-10
5.880000e+02 7.495521e-10
5.890000e+02 8.381835e-10
5.900000e+02 9.369754e-10
5.910000e+02 1.046965e-09
5.920000e+02 1.169436e-09
5.930000e+02 1.305716e-09
5.940000e+02 1.457318e-09
5.950000e+02 1.625850e-09
5.960000e+02 1.813294e-09
5.970000e+02 2.021522e-09
5.980000e+02 2.252813e-09
5.990000e+02 2.509629e-09
6.000000e+02 2.794679e-09
6.010000e+02 3.109436e-09
6.020000e+02 3.461743e-09
6.030000e+02 3.850662e-09
6.040000e+02 4.281741e-09
6.050000e+02 4.759333e-09
6.060000e+02 5.288285e-09
6.070000e+02 5.873913e-09
6.080000e+02 6.522060e-09
6.090000e+02 7.239147e-09
6.100000e+02 8.032204e-09
6.110000e+02 8.909059e-09
6.120000e+02 9.878141e-09
6.130000e+02 1.094881e-08
6.140000e+02 1.213132e-08
6.150000e+02 1.343689e-08
6.160000e+02 1.487785e-08
6.170000e+02 1.646771e-08
6.180000e+02 1.822125e-08
6.190000e+02 2.015468e-08
6.200000e+02 2.228576e-08
6.210000e+02 2.463389e-08
6.220000e+02 2.722035e-08
6.230000e+02 3.006837e-08
6.240000e+02 3.320341e-08
6.250000e+02 3.665325e-08
6.260000e+02 4.044828e-08
6.270000e+02 4.462167e-08
6.280000e+02 4.920976e-08
6.290000e+02 5.425203e-08
6.300000e+02 5.979179e-08
6.310000e+02 6.587271e-08
6.320000e+02 7.255655e-08
6.330000e+02 7.988868e-08
6.340000e+02 8.793501e-08
6.350000e+02 9.676074e-08
6.360000e+02 1.063269e-07
6.370000e+02 1.170495e-07
6.380000e+02 1.286775e-07
6.390000e+02 1.414172e-07
6.400000e+02 1.553706e-07
6.410000e+02 1.706487e-07
6.420000e+02 1.873723e-07
6.430000e+02 2.056728e-07
6.440000e+02 2.256928e-07
6.450000e+02 2.475874e-07
6.460000e+02 2.715253e-07
6.470000e+02 2.976893e-07
6.480000e+02 3.262783e-07
6.490000e+02 3.575080e-07
6.500000e+02 3.916121e-07
6.510000e+02 4.288452e-07
6.520000e+02 4.694823e-07
6.530000e+02 5.138218e-07
6.540000e+02 5.621881e-07
6.550000e+02 6.149314e-07
6.560000e+02 6.724318e-07
6.570000e+02 7.350812e-07
6.580000e+02 8.033848e-07
6.590000e+02 8.777654e-07
6.600000e+02 9.587575e-07
6.610000e+02 1.046949e-06
6.620000e+02 1.142927e-06
6.630000e+02 1.247361e-06
6.640000e+02 1.360965e-06
6.650000e+02 1.484505e-06
6.660000e+02 1.618832e-06
6.670000e+02 1.764830e-06
6.680000e+02 1.923479e-06
6.690000e+02 2.095829e-06
6.700000e+02 2.283012e-06
6.710000e+02 2.486255e-06
6.720000e+02 2.706875e-06
6.730000e+02 2.946299e-06
6.740000e+02 3.206060e-06
6.750000e+02 3.487814e-06
6.760000e+02 3.793345e-06
6.770000e+02 4.124576e-06
6.780000e+02 4.483577e-06
6.790000e+02 4.872578e-06
6.800000e+02 5.293981e-06
6.810000e+02 5.750370e-06
6.820000e+02 6.244527e-06
6.830000e+02 6.779447e-06
6.840000e+02 7.358346e-06
6.850000e+02 7.984607e-06
6.860000e+02 8.662196e-06
6.870000e+02 9.394826e-06
6.880000e+02 1.018701e-05
6.890000e+02 1.104324e-05
6.900000e+02 1.196852e-05
6.910000e+02 1.296818e-05
6.920000e+02 1.404794e-05
6.930000e+02 1.521395e-05
6.940000e+02 1.647279e-05
6.950000e+02 1.783154e-05
6.960000e+02 1.929778e-05
6.970000e+02 2.087934e-05
6.980000e+02 2.258589e-05
6.990000e+02 2.442582e-05
7.000000e+02 2.640949e-05
7.010000e+02 2.854761e-05
7.020000e+02 3.085171e-05
7.030000e+02 3.333409e-05
7.040000e+02 3.600797e-05
7.050000e+02 3.888744e-05
7.060000e+02 4.198750e-05
7.070000e+02 4.532472e-05
7.080000e+02 4.891602e-05
7.090000e+02 5.277953e-05
7.100000e+02 5.693653e-05
7.110000e+02 6.140670e-05
7.120000e+02 6.621318e-05
7.130000e+02 7.138012e-05
7.140000e+02 7.693336e-05
7.150000e+02 8.290036e-05
7.160000e+02 8.931103e-05
7.170000e+02 9.619603e-05
7.180000e+02 1.035889e-04
7.190000e+02 1.115284e-04
7.200000e+02 1.200491e-04
7.210000e+02 1.291933e-04
7.220000e+02 1.390046e-04
7.230000e+02 1.495292e-04
7.240000e+02 1.608169e-04
7.250000e+02 1.729204e-04
7.260000e+02 1.858938e-04
7.270000e+02 1.998038e-04
7.280000e+02 2.147076e-04
7.290000e+02 2.306755e-04
7.300000e+02 2.477802e-04
7.310000e+02 2.660987e-04
7.320000e+02 2.857133e-04
7.330000e+02 3.067116e-04
7.340000e+02 3.291866e-04
7.350000e+02 3.532375e-04
7.360000e+02 3.789693e-04
7.370000e+02 4.064953e-04
7.380000e+02 4.359337e-04
7.390000e+02 4.674114e-04
7.400000e+02 5.010606e-04
7.410000e+02 5.370328e-04
7.420000e+02 5.754682e-04
7.430000e+02 6.165424e-04
7.440000e+02 6.604159e-04
7.450000e+02 7.072751e-04
7.460000e+02 7.573134e-04
7.470000e+02 8.107368e-04
7.480000e+02 8.677633e-04
7.490000e+02 9.286246e-04
7.500000e+02 9.935667e-04
7.510000e+02 1.062850e-03
7.520000e+02 1.136752e-03
7.530000e+02 1.215564e-03
7.540000e+02 1.299600e-03
7.550000e+02 1.389187e-03
7.560000e+02 1.484676e-03
7.570000e+02 1.586372e-03
7.580000e+02 1.694861e-03
7.590000e+02 1.810359e-03
7.600000e+02 1.933394e-03
7.610000e+02 2.064407e-03
7.620000e+02 2.203902e-03
7.630000e+02 2.352400e-03
7.640000e+02 2.510454e-03
7.650000e+02 2.678644e-03
7.660000e+02 2.857608e-03
7.670000e+02 3.047984e-03
7.680000e+02 3.250452e-03
7.690000e+02 3.465804e-03
7.700000e+02 3.694756e-03
7.710000e+02 3.938148e-03
7.720000e+02 4.196846e-03
7.730000e+02 4.471767e-03
7.740000e+02 4.763877e-03
7.750000e+02 5.074201e-03
7.760000e+02 5.402789e-03
7.770000e+02 5.753870e-03
7.780000e+02 6.125563e-03
7.790000e+02 6.520167e-03
7.800000e+02 6.939026e-03
7.810000e+02 7.383560e-03
7.820000e+02 7.855262e-03
7.830000e+02 8.355711e-03
7.840000e+02 8.886579e-03
7.850000e+02 9.449619e-03
7.860000e+02 1.004665e-02
7.870000e+02 1.067976e-02
7.880000e+02 1.135085e-02
7.890000e+02 1.206215e-02
7.900000e+02 1.281595e-02
7.910000e+02 1.361468e-02
7.920000e+02 1.446087e-02
7.930000e+02 1.535719e-02
7.940000e+02 1.630649e-02
7.950000e+02 1.731172e-02
7.960000e+02 1.837602e-02
7.970000e+02 1.950268e-02
7.980000e+02 2.069519e-02
7.990000e+02 2.195716e-02
8.000000e+02 2.329251e-02
8.010000e+02 2.470513e-02
8.020000e+02 2.619959e-02
8.030000e+02 2.778007e-02
8.040000e+02 2.945138e-02
8.050000e+02 3.121849e-02
8.060000e+02 3.308660e-02
8.070000e+02 3.506119e-02
8.080000e+02 3.714802e-02
8.090000e+02 3.935315e-02
8.100000e+02 4.168295e-02
8.110000e+02 4.414409e-02
8.120000e+02 4.674358e-02
8.130000e+02 4.948888e-02
8.140000e+02 5.238767e-02
8.150000e+02 5.544810e-02
8.160000e+02 5.867875e-02
8.170000e+02 6.208834e-02
8.180000e+02 6.568700e-02
8.190000e+02 6.948393e-02
8.200000e+02 7.348974e-02
8.210000e+02 7.771534e-02
8.220000e+02 8.217213e-02
8.230000e+02 8.687215e-02
8.240000e+02 9.182796e-02
8.250000e+02 9.705275e-02
8.260000e+02 1.025603e-01
8.270000e+02 1.083653e-01
8.280000e+02 1.144828e-01
8.290000e+02 1.209287e-01
8.300000e+02 1.277199e-01
8.310000e+02 1.348738e-01
8.320000e+02 1.424087e-01
8.330000e+02 1.503440e-01
8.340000e+02 1.586997e-01
8.350000e+02 1.674856e-01
8.360000e+02 1.767572e-01
8.370000e+02 1.865054e-01
8.380000e+02 1.967582e-01
8.390000e+02 2.075591e-01
8.400000e+02 2.189171e-01
8.410000e+02 2.308658e-01
8.420000e+02 2.434311e-01
8.430000e+02 2.566531e-01
8.440000e+02 2.705539e-01
8.450000e+02 2.851701e-01
8.460000e+02 3.005366e-01
8.470000e+02 3.166897e-01
8.480000e+02 3.336676e-01
8.490000e+02 3.515102e-01
8.500000e+02 3.702590e-01
8.510000e+02 3.899577e-01
8.520000e+02 4.106508e-01
8.530000e+02 4.323885e-01
8.540000e+02 4.552200e-01
8.550000e+02 4.791942e-01
8.560000e+02 5.043669e-01
8.570000e+02 5.307959e-01
8.580000e+02 5.585390e-01
8.590000e+02 5.876590e-01
8.600000e+02 6.182200e-01
8.610000e+02 6.502895e-01
8.620000e+02 6.839380e-01
8.630000e+02 7.192373e-01
8.640000e+02 7.562687e-01
8.650000e+02 7.951046e-01
8.660000e+02 8.358395e-01
8.670000e+02 8.785508e-01
8.680000e+02 9.233329e-01
8.690000e+02 9.702805e-01
8.700000e+02 1.019493e+00
8.710000e+02 1.071072e+00
8.720000e+02 1.125127e+00
8.730000e+02 1.181769e+00
8.740000e+02 1.241115e+00
8.750000e+02 1.303288e+00
8.760000e+02 1.368413e+00
8.770000e+02 1.436619e+00
8.780000e+02 1.508060e+00
8.790000e+02 1.582862e+00
8.800000e+02 1.661182e+00
8.810000e+02 1.743176e+00
8.820000e+02 1.829005e+00
8.830000e+02 1.918839e+00
8.840000e+02 2.012856e+00
8.850000e+02 2.111237e+00
8.860000e+02 2.214175e+00
8.870000e+02 2.321868e+00
8.880000e+02 2.434525e+00
8.890000e+02 2.552361e+00
8.900000e+02 2.675599e+00
8.910000e+02 2.804473e+00
8.920000e+02 2.936626e+00
8.930000e+02 3.080115e+00
8.940000e+02 3.227398e+00
8.950000e+02 3.381350e+00
8.960000e+02 3.542258e+00
8.970000e+02 3.710415e+00
8.980000e+02 3.886130e+00
8.990000e+02 4.069724e+00
9.000000e+02 4.261528e+00
9.010000e+02 4.461890e+00
9.020000e+02 4.671169e+00
9.030000e+02 4.889736e+00
9.040000e+02 5.117959e+00
9.050000e+02 5.356300e+00
9.060000e+02 5.605154e+00
9.070000e+02 5.864830e+00
9.080000e+02 6.136091e+00
9.090000e+02 6.419117e+00
9.100000e+02 6.714493e+00
9.110000e+02 7.022750e+00
9.120000e+02 7.344516e+00
9.130000e+02 7.609794e+00
9.140000e+02 8.231941e+00
9.150000e+02 6.159066e+01
9.160000e+02 1.029105e+02
9.170000e+02 1.069151e+02
9.180000e+02 1.109760e+02
9.190000e+02 1.153757e+02
9.200000e+02 1.198238e+02
9.210000e+02 1.081783e+01
9.220000e+02 1.289874e+02
9.230000e+02 1.337684e+02
9.240000e+02 1.356954e+02
9.250000e+02 1.426717e+02
9.260000e+02 1.495843e+02
9.270000e+02 1.554412e+02
9.280000e+02 1.615512e+02
9.290000e+02 1.539322e+02
9.300000e+02 1.698872e+02
9.310000e+02 1.793215e+02
9.320000e+02 1.873276e+02
9.330000e+02 1.939599e+02
9.340000e+02 2.006825e+02
9.350000e+02 5.467804e+01
9.360000e+02 2.159424e+02
9.370000e+02 4.222571e+01
9.380000e+02 6.997141e+01
9.390000e+02 2.416311e+02
9.400000e+02 2.507137e+02
9.410000e+02 9.015984e+01
9.420000e+02 2.695647e+02
9.430000e+02 2.753500e+02
9.440000e+02 2.340558e+02
9.450000e+02 2.999510e+02
9.460000e+02 3.110167e+02
9.470000e+02 1.757235e+02
9.480000e+02 2.065672e+02
9.490000e+02 3.434901e+02
9.500000e+02 6.365788e+01
9.510000e+02 3.667514e+02
9.520000e+02 3.851501e+02
9.530000e+02 3.946809e+02
9.540000e+02 3.234383e+02
9.550000e+02 4.285113e+02
9.560000e+02 2.063174e+02
9.570000e+02 3.147866e+02
9.580000e+02 4.729967e+02
9.590000e+02 4.949690e+02
9.600000e+02 1.064535e+02
9.610000e+02 5.250767e+02
9.620000e+02 5.484287e+02
9.630000e+02 5.689982e+02
9.640000e+02 7.023831e+01
9.650000e+02 5.642802e+02
9.660000e+02 6.310720e+02
9.670000e+02 6.457847e+02
9.680000e+02 6.735034e+02
9.690000e+02 6.957934e+02
9.700000e+02 7.218971e+02
9.710000e+02 7.416516e+02
9.720000e+02 7.167697e+02
9.730000e+02 7.253650e+02
9.740000e+02 8.157802e+02
9.750000e+02 8.553124e+02
9.760000e+02 8.857387e+02
9.770000e+02 9.178749e+02
9.780000e+02 9.469284e+02
9.790000e+02 9.822991e+02
9.800000e+02 1.015424e+03
9.810000e+02 1.050401e+03
9.820000e+02 1.084683e+03
9.830000e+02 1.122237e+03
9.840000e+02 6.004178e+02
9.850000e+02 1.199473e+03
9.860000e+02 1.239702e+03
9.870000e+02 1.281521e+03
9.880000e+02 1.318596e+03
9.890000e+02 1.239778e+03
9.900000e+02 2.480036e+02
9.910000e+02 1.450055e+03
9.920000e+02 1.303825e+03
9.930000e+02 1.471668e+03
9.940000e+02 2.856858e+02
9.950000e+02 6.245048e+02
9.960000e+02 1.512018e+03
9.970000e+02 3.793075e+02
9.980000e+02 1.830907e+03
9.990000e+02 1.860721e+03
1.000000e+03 1.955927e+03
1.001000e+03 2.019780e+03
1.002000e+03 2.085101e+03
1.003000e+03 2.111610e+03
1.004000e+03 2.217533e+03
1.005000e+03 2.213645e+03
1.006000e+03 2.367915e+03
1.007000e+03 2.426480e+03
1.008000e+03 2.513981e+03
1.009000e+03 2.579451e+03
1.010000e+03 2.685382e+03
1.011000e+03 2.770618e+03
1.012000e+03 2.858276e+03
1.013000e+03 2.948620e+03
1.014000e+03 3.005478e+03
1.015000e+03 3.112827e+03
1.016000e+03 3.231051e+03
1.017000e+03 3.300453e+03
1.018000e+03 3.433695e+03
1.019000e+03 3.529451e+03
1.020000e+03 3.644609e+03
1.021000e+03 1.806039e+03
1.022000e+03 3.469996e+03
1.023000e+03 3.902000e+03
1.024000e+03 2.991234e+03
1.025000e+03 3.082132e+03
1.026000e+03 1.585296e+03
1.027000e+03 3.566501e+03
1.028000e+03 1.269660e+03
1.029000e+03 4.693341e+03
1.030000e+03 4.767292e+03
1.031000e+03 5.084566e+03
1.032000e+03 5.149088e+03
1.033000e+03 2.542235e+03
1.034000e+03 5.594957e+03
1.035000e+03 1.340195e+03
1.036000e+03 5.129030e+03
1.037000e+03 1.373529e+03
1.038000e+03 6.318246e+03
1.039000e+03 6.460443e+03
1.040000e+03 6.707660e+03
1.041000e+03 6.765261e+03
1.042000e+03 7.110841e+03
1.043000e+03 7.037080e+03
1.044000e+03 7.548980e+03
1.045000e+03 7.769204e+03
1.046000e+03 8.013757e+03
1.047000e+03 8.250250e+03
1.048000e+03 8.476468e+03
1.049000e+03 8.297901e+03
1.050000e+03 9.005071e+03
1.051000e+03 9.271955e+03
1.052000e+03 9.548332e+03
1.053000e+03 9.798464e+03
1.054000e+03 9.805975e+03
1.055000e+03 8.843559e+03
1.056000e+03 1.071815e+04
1.057000e+03 1.102963e+04
1.058000e+03 1.134709e+04
1.059000e+03 1.167245e+04
1.060000e+03 1.199910e+04
1.061000e+03 1.236683e+04
1.062000e+03 1.272053e+04
1.063000e+03 3.886416e+03
1.064000e+03 3.050802e+03
1.065000e+03 1.376448e+04
1.066000e+03 7.843975e+03
1.067000e+03 1.459892e+04
1.068000e+03 1.509505e+04
1.069000e+03 1.469134e+04
1.070000e+03 1.593701e+04
1.071000e+03 1.642305e+04
1.072000e+03 1.688718e+04
1.073000e+03 1.727175e+04
1.074000e+03 1.785189e+04
1.075000e+03 1.835247e+04
1.076000e+03 1.886949e+04
1.077000e+03 1.934328e+04
1.078000e+03 1.993619e+04
1.079000e+03 2.047506e+04
1.080000e+03 2.106703e+04
1.081000e+03 2.165300e+04
1.082000e+03 2.224237e+04
1.083000e+03 2.285879e+04
1.084000e+03 2.349732e+04
1.085000e+03 1.673030e+04
1.086000e+03 2.480423e+04
1.087000e+03 2.545812e+04
1.088000e+03 2.610355e+04
1.089000e+03 2.688755e+04
1.090000e+03 2.760514e+04
1.091000e+03 2.810866e+04
1.092000e+03 2.912831e+04
1.093000e+03 2.989746e+04
1.094000e+03 3.072406e+04
1.095000e+03 3.154397e+04
1.096000e+03 3.238524e+04
1.097000e+03 3.005674e+04
1.098000e+03 3.171209e+04
1.099000e+03 3.504748e+04
1.100000e+03 2.940083e+04
1.101000e+03 3.385368e+04
1.102000e+03 7.345614e+04
1.103000e+03 2.125034e+05
1.104000e+03 1.061940e+05
1.105000e+03 3.746862e+04
1.106000e+03 5.984735e+05
1.107000e+03 5.348823e+05
1.108000e+03 5.713144e+05
1.109000e+03 3.021208e+05
1.110000e+03 2.436645e+05
1.111000e+03 9.082794e+04
1.112000e+03 4.884419e+05
1.113000e+03 6.951002e+05
1.114000e+03 3.224416e+04
1.115000e+03 6.879511e+05
1.116000e+03 7.129954e+05
1.117000e+03 4.082975e+04
1.118000e+03 4.349767e+05
1.119000e+03 7.789995e+05
1.120000e+03 7.795478e+05
1.121000e+03 7.818417e+05
1.122000e+03 1.519388e+04
1.123000e+03 5.970325e+04
1.124000e+03 8.600812e+05
1.125000e+03 5.792461e+05
1.126000e+03 8.981591e+05
1.127000e+03 8.836362e+05
1.128000e+03 5.435540e+05
1.129000e+03 9.161953e+05
1.130000e+03 6.252179e+05
1.131000e+03 9.943171e+05
1.132000e+03 4.636225e+04
1.133000e+03 8.456816e+05
1.134000e+03 8.492847e+05
1.135000e+03 2.473200e+04
1.136000e+03 1.088653e+06
1.137000e+03 1.120319e+06
1.138000e+03 1.141431e+06
1.139000e+03 1.136780e+06
1.140000e+03 3.104412e+04
1.141000e+03 1.213837e+06
1.142000e+03 1.234925e+06
1.143000e+03 1.260800e+06
1.144000e+03 1.288179e+06
1.145000e+03 1.054146e+06
1.146000e+03 1.339744e+06
1.147000e+03 1.346646e+06
1.148000e+03 1.360693e+06
1.149000e+03 1.419132e+06
1.150000e+03 1.442786e+06
1.151000e+03 1.468035e+06
1.152000e+03 1.507550e+06
1.153000e+03 6.466805e+05
1.154000e+03 2.071128e+05
1.155000e+03 1.187731e+06
1.156000e+03 1.750040e+05
1.157000e+03 1.650818e+06
1.158000e+03 4.749646e+04
1.159000e+03 1.084350e+06
1.160000e+03 1.736145e+06
1.161000e+03 1.796543e+06
1.162000e+03 5.929698e+05
1.163000e+03 1.856869e+06
1.164000e+03 7.403025e+04
1.165000e+03 1.942250e+06
1.166000e+03 1.980853e+06
1.167000e+03 2.022915e+06
1.168000e+03 2.075287e+06
1.169000e+03 1.951827e+06
1.170000e+03 2.165363e+06
1.171000e+03 2.217263e+06
1.172000e+03 2.259632e+06
1.173000e+03 2.313268e+06
1.174000e+03 2.302789e+06
1.175000e+03 9.364700e+04
1.176000e+03 8.029500e+04
1.177000e+03 2.515189e+06
1.178000e+03 2.535889e+06
1.179000e+03 2.620009e+06
1.180000e+03 2.305442e+06
1.181000e+03 2.721415e+06
1.182000e+03 2.790170e+06
1.183000e+03 2.842430e+06
1.184000e+03 2.894316e+06
1.185000e+03 2.931664e+06
1.186000e+03 2.982410e+06
1.187000e+03 3.047970e+06
1.188000e+03 3.088380e+06
1.189000e+03 1.062335e+05
1.190000e+03 2.658325e+05
1.191000e+03 3.180239e+06
1.192000e+03 3.213661e+06
1.193000e+03 9.833425e+04
1.194000e+03 1.262738e+05
1.195000e+03 2.905992e+06
1.196000e+03 3.353910e+06
1.197000e+03 5.128264e+06
1.198000e+03 5.145948e+06
1.199000e+03 5.040163e+06
1.200000e+03 4.524580e+06
1.201000e+03 4.745180e+06
1.202000e+03 4.699012e+06
1.203000e+03 5.953473e+06
1.204000e+03 5.407760e+06
1.205000e+03 4.952853e+06
1.206000e+03 4.675663e+06
1.207000e+03 5.561600e+05
1.208000e+03 3.352917e+06
1.209000e+03 2.532298e+06
1.210000e+03 1.954486e+05
1.211000e+03 1.432556e+06
1.212000e+03 8.750023e+05
1.213000e+03 5.639297e+05
1.214000e+03 3.287527e+05
1.215000e+03 2.064229e+05
1.216000e+03 1.856488e+05
1.217000e+03 2.934002e+05
1.218000e+03 5.215689e+05
1.219000e+03 9.209107e+05
1.220000e+03 1.511472e+06
1.221000e+03 2.281491e+06
1.222000e+03 3.201383e+06
1.223000e+03 4.223837e+06
1.224000e+03 5.382523e+06
1.225000e+03 6.552374e+06
1.226000e+03 7.866184e+06
1.227000e+03 8.942637e+06
1.228000e+03 1.054515e+07
1.229000e+03 1.196193e+07
1.230000e+03 1.287159e+07
1.231000e+03 1.471955e+07
1.232000e+03 1.622508e+07
1.233000e+03 1.769038e+07
1.234000e+03 1.100356e+07
1.235000e+03 2.055290e+07
1.236000e+03 2.180252e+07
1.237000e+03 2.337306e+07
1.238000e+03 2.477119e+07
1.239000e+03 2.613662e+07
1.240000e+03 2.521220e+07
1.241000e+03 4.156994e+07
1.242000e+03 2.638453e+07
1.243000e+03 3.609369e+07
1.244000e+03 1.786734e+07
1.245000e+03 2.544737e+07
1.246000e+03 6.431838e+07
1.247000e+03 6.433190e+07
1.248000e+03 1.944562e+07
1.249000e+03 2.359590e+07
1.250000e+03 7.968812e+07
1.251000e+03 8.367550e+07
1.252000e+03 8.724107e+07
1.253000e+03 9.209902e+07
1.254000e+03 9.547245e+07
1.255000e+03 9.845782e+07
1.256000e+03 1.019359e+08
1.257000e+03 1.071157e+08
1.258000e+03 1.084622e+08
1.259000e+03 1.090558e+08
1.260000e+03 8.122479e+07
1.261000e+03 5.215524e+05
1.262000e+03 1.311170e+07
1.263000e+03 1.217912e+08
1.264000e+03 1.079502e+08
1.265000e+03 5.364620e+05
1.266000e+03 1.335205e+08
1.267000e+03 1.442627e+08
