# wavelength_A flux
5.000000e+02 3.429283e-06
5.010000e+02 3.852727e-06
5.020000e+02 4.326367e-06
5.030000e+02 4.855900e-06
5.040000e+02 5.447646e-06
5.050000e+02 6.205923e-06
5.060000e+02 6.954830e-06
5.070000e+02 7.790468e-06
5.080000e+02 8.722454e-06
5.090000e+02 9.761571e-06
5.100000e+02 1.091929e-05
5.110000e+02 1.220876e-05
5.120000e+02 1.364429e-05
5.130000e+02 1.524175e-05
5.140000e+02 1.701859e-05
5.150000e+02 1.899398e-05
5.160000e+02 2.118954e-05
5.170000e+02 2.362772e-05
5.180000e+02 2.633624e-05
5.190000e+02 2.934172e-05
5.200000e+02 3.267603e-05
5.210000e+02 3.637354e-05
5.220000e+02 4.046926e-05
5.230000e+02 4.501336e-05
5.240000e+02 5.004289e-05
5.250000e+02 5.561168e-05
5.260000e+02 6.177380e-05
5.270000e+02 6.859019e-05
5.280000e+02 7.612726e-05
5.290000e+02 8.444568e-05
5.300000e+02 9.366169e-05
5.310000e+02 1.038264e-04
5.320000e+02 1.150479e-04
5.330000e+02 1.274308e-04
5.340000e+02 1.410901e-04
5.350000e+02 1.561515e-04
5.360000e+02 1.727516e-04
5.370000e+02 1.895035e-04
5.380000e+02 2.111855e-04
5.390000e+02 2.333669e-04
5.400000e+02 2.577759e-04
5.410000e+02 2.846142e-04
5.420000e+02 3.141553e-04
5.430000e+02 3.466183e-04
5.440000e+02 3.822892e-04
5.450000e+02 4.214728e-04
5.460000e+02 4.644479e-04
5.470000e+02 5.117278e-04
5.480000e+02 5.635493e-04
5.490000e+02 6.203931e-04
5.500000e+02 6.827199e-04
5.510000e+02 7.510359e-04
5.520000e+02 8.258893e-04
5.530000e+02 9.078770e-04
5.540000e+02 9.976472e-04
5.550000e+02 1.095905e-03
5.560000e+02 1.203414e-03
5.570000e+02 1.321006e-03
5.580000e+02 1.449581e-03
5.590000e+02 1.590119e-03
5.600000e+02 1.743679e-03
5.610000e+02 1.911411e-03
5.620000e+02 2.094561e-03
5.630000e+02 2.294481e-03
5.640000e+02 2.512632e-03
5.650000e+02 2.750597e-03
5.660000e+02 3.010095e-03
5.670000e+02 3.292976e-03
5.680000e+02 3.601250e-03
5.690000e+02 3.937085e-03
5.700000e+02 4.302824e-03
5.710000e+02 4.701018e-03
5.720000e+02 5.134391e-03
5.730000e+02 5.605910e-03
5.740000e+02 6.118768e-03
5.750000e+02 6.676480e-03
5.760000e+02 7.282152e-03
5.770000e+02 7.941333e-03
5.780000e+02 8.656880e-03
5.790000e+02 9.433954e-03
5.800000e+02 1.027759e-02
5.810000e+02 1.119319e-02
5.820000e+02 1.218661e-02
5.830000e+02 1.326405e-02
5.840000e+02 1.442991e-02
5.850000e+02 1.569853e-02
5.860000e+02 1.707179e-02
5.870000e+02 1.855896e-02
5.880000e+02 2.016961e-02
5.890000e+02 2.191333e-02
5.900000e+02 2.380118e-02
5.910000e+02 2.584386e-02
5.920000e+02 2.805367e-02
5.930000e+02 3.044358e-02
5.940000e+02 3.302754e-02
5.950000e+02 3.581998e-02
5.960000e+02 3.883860e-02
5.970000e+02 4.209897e-02
5.980000e+02 4.562013e-02
5.990000e+02 4.942188e-02
6.000000e+02 5.352545e-02
6.010000e+02 5.795252e-02
6.020000e+02 6.273064e-02
6.030000e+02 6.788273e-02
6.040000e+02 7.343778e-02
6.050000e+02 7.942580e-02
6.060000e+02 8.587852e-02
6.070000e+02 9.283069e-02
6.080000e+02 1.003185e-01
6.090000e+02 1.083812e-01
6.100000e+02 1.170607e-01
6.110000e+02 1.264019e-01
6.120000e+02 1.364524e-01
6.130000e+02 1.472634e-01
6.140000e+02 1.588894e-01
6.150000e+02 1.713888e-01
6.160000e+02 1.848237e-01
6.170000e+02 1.992604e-01
6.180000e+02 2.147697e-01
6.190000e+02 2.314272e-01
6.200000e+02 2.493135e-01
6.210000e+02 2.685144e-01
6.220000e+02 2.891214e-01
6.230000e+02 3.112321e-01
6.240000e+02 3.349505e-01
6.250000e+02 3.603873e-01
6.260000e+02 3.876603e-01
6.270000e+02 4.168949e-01
6.280000e+02 4.482251e-01
6.290000e+02 4.817928e-01
6.300000e+02 5.177494e-01
6.310000e+02 5.562338e-01
6.320000e+02 5.974831e-01
6.330000e+02 6.416124e-01
6.340000e+02 6.888396e-01
6.350000e+02 7.393672e-01
6.360000e+02 7.929899e-01
6.370000e+02 8.512172e-01
6.380000e+02 9.130166e-01
6.390000e+02 9.790763e-01
6.400000e+02 1.049674e+00
6.410000e+02 1.125104e+00
6.420000e+02 1.205680e+00
6.430000e+02 1.291734e+00
6.440000e+02 1.383617e+00
6.450000e+02 1.481702e+00
6.460000e+02 1.586387e+00
6.470000e+02 1.698088e+00
6.480000e+02 1.817254e+00
6.490000e+02 1.944353e+00
6.500000e+02 2.079884e+00
6.510000e+02 2.224376e+00
6.520000e+02 2.378389e+00
6.530000e+02 2.542515e+00
6.540000e+02 2.717382e+00
6.550000e+02 2.903653e+00
6.560000e+02 3.102030e+00
6.570000e+02 3.313221e+00
6.580000e+02 3.538117e+00
6.590000e+02 3.777443e+00
6.600000e+02 4.032110e+00
6.610000e+02 4.303056e+00
6.620000e+02 4.591251e+00
6.630000e+02 4.897735e+00
6.640000e+02 5.223605e+00
6.650000e+02 5.570010e+00
6.660000e+02 5.938189e+00
6.670000e+02 6.329413e+00
6.680000e+02 6.745051e+00
6.690000e+02 7.186538e+00
6.700000e+02 7.655389e+00
6.710000e+02 8.153204e+00
6.720000e+02 8.681642e+00
6.730000e+02 9.242564e+00
6.740000e+02 9.837762e+00
6.750000e+02 1.046924e+01
6.760000e+02 1.113909e+01
6.770000e+02 1.184949e+01
6.780000e+02 1.260277e+01
6.790000e+02 1.340136e+01
6.800000e+02 1.424782e+01
6.810000e+02 1.514487e+01
6.820000e+02 1.609535e+01
6.830000e+02 1.710226e+01
6.840000e+02 1.816874e+01
6.850000e+02 1.929809e+01
6.860000e+02 2.049386e+01
6.870000e+02 2.175961e+01
6.880000e+02 2.309941e+01
6.890000e+02 2.451714e+01
6.900000e+02 2.601710e+01
6.910000e+02 2.760383e+01
6.920000e+02 2.928201e+01
6.930000e+02 3.105660e+01
6.940000e+02 3.293283e+01
6.950000e+02 3.491615e+01
6.960000e+02 3.701232e+01
6.970000e+02 3.922701e+01
6.980000e+02 4.156766e+01
6.990000e+02 4.403981e+01
7.000000e+02 4.665083e+01
7.010000e+02 4.940804e+01
7.020000e+02 5.231912e+01
7.030000e+02 5.539216e+01
7.040000e+02 5.863560e+01
7.050000e+02 6.205834e+01
7.060000e+02 6.566966e+01
7.070000e+02 6.947935e+01
7.080000e+02 7.349759e+01
7.090000e+02 7.773507e+01
7.100000e+02 8.220328e+01
7.110000e+02 8.691370e+01
7.120000e+02 9.187878e+01
7.130000e+02 9.711143e+01
7.140000e+02 1.026252e+02
7.150000e+02 1.084342e+02
7.160000e+02 1.145533e+02
7.170000e+02 1.209978e+02
7.180000e+02 1.277836e+02
7.190000e+02 1.349301e+02
7.200000e+02 1.424523e+02
7.210000e+02 1.503699e+02
7.220000e+02 1.587021e+02
7.230000e+02 1.674696e+02
7.240000e+02 1.766935e+02
7.250000e+02 1.863961e+02
7.260000e+02 1.966008e+02
7.270000e+02 2.073318e+02
7.280000e+02 2.186145e+02
7.290000e+02 2.304757e+02
7.300000e+02 2.429429e+02
7.310000e+02 2.560453e+02
7.320000e+02 2.698132e+02
7.330000e+02 2.842781e+02
7.340000e+02 2.994732e+02
7.350000e+02 3.154329e+02
7.360000e+02 3.321929e+02
7.370000e+02 3.497917e+02
7.380000e+02 3.682677e+02
7.390000e+02 3.876622e+02
7.400000e+02 4.080173e+02
7.410000e+02 4.293792e+02
7.420000e+02 4.517921e+02
7.430000e+02 4.753068e+02
7.440000e+02 4.999722e+02
7.450000e+02 5.258414e+02
7.460000e+02 5.529695e+02
7.470000e+02 5.814138e+02
7.480000e+02 6.112338e+02
7.490000e+02 6.424918e+02
7.500000e+02 6.752526e+02
7.510000e+02 7.095837e+02
7.520000e+02 7.455554e+02
7.530000e+02 7.832411e+02
7.540000e+02 8.227169e+02
7.550000e+02 8.640621e+02
7.560000e+02 9.073600e+02
7.570000e+02 9.526887e+02
7.580000e+02 1.000160e+03
7.590000e+02 1.049843e+03
7.600000e+02 1.101849e+03
7.610000e+02 1.156272e+03
7.620000e+02 1.213220e+03
7.630000e+02 1.272800e+03
7.640000e+02 1.335128e+03
7.650000e+02 1.400321e+03
7.660000e+02 1.468502e+03
7.670000e+02 1.539799e+03
7.680000e+02 1.614341e+03
7.690000e+02 1.692278e+03
7.700000e+02 1.773742e+03
7.710000e+02 1.858885e+03
7.720000e+02 1.947862e+03
7.730000e+02 2.040834e+03
7.740000e+02 2.137969e+03
7.750000e+02 2.239439e+03
7.760000e+02 2.345347e+03
7.770000e+02 2.456117e+03
7.780000e+02 2.571707e+03
7.790000e+02 2.692396e+03
7.800000e+02 2.818395e+03
7.810000e+02 2.949921e+03
7.820000e+02 3.087198e+03
7.830000e+02 3.230464e+03
7.840000e+02 3.379961e+03
7.850000e+02 3.535940e+03
7.860000e+02 3.698663e+03
7.870000e+02 3.868408e+03
7.880000e+02 4.045443e+03
7.890000e+02 4.230067e+03
7.900000e+02 4.422583e+03
7.910000e+02 4.623303e+03
7.920000e+02 4.832554e+03
7.930000e+02 5.050671e+03
7.940000e+02 5.278005e+03
7.950000e+02 5.514918e+03
7.960000e+02 5.761785e+03
7.970000e+02 6.018994e+03
7.980000e+02 6.286949e+03
7.990000e+02 6.566065e+03
8.000000e+02 6.856776e+03
8.010000e+02 7.159525e+03
8.020000e+02 7.474788e+03
8.030000e+02 7.803029e+03
8.040000e+02 8.144754e+03
8.050000e+02 8.500474e+03
8.060000e+02 8.870721e+03
8.070000e+02 9.256046e+03
8.080000e+02 9.657021e+03
8.090000e+02 1.007423e+04
8.100000e+02 1.050829e+04
8.110000e+02 1.095983e+04
8.120000e+02 1.142951e+04
8.130000e+02 1.191799e+04
8.140000e+02 1.242598e+04
8.150000e+02 1.295418e+04
8.160000e+02 1.350339e+04
8.170000e+02 1.407433e+04
8.180000e+02 1.466782e+04
8.190000e+02 1.528468e+04
8.200000e+02 1.592577e+04
8.210000e+02 1.659196e+04
8.220000e+02 1.728418e+04
8.230000e+02 1.800335e+04
8.240000e+02 1.875044e+04
8.250000e+02 1.952648e+04
8.260000e+02 2.033250e+04
8.270000e+02 2.116956e+04
8.280000e+02 2.203878e+04
8.290000e+02 2.294130e+04
8.300000e+02 2.387830e+04
8.310000e+02 2.485099e+04
8.320000e+02 2.586064e+04
8.330000e+02 2.690855e+04
8.340000e+02 2.799605e+04
8.350000e+02 2.912298e+04
8.360000e+02 3.029534e+04
8.370000e+02 3.151021e+04
8.380000e+02 3.277033e+04
8.390000e+02 3.407754e+04
8.400000e+02 3.543329e+04
8.410000e+02 3.683928e+04
8.420000e+02 3.829685e+04
8.430000e+02 3.980906e+04
8.440000e+02 4.137642e+04
8.450000e+02 4.300125e+04
8.460000e+02 4.468552e+04
8.470000e+02 4.643120e+04
8.480000e+02 4.824040e+04
8.490000e+02 5.011525e+04
8.500000e+02 5.205794e+04
8.510000e+02 5.407074e+04
8.520000e+02 5.615593e+04
8.530000e+02 5.831603e+04
8.540000e+02 6.055360e+04
8.550000e+02 6.287089e+04
8.560000e+02 6.527070e+04
8.570000e+02 6.775573e+04
8.580000e+02 7.032877e+04
8.590000e+02 7.299270e+04
8.600000e+02 7.575048e+04
8.610000e+02 7.860517e+04
8.620000e+02 8.155983e+04
8.630000e+02 8.461777e+04
8.640000e+02 8.778239e+04
8.650000e+02 9.105693e+04
8.660000e+02 9.444514e+04
8.670000e+02 9.795046e+04
8.680000e+02 1.015767e+05
8.690000e+02 1.053276e+05
8.700000e+02 1.092071e+05
8.710000e+02 1.132197e+05
8.720000e+02 1.173691e+05
8.730000e+02 1.216597e+05
8.740000e+02 1.260960e+05
8.750000e+02 1.306826e+05
8.760000e+02 1.354240e+05
8.770000e+02 1.403250e+05
8.780000e+02 1.453910e+05
8.790000e+02 1.506266e+05
8.800000e+02 1.560372e+05
8.810000e+02 1.616281e+05
8.820000e+02 1.674050e+05
8.830000e+02 1.733734e+05
8.840000e+02 1.795393e+05
8.850000e+02 1.859086e+05
8.860000e+02 1.924875e+05
8.870000e+02 1.992824e+05
8.880000e+02 2.062996e+05
8.890000e+02 2.135461e+05
8.900000e+02 2.210285e+05
8.910000e+02 2.287540e+05
8.920000e+02 2.365442e+05
8.930000e+02 2.449634e+05
8.940000e+02 2.534624e+05
8.950000e+02 2.622346e+05
8.960000e+02 2.712883e+05
8.970000e+02 2.806315e+05
8.980000e+02 2.902726e+05
8.990000e+02 3.002207e+05
9.000000e+02 3.104846e+05
9.010000e+02 3.210734e+05
9.020000e+02 3.319968e+05
9.030000e+02 3.432642e+05
9.040000e+02 3.548841e+05
9.050000e+02 3.668714e+05
9.060000e+02 3.792320e+05
9.070000e+02 3.919749e+05
9.080000e+02 4.051204e+05
9.090000e+02 4.186706e+05
9.100000e+02 4.326401e+05
9.110000e+02 4.470418e+05
9.120000e+02 4.618918e+05
9.130000e+02 4.738178e+05
9.140000e+02 4.965271e+05
9.150000e+02 1.230955e+06
9.160000e+02 3.048638e+06
9.170000e+02 3.238882e+06
9.180000e+02 2.654794e+06
9.190000e+02 4.918161e+06
9.200000e+02 5.821804e+06
9.210000e+02 6.080172e+05
9.220000e+02 6.414956e+06
9.230000e+02 3.423563e+06
9.240000e+02 6.019875e+06
9.250000e+02 6.938658e+06
9.260000e+02 4.867525e+06
9.270000e+02 7.125013e+06
9.280000e+02 7.756434e+06
9.290000e+02 7.005862e+06
9.300000e+02 7.808768e+06
9.310000e+02 5.777157e+06
9.320000e+02 8.553835e+06
9.330000e+02 8.847804e+06
9.340000e+02 9.099333e+06
9.350000e+02 2.133782e+06
9.360000e+02 8.858478e+06
9.370000e+02 1.700243e+06
9.380000e+02 4.657063e+06
9.390000e+02 9.751873e+06
9.400000e+02 1.056857e+07
9.410000e+02 4.535564e+06
9.420000e+02 1.114810e+07
9.430000e+02 1.114606e+07
9.440000e+02 8.342784e+06
9.450000e+02 1.200837e+07
9.460000e+02 1.226127e+07
9.470000e+02 1.067178e+07
9.480000e+02 1.138307e+07
9.490000e+02 1.258975e+07
9.500000e+02 2.610750e+06
9.510000e+02 1.319093e+07
9.520000e+02 1.416440e+07
9.530000e+02 1.279428e+07
9.540000e+02 1.219715e+07
9.550000e+02 1.515527e+07
9.560000e+02 1.394805e+07
9.570000e+02 1.021454e+07
9.580000e+02 1.308666e+07
9.590000e+02 1.699667e+07
9.600000e+02 3.300411e+06
9.610000e+02 1.773996e+07
9.620000e+02 1.795654e+07
9.630000e+02 1.853730e+07
9.640000e+02 2.369710e+06
9.650000e+02 1.703038e+07
9.660000e+02 1.980365e+07
9.670000e+02 1.960564e+07
9.680000e+02 1.866320e+07
9.690000e+02 2.117071e+07
9.700000e+02 2.163467e+07
9.710000e+02 2.092056e+07
9.720000e+02 1.956637e+07
9.730000e+02 1.946559e+07
9.740000e+02 2.356641e+07
9.750000e+02 2.431231e+07
9.760000e+02 2.539383e+07
9.770000e+02 2.595456e+07
9.780000e+02 2.624638e+07
9.790000e+02 2.735399e+07
9.800000e+02 2.799838e+07
9.810000e+02 2.840173e+07
9.820000e+02 2.812272e+07
9.830000e+02 2.997993e+07
9.840000e+02 1.343733e+07
9.850000e+02 3.096942e+07
9.860000e+02 3.152164e+07
9.870000e+02 3.284683e+07
9.880000e+02 3.001087e+07
9.890000e+02 2.676860e+07
9.900000e+02 5.684408e+06
9.910000e+02 3.267955e+07
9.920000e+02 2.635092e+07
9.930000e+02 3.609497e+07
9.940000e+02 6.417440e+06
9.950000e+02 1.192061e+07
9.960000e+02 2.446111e+07
9.970000e+02 9.857620e+06
9.980000e+02 4.182455e+07
9.990000e+02 4.065094e+07
1.000000e+03 4.404906e+07
1.001000e+03 4.507763e+07
1.002000e+03 4.602042e+07
1.003000e+03 4.238017e+07
1.004000e+03 4.434694e+07
1.005000e+03 4.409155e+07
1.006000e+03 5.025152e+07
1.007000e+03 5.138220e+07
1.008000e+03 5.237846e+07
1.009000e+03 5.118781e+07
1.010000e+03 5.472331e+07
1.011000e+03 5.599352e+07
1.012000e+03 5.708513e+07
1.013000e+03 5.826426e+07
1.014000e+03 4.204584e+07
1.015000e+03 5.236196e+07
1.016000e+03 5.944296e+07
1.017000e+03 4.681714e+07
1.018000e+03 6.306385e+07
1.019000e+03 5.846035e+07
1.020000e+03 6.761134e+07
1.021000e+03 3.982469e+07
1.022000e+03 6.170856e+07
1.023000e+03 6.082194e+07
1.024000e+03 6.806552e+07
1.025000e+03 4.301457e+07
1.026000e+03 2.700760e+07
1.027000e+03 6.866807e+07
1.028000e+03 2.000854e+07
1.029000e+03 6.066708e+07
1.030000e+03 8.164974e+07
1.031000e+03 8.224326e+07
1.032000e+03 8.654348e+07
1.033000e+03 3.688100e+07
1.034000e+03 9.018688e+07
1.035000e+03 2.032088e+07
1.036000e+03 7.023846e+07
1.037000e+03 2.439837e+07
1.038000e+03 9.920650e+07
1.039000e+03 1.003379e+08
1.040000e+03 1.030749e+08
1.041000e+03 1.048915e+08
1.042000e+03 1.061235e+08
1.043000e+03 1.059227e+08
1.044000e+03 1.121181e+08
1.045000e+03 1.142494e+08
1.046000e+03 1.169609e+08
1.047000e+03 1.173673e+08
1.048000e+03 1.094457e+08
1.049000e+03 1.218487e+08
1.050000e+03 1.254279e+08
1.051000e+03 1.261264e+08
1.052000e+03 1.317759e+08
1.053000e+03 1.331672e+08
1.054000e+03 9.889973e+07
1.055000e+03 1.399395e+08
1.056000e+03 1.430967e+08
1.057000e+03 1.444222e+08
1.058000e+03 1.471970e+08
1.059000e+03 1.403389e+08
1.060000e+03 1.408829e+08
1.061000e+03 1.565338e+08
1.062000e+03 1.576492e+08
1.063000e+03 6.874522e+07
1.064000e+03 3.724661e+07
1.065000e+03 1.320920e+08
1.066000e+03 1.535788e+08
1.067000e+03 1.591109e+08
1.068000e+03 1.823432e+08
1.069000e+03 1.491159e+08
1.070000e+03 1.863115e+08
1.071000e+03 1.932768e+08
1.072000e+03 1.968951e+08
1.073000e+03 1.632513e+08
1.074000e+03 2.008318e+08
1.075000e+03 2.031845e+08
1.076000e+03 2.126009e+08
1.077000e+03 2.083937e+08
1.078000e+03 2.169361e+08
1.079000e+03 2.223651e+08
1.080000e+03 2.275516e+08
1.081000e+03 2.324362e+08
1.082000e+03 2.369785e+08
1.083000e+03 2.408129e+08
1.084000e+03 2.469739e+08
1.085000e+03 2.072052e+08
1.086000e+03 2.568077e+08
1.087000e+03 2.434590e+08
1.088000e+03 2.659642e+08
1.089000e+03 2.714917e+08
1.090000e+03 2.689484e+08
1.091000e+03 2.725660e+08
1.092000e+03 2.868035e+08
1.093000e+03 2.919203e+08
1.094000e+03 2.964259e+08
1.095000e+03 3.028494e+08
1.096000e+03 3.080203e+08
1.097000e+03 3.112480e+08
1.098000e+03 3.172439e+08
1.099000e+03 3.232304e+08
1.100000e+03 2.989954e+08
1.101000e+03 2.967806e+08
1.102000e+03 6.000605e+08
1.103000e+03 1.951185e+09
1.104000e+03 7.920991e+08
1.105000e+03 3.363976e+08
1.106000e+03 3.137836e+09
1.107000e+03 7.450211e+08
1.108000e+03 3.742819e+09
1.109000e+03 1.466248e+09
1.110000e+03 1.014591e+09
1.111000e+03 7.240740e+08
1.112000e+03 3.420959e+09
1.113000e+03 4.400657e+09
1.114000e+03 2.741743e+08
1.115000e+03 2.609005e+09
1.116000e+03 2.233424e+09
1.117000e+03 2.898757e+08
1.118000e+03 1.927962e+09
1.119000e+03 4.153491e+09
1.120000e+03 2.543641e+09
1.121000e+03 4.029357e+09
1.122000e+03 1.150070e+08
1.123000e+03 6.558984e+08
1.124000e+03 4.770007e+09
1.125000e+03 2.596423e+09
1.126000e+03 5.215393e+09
1.127000e+03 5.027294e+09
1.128000e+03 1.806136e+09
1.129000e+03 4.487274e+09
1.130000e+03 4.603103e+09
1.131000e+03 5.469097e+09
1.132000e+03 3.426240e+08
1.133000e+03 2.502934e+09
1.134000e+03 4.698501e+09
1.135000e+03 2.062369e+08
1.136000e+03 3.942463e+09
1.137000e+03 5.820425e+09
1.138000e+03 4.917076e+09
1.139000e+03 5.866570e+09
1.140000e+03 1.994642e+08
1.141000e+03 5.996407e+09
1.142000e+03 6.158626e+09
1.143000e+03 6.065321e+09
1.144000e+03 6.527090e+09
1.145000e+03 2.144302e+09
1.146000e+03 6.723740e+09
1.147000e+03 6.555761e+09
1.148000e+03 3.659560e+09
1.149000e+03 6.757697e+09
1.150000e+03 5.929172e+09
1.151000e+03 7.104676e+09
1.152000e+03 6.992593e+09
1.153000e+03 2.459010e+09
1.154000e+03 8.657116e+08
1.155000e+03 6.400848e+09
1.156000e+03 2.481698e+09
1.157000e+03 7.661337e+09
1.158000e+03 3.069000e+08
1.159000e+03 6.616323e+09
1.160000e+03 6.305549e+09
1.161000e+03 7.941452e+09
1.162000e+03 1.854895e+09
1.163000e+03 6.105303e+09
1.164000e+03 3.733668e+08
1.165000e+03 8.391105e+09
1.166000e+03 8.105256e+09
1.167000e+03 7.749670e+09
1.168000e+03 8.837618e+09
1.169000e+03 8.776038e+09
1.170000e+03 8.778898e+09
1.171000e+03 8.798728e+09
1.172000e+03 7.202251e+09
1.173000e+03 9.399349e+09
1.174000e+03 4.918088e+09
1.175000e+03 4.264622e+08
1.176000e+03 3.764060e+08
1.177000e+03 9.943037e+09
1.178000e+03 9.532360e+09
1.179000e+03 1.009666e+10
1.180000e+03 6.891256e+09
1.181000e+03 1.039988e+10
1.182000e+03 1.033614e+10
1.183000e+03 1.014667e+10
1.184000e+03 1.003787e+10
1.185000e+03 1.047981e+10
1.186000e+03 8.549025e+09
1.187000e+03 1.071088e+10
1.188000e+03 9.121249e+09
1.189000e+03 4.793866e+08
1.190000e+03 2.256796e+09
1.191000e+03 1.064703e+10
1.192000e+03 1.124551e+10
1.193000e+03 4.473119e+08
1.194000e+03 5.420145e+08
1.195000e+03 7.958338e+09
1.196000e+03 1.121306e+10
1.197000e+03 1.551937e+10
1.198000e+03 1.280879e+10
1.199000e+03 1.525510e+10
1.200000e+03 1.169244e+10
1.201000e+03 1.434634e+10
1.202000e+03 1.256324e+10
1.203000e+03 1.615472e+10
1.204000e+03 1.109090e+10
1.205000e+03 1.365186e+10
1.206000e+03 1.214755e+10
1.207000e+03 2.802505e+09
1.208000e+03 9.934709e+09
1.209000e+03 7.794570e+09
1.210000e+03 7.185167e+08
1.211000e+03 4.833264e+09
1.212000e+03 3.293695e+09
1.213000e+03 2.124418e+09
1.214000e+03 1.253036e+09
1.215000e+03 7.746243e+08
1.216000e+03 6.991719e+08
1.217000e+03 1.093993e+09
1.218000e+03 1.922054e+09
1.219000e+03 3.221896e+09
1.220000e+03 4.738582e+09
1.221000e+03 6.956893e+09
1.222000e+03 9.059236e+09
1.223000e+03 1.151446e+10
1.224000e+03 1.411925e+10
1.225000e+03 1.292141e+10
1.226000e+03 1.897593e+10
1.227000e+03 2.117389e+10
1.228000e+03 2.003029e+10
1.229000e+03 2.431752e+10
1.230000e+03 2.459381e+10
1.231000e+03 2.393711e+10
1.232000e+03 3.258499e+10
1.233000e+03 3.477914e+10
1.234000e+03 2.443175e+10
1.235000e+03 3.780928e+10
1.236000e+03 2.879493e+10
1.237000e+03 4.123659e+10
1.238000e+03 3.978004e+10
1.239000e+03 4.140175e+10
1.240000e+03 4.062335e+10
1.241000e+03 5.744215e+10
1.242000e+03 3.738443e+10
1.243000e+03 5.844450e+10
1.244000e+03 2.486801e+10
1.245000e+03 3.593851e+10
1.246000e+03 8.692176e+10
1.247000e+03 8.534653e+10
1.248000e+03 2.584474e+10
1.249000e+03 3.350725e+10
1.250000e+03 1.027078e+11
1.251000e+03 1.164278e+11
1.252000e+03 1.058571e+11
1.253000e+03 1.175109e+11
1.254000e+03 1.054839e+11
1.255000e+03 1.262422e+11
1.256000e+03 1.117124e+11
1.257000e+03 1.267620e+11
1.258000e+03 9.323666e+10
1.259000e+03 1.158037e+11
1.260000e+03 1.187608e+11
1.261000e+03 1.462354e+09
1.262000e+03 1.475072e+10
1.263000e+03 1.395003e+11
1.264000e+03 1.011707e+11
1.265000e+03 1.499857e+09
1.266000e+03 1.342090e+11
1.267000e+03 1.171955e+11
