# wavelength_A flux
5.000000e+02 2.287703e-31
5.010000e+02 2.885941e-31
5.020000e+02 3.637179e-31
5.030000e+02 4.579667e-31
5.040000e+02 5.760994e-31
5.050000e+02 7.248750e-31
5.060000e+02 9.101350e-31
5.070000e+02 1.141675e-30
5.080000e+02 1.430851e-30
5.090000e+02 1.791628e-30
5.100000e+02 2.239127e-30
5.110000e+02 2.801462e-30
5.120000e+02 3.498372e-30
5.130000e+02 4.364927e-30
5.140000e+02 5.441263e-30
5.150000e+02 6.777082e-30
5.160000e+02 8.433510e-30
5.170000e+02 1.048576e-29
5.180000e+02 1.302622e-29
5.190000e+02 1.616836e-29
5.200000e+02 2.005141e-29
5.210000e+02 2.484606e-29
5.220000e+02 3.076114e-29
5.230000e+02 3.805326e-29
5.240000e+02 4.703466e-29
5.250000e+02 5.808792e-29
5.260000e+02 7.167995e-29
5.270000e+02 8.838031e-29
5.280000e+02 1.088833e-28
5.290000e+02 1.340346e-28
5.300000e+02 1.648636e-28
5.310000e+02 2.026220e-28
5.320000e+02 2.488308e-28
5.330000e+02 3.053371e-28
5.340000e+02 3.743818e-28
5.350000e+02 4.586819e-28
5.360000e+02 5.615287e-28
5.370000e+02 6.867244e-28
5.380000e+02 8.396362e-28
5.390000e+02 1.025543e-27
5.400000e+02 1.251663e-27
5.410000e+02 1.526488e-27
5.420000e+02 1.860265e-27
5.430000e+02 2.265334e-27
5.440000e+02 2.756564e-27
5.450000e+02 3.351845e-27
5.460000e+02 4.072693e-27
5.470000e+02 4.944961e-27
5.480000e+02 5.999699e-27
5.490000e+02 7.274164e-27
5.500000e+02 8.813034e-27
5.510000e+02 1.066985e-26
5.520000e+02 1.290872e-26
5.530000e+02 1.560637e-26
5.540000e+02 1.885456e-26
5.550000e+02 2.276290e-26
5.560000e+02 2.746236e-26
5.570000e+02 3.310919e-26
5.580000e+02 3.988973e-26
5.590000e+02 4.802611e-26
5.600000e+02 5.778285e-26
5.610000e+02 6.947481e-26
5.620000e+02 8.347648e-26
5.630000e+02 1.002330e-25
5.640000e+02 1.202733e-25
5.650000e+02 1.442249e-25
5.660000e+02 1.728328e-25
5.670000e+02 2.069799e-25
5.680000e+02 2.477124e-25
5.690000e+02 2.962692e-25
5.700000e+02 3.541162e-25
5.710000e+02 4.229872e-25
5.720000e+02 5.049311e-25
5.730000e+02 6.023682e-25
5.740000e+02 7.181554e-25
5.750000e+02 8.556628e-25
5.760000e+02 1.018864e-24
5.770000e+02 1.212441e-24
5.780000e+02 1.441906e-24
5.790000e+02 1.713748e-24
5.800000e+02 2.035597e-24
5.810000e+02 2.416423e-24
5.820000e+02 2.866763e-24
5.830000e+02 3.398987e-24
5.840000e+02 4.027605e-24
5.850000e+02 4.769662e-24
5.860000e+02 5.645088e-24
5.870000e+02 6.677258e-24
5.880000e+02 7.893528e-24
5.890000e+02 9.325910e-24
5.900000e+02 1.101183e-23
5.910000e+02 1.299504e-23
5.920000e+02 1.532661e-23
5.930000e+02 1.806621e-23
5.940000e+02 2.128342e-23
5.950000e+02 2.505937e-23
5.960000e+02 2.948866e-23
5.970000e+02 3.468142e-23
5.980000e+02 4.076591e-23
5.990000e+02 4.789133e-23
6.000000e+02 5.623121e-23
6.010000e+02 6.598724e-23
6.020000e+02 7.739372e-23
6.030000e+02 9.072266e-23
6.040000e+02 1.062898e-22
6.050000e+02 1.244611e-22
6.060000e+02 1.456612e-22
6.070000e+02 1.703818e-22
6.080000e+02 1.991924e-22
6.090000e+02 2.327520e-22
6.100000e+02 2.718233e-22
6.110000e+02 3.172878e-22
6.120000e+02 3.701646e-22
6.130000e+02 4.316306e-22
6.140000e+02 5.030446e-22
6.150000e+02 5.859745e-22
6.160000e+02 6.822289e-22
6.170000e+02 7.938924e-22
6.180000e+02 9.233672e-22
6.190000e+02 1.073420e-21
6.200000e+02 1.247235e-21
6.210000e+02 1.448476e-21
6.220000e+02 1.681356e-21
6.230000e+02 1.950719e-21
6.240000e+02 2.262129e-21
6.250000e+02 2.621975e-21
6.260000e+02 3.037592e-21
6.270000e+02 3.517393e-21
6.280000e+02 4.071028e-21
6.290000e+02 4.709554e-21
6.300000e+02 5.445645e-21
6.310000e+02 6.293802e-21
6.320000e+02 7.270647e-21
6.330000e+02 8.395168e-21
6.340000e+02 9.689096e-21
6.350000e+02 1.117727e-20
6.360000e+02 1.288806e-20
6.370000e+02 1.485388e-20
6.380000e+02 1.711172e-20
6.390000e+02 1.970379e-20
6.400000e+02 2.267823e-20
6.410000e+02 2.608991e-20
6.420000e+02 3.000138e-20
6.430000e+02 3.448387e-20
6.440000e+02 3.961846e-20
6.450000e+02 4.549745e-20
6.460000e+02 5.222583e-20
6.470000e+02 5.992296e-20
6.480000e+02 6.872452e-20
6.490000e+02 7.878464e-20
6.500000e+02 9.027837e-20
6.510000e+02 1.034044e-19
6.520000e+02 1.183882e-19
6.530000e+02 1.354855e-19
6.540000e+02 1.549861e-19
6.550000e+02 1.772186e-19
6.560000e+02 2.025553e-19
6.570000e+02 2.314173e-19
6.580000e+02 2.642819e-19
6.590000e+02 3.016887e-19
6.600000e+02 3.442479e-19
6.610000e+02 3.926496e-19
6.620000e+02 4.476737e-19
6.630000e+02 5.102008e-19
6.640000e+02 5.812256e-19
6.650000e+02 6.618708e-19
6.660000e+02 7.534030e-19
6.670000e+02 8.572508e-19
6.680000e+02 9.750248e-19
6.690000e+02 1.108540e-18
6.700000e+02 1.259842e-18
6.710000e+02 1.431232e-18
6.720000e+02 1.625304e-18
6.730000e+02 1.844973e-18
6.740000e+02 2.093522e-18
6.750000e+02 2.374638e-18
6.760000e+02 2.692469e-18
6.770000e+02 3.051674e-18
6.780000e+02 3.457485e-18
6.790000e+02 3.915779e-18
6.800000e+02 4.433148e-18
6.810000e+02 5.016992e-18
6.820000e+02 5.675607e-18
6.830000e+02 6.418295e-18
6.840000e+02 7.255482e-18
6.850000e+02 8.198845e-18
6.860000e+02 9.261467e-18
6.870000e+02 1.045799e-17
6.880000e+02 1.180480e-17
6.890000e+02 1.332023e-17
6.900000e+02 1.502478e-17
6.910000e+02 1.694138e-17
6.920000e+02 1.909563e-17
6.930000e+02 2.151616e-17
6.940000e+02 2.423493e-17
6.950000e+02 2.728760e-17
6.960000e+02 3.071401e-17
6.970000e+02 3.455857e-17
6.980000e+02 3.887083e-17
6.990000e+02 4.370602e-17
7.000000e+02 4.912571e-17
7.010000e+02 5.519848e-17
7.020000e+02 6.200073e-17
7.030000e+02 6.961751e-17
7.040000e+02 7.814349e-17
7.050000e+02 8.768401e-17
7.060000e+02 9.835624e-17
7.070000e+02 1.102905e-16
7.080000e+02 1.236315e-16
7.090000e+02 1.385403e-16
7.100000e+02 1.551957e-16
7.110000e+02 1.737961e-16
7.120000e+02 1.945621e-16
7.130000e+02 2.177381e-16
7.140000e+02 2.435956e-16
7.150000e+02 2.724357e-16
7.160000e+02 3.045921e-16
7.170000e+02 3.404346e-16
7.180000e+02 3.803734e-16
7.190000e+02 4.248623e-16
7.200000e+02 4.744044e-16
7.210000e+02 5.295564e-16
7.220000e+02 5.909342e-16
7.230000e+02 6.592197e-16
7.240000e+02 7.351669e-16
7.250000e+02 8.196093e-16
7.260000e+02 9.134686e-16
7.270000e+02 1.017763e-15
7.280000e+02 1.133618e-15
7.290000e+02 1.262275e-15
7.300000e+02 1.405108e-15
7.310000e+02 1.563629e-15
7.320000e+02 1.739509e-15
7.330000e+02 1.934592e-15
7.340000e+02 2.150911e-15
7.350000e+02 2.390705e-15
7.360000e+02 2.656446e-15
7.370000e+02 2.950854e-15
7.380000e+02 3.276926e-15
7.390000e+02 3.637964e-15
7.400000e+02 4.037603e-15
7.410000e+02 4.479841e-15
7.420000e+02 4.969080e-15
7.430000e+02 5.510162e-15
7.440000e+02 6.108408e-15
7.450000e+02 6.769672e-15
7.460000e+02 7.500387e-15
7.470000e+02 8.307620e-15
7.480000e+02 9.199135e-15
7.490000e+02 1.018346e-14
7.500000e+02 1.126995e-14
7.510000e+02 1.246888e-14
7.520000e+02 1.379153e-14
7.530000e+02 1.525026e-14
7.540000e+02 1.685864e-14
7.550000e+02 1.863153e-14
7.560000e+02 2.058524e-14
7.570000e+02 2.273762e-14
7.580000e+02 2.510825e-14
7.590000e+02 2.771855e-14
7.600000e+02 3.059199e-14
7.610000e+02 3.375427e-14
7.620000e+02 3.723350e-14
7.630000e+02 4.106044e-14
7.640000e+02 4.526873e-14
7.650000e+02 4.989517e-14
7.660000e+02 5.498000e-14
7.670000e+02 6.056717e-14
7.680000e+02 6.670475e-14
7.690000e+02 7.344522e-14
7.700000e+02 8.084590e-14
7.710000e+02 8.896941e-14
7.720000e+02 9.788406e-14
7.730000e+02 1.076645e-13
7.740000e+02 1.183920e-13
7.750000e+02 1.301553e-13
7.760000e+02 1.430514e-13
7.770000e+02 1.571857e-13
7.780000e+02 1.726733e-13
7.790000e+02 1.896396e-13
7.800000e+02 2.082212e-13
7.810000e+02 2.285668e-13
7.820000e+02 2.508386e-13
7.830000e+02 2.752130e-13
7.840000e+02 3.018819e-13
7.850000e+02 3.310545e-13
7.860000e+02 3.629581e-13
7.870000e+02 3.978399e-13
7.880000e+02 4.359689e-13
7.890000e+02 4.776376e-13
7.900000e+02 5.231637e-13
7.910000e+02 5.728927e-13
7.920000e+02 6.271998e-13
7.930000e+02 6.864926e-13
7.940000e+02 7.512138e-13
7.950000e+02 8.218440e-13
7.960000e+02 8.989049e-13
7.970000e+02 9.829625e-13
7.980000e+02 1.074631e-12
7.990000e+02 1.174578e-12
8.000000e+02 1.283524e-12
8.010000e+02 1.402254e-12
8.020000e+02 1.531617e-12
8.030000e+02 1.672533e-12
8.040000e+02 1.826001e-12
8.050000e+02 1.993100e-12
8.060000e+02 2.175001e-12
8.070000e+02 2.372971e-12
8.080000e+02 2.588383e-12
8.090000e+02 2.822722e-12
8.100000e+02 3.077594e-12
8.110000e+02 3.354738e-12
8.120000e+02 3.656036e-12
8.130000e+02 3.983521e-12
8.140000e+02 4.339392e-12
8.150000e+02 4.726027e-12
8.160000e+02 5.145996e-12
8.170000e+02 5.602075e-12
8.180000e+02 6.097263e-12
8.190000e+02 6.634801e-12
8.200000e+02 7.218187e-12
8.210000e+02 7.851199e-12
8.220000e+02 8.537914e-12
8.230000e+02 9.282733e-12
8.240000e+02 1.009041e-11
8.250000e+02 1.096605e-11
8.260000e+02 1.191520e-11
8.270000e+02 1.294380e-11
8.280000e+02 1.405829e-11
8.290000e+02 1.526559e-11
8.300000e+02 1.657315e-11
8.310000e+02 1.798902e-11
8.320000e+02 1.952186e-11
8.330000e+02 2.118101e-11
8.340000e+02 2.297650e-11
8.350000e+02 2.491916e-11
8.360000e+02 2.702063e-11
8.370000e+02 2.929345e-11
8.380000e+02 3.175109e-11
8.390000e+02 3.440807e-11
8.400000e+02 3.727998e-11
8.410000e+02 4.038363e-11
8.420000e+02 4.373704e-11
8.430000e+02 4.735962e-11
8.440000e+02 5.127221e-11
8.450000e+02 5.549722e-11
8.460000e+02 6.005873e-11
8.470000e+02 6.498258e-11
8.480000e+02 7.029656e-11
8.490000e+02 7.603049e-11
8.500000e+02 8.221637e-11
8.510000e+02 8.888859e-11
8.520000e+02 9.608402e-11
8.530000e+02 1.038422e-10
8.540000e+02 1.122057e-10
8.550000e+02 1.212200e-10
8.560000e+02 1.309339e-10
8.570000e+02 1.413999e-10
8.580000e+02 1.526740e-10
8.590000e+02 1.648165e-10
8.600000e+02 1.778918e-10
8.610000e+02 1.919690e-10
8.620000e+02 2.071223e-10
8.630000e+02 2.234308e-10
8.640000e+02 2.409796e-10
8.650000e+02 2.598595e-10
8.660000e+02 2.801679e-10
8.670000e+02 3.020090e-10
8.680000e+02 3.254943e-10
8.690000e+02 3.507431e-10
8.700000e+02 3.778831e-10
8.710000e+02 4.070508e-10
8.720000e+02 4.383922e-10
8.730000e+02 4.720634e-10
8.740000e+02 5.082314e-10
8.750000e+02 5.470746e-10
8.760000e+02 5.887836e-10
8.770000e+02 6.335623e-10
8.780000e+02 6.816282e-10
8.790000e+02 7.332139e-10
8.800000e+02 7.885678e-10
8.810000e+02 8.479551e-10
8.820000e+02 9.116589e-10
8.830000e+02 9.799814e-10
8.840000e+02 1.053245e-09
8.850000e+02 1.131795e-09
8.860000e+02 1.215997e-09
8.870000e+02 1.306244e-09
8.880000e+02 1.402954e-09
8.890000e+02 1.506572e-09
8.900000e+02 1.617574e-09
8.910000e+02 1.736466e-09
8.920000e+02 1.863788e-09
8.930000e+02 2.000117e-09
8.940000e+02 2.146065e-09
8.950000e+02 2.302286e-09
8.960000e+02 2.469477e-09
8.970000e+02 2.648378e-09
8.980000e+02 2.839780e-09
8.990000e+02 3.044523e-09
9.000000e+02 3.263503e-09
9.010000e+02 3.497672e-09
9.020000e+02 3.748045e-09
9.030000e+02 4.015700e-09
9.040000e+02 4.301786e-09
9.050000e+02 4.607525e-09
9.060000e+02 4.934215e-09
9.070000e+02 5.283239e-09
9.080000e+02 5.656065e-09
9.090000e+02 6.054255e-09
9.100000e+02 6.479470e-09
9.110000e+02 6.933475e-09
9.120000e+02 7.418144e-09
9.130000e+02 7.935471e-09
9.140000e+02 8.572556e-09
9.150000e+02 1.963292e-06
9.160000e+02 1.106331e-05
9.170000e+02 2.732894e-07
9.180000e+02 2.523242e-06
9.190000e+02 3.048324e-05
9.200000e+02 8.134664e-05
9.210000e+02 1.353352e-08
9.220000e+02 3.001770e-05
9.230000e+02 3.041424e-07
9.240000e+02 4.620379e-07
9.250000e+02 4.552733e-06
9.260000e+02 3.546956e-06
9.270000e+02 3.979583e-07
9.280000e+02 4.143214e-04
9.290000e+02 4.314830e-04
9.300000e+02 1.006559e-04
9.310000e+02 4.895365e-07
9.320000e+02 3.479694e-04
9.330000e+02 2.859661e-05
9.340000e+02 7.538882e-06
9.350000e+02 1.053557e-06
9.360000e+02 1.199094e-06
9.370000e+02 2.251875e-07
9.380000e+02 7.932085e-07
9.390000e+02 3.530196e-06
9.400000e+02 2.805772e-04
9.410000e+02 3.874823e-05
9.420000e+02 1.361952e-03
9.430000e+02 5.373993e-06
9.440000e+02 1.542643e-03
9.450000e+02 1.363773e-03
9.460000e+02 9.365362e-05
9.470000e+02 1.624503e-07
9.480000e+02 4.200503e-04
9.490000e+02 5.387702e-05
9.500000e+02 1.349733e-06
9.510000e+02 7.103175e-05
9.520000e+02 1.701285e-04
9.530000e+02 1.188900e-06
9.540000e+02 1.900876e-07
9.550000e+02 1.364353e-05
9.560000e+02 1.703865e-03
9.570000e+02 6.658025e-06
9.580000e+02 1.471562e-07
9.590000e+02 7.049196e-04
9.600000e+02 2.608049e-06
9.610000e+02 1.288775e-04
9.620000e+02 4.479347e-05
9.630000e+02 8.182949e-06
9.640000e+02 1.699318e-06
9.650000e+02 5.366746e-07
9.660000e+02 1.452316e-05
9.670000e+02 2.539833e-06
9.680000e+02 1.709792e-06
9.690000e+02 9.270955e-05
9.700000e+02 1.128709e-04
9.710000e+02 3.873766e-06
9.720000e+02 1.718134e-06
9.730000e+02 1.267139e-05
9.740000e+02 1.086184e-04
9.750000e+02 3.052625e-05
9.760000e+02 1.156140e-03
9.770000e+02 5.434234e-04
9.780000e+02 1.984210e-04
9.790000e+02 6.848712e-03
9.800000e+02 6.173866e-03
9.810000e+02 1.261998e-04
9.820000e+02 2.223148e-05
9.830000e+02 4.217434e-03
9.840000e+02 2.454735e-04
9.850000e+02 5.690348e-05
9.860000e+02 9.478758e-05
9.870000e+02 4.673425e-03
9.880000e+02 1.704786e-06
9.890000e+02 6.928494e-04
9.900000e+02 2.159145e-03
9.910000e+02 2.276637e-05
9.920000e+02 1.063371e-06
9.930000e+02 1.358183e-02
9.940000e+02 2.022702e-06
9.950000e+02 5.828328e-04
9.960000e+02 6.434508e-06
9.970000e+02 8.623128e-04
9.980000e+02 2.631231e-03
9.990000e+02 4.023046e-05
1.000000e+03 2.291454e-02
1.001000e+03 1.846896e-02
1.002000e+03 1.368143e-02
1.003000e+03 4.205015e-05
1.004000e+03 3.085472e-06
1.005000e+03 1.539029e-04
1.006000e+03 9.254454e-03
1.007000e+03 1.710173e-02
1.008000e+03 4.488114e-03
1.009000e+03 6.643817e-05
1.010000e+03 4.689496e-03
1.011000e+03 7.278077e-03
1.012000e+03 6.476918e-03
1.013000e+03 5.855977e-03
1.014000e+03 3.579305e-06
1.015000e+03 5.636830e-06
1.016000e+03 1.980495e-04
1.017000e+03 4.153699e-06
1.018000e+03 6.420119e-05
1.019000e+03 5.777925e-06
1.020000e+03 1.216516e-02
1.021000e+03 1.242571e-04
1.022000e+03 1.812829e-04
1.023000e+03 1.163594e-05
1.024000e+03 1.690143e-03
1.025000e+03 6.354647e-06
1.026000e+03 1.042505e-05
1.027000e+03 4.785854e-04
1.028000e+03 6.133411e-05
1.029000e+03 7.877592e-06
1.030000e+03 7.850546e-04
1.031000e+03 1.547434e-03
1.032000e+03 2.166241e-02
1.033000e+03 5.273572e-04
1.034000e+03 2.101270e-03
1.035000e+03 4.266109e-05
1.036000e+03 1.153769e-05
1.037000e+03 1.791737e-02
1.038000e+03 1.247387e-01
1.039000e+03 1.892668e-02
1.040000e+03 1.860181e-02
1.041000e+03 1.495101e-01
1.042000e+03 7.356757e-02
1.043000e+03 7.694580e-02
1.044000e+03 3.631021e-01
1.045000e+03 3.391792e-05
1.046000e+03 1.801582e-02
1.047000e+03 5.553141e-03
1.048000e+03 1.119431e-04
1.049000e+03 5.561770e-03
1.050000e+03 1.531992e-03
1.051000e+03 8.196682e-04
1.052000e+03 9.365664e-02
1.053000e+03 1.970343e-01
1.054000e+03 2.831966e-05
1.055000e+03 2.431088e-01
1.056000e+03 2.695129e-01
1.057000e+03 1.720331e-02
1.058000e+03 8.116144e-04
1.059000e+03 6.218404e-04
1.060000e+03 1.752600e-04
1.061000e+03 3.055930e-02
1.062000e+03 4.318580e-04
1.063000e+03 2.256300e-02
1.064000e+03 7.414818e-05
1.065000e+03 4.871190e-05
1.066000e+03 4.532626e-02
1.067000e+03 5.455770e-04
1.068000e+03 6.468977e-01
1.069000e+03 1.398998e-04
1.070000e+03 7.796407e-03
1.071000e+03 1.675585e-01
1.072000e+03 5.291505e-01
1.073000e+03 7.450581e-05
1.074000e+03 1.850115e-02
1.075000e+03 1.029038e-02
1.076000e+03 6.017074e-01
1.077000e+03 5.730502e-04
1.078000e+03 1.141548e-03
1.079000e+03 5.443695e-03
1.080000e+03 2.296541e-02
1.081000e+03 1.202703e-01
1.082000e+03 6.310415e-02
1.083000e+03 3.138494e-02
1.084000e+03 1.575573e+00
1.085000e+03 7.331133e-03
1.086000e+03 1.017058e+00
1.087000e+03 1.440644e-03
1.088000e+03 1.925683e+00
1.089000e+03 2.011790e+00
1.090000e+03 5.745972e-03
1.091000e+03 8.575916e-03
1.092000e+03 1.517323e+00
1.093000e+03 1.945140e+00
1.094000e+03 8.524221e-02
1.095000e+03 2.698885e+00
1.096000e+03 1.753613e-01
1.097000e+03 4.579612e-01
1.098000e+03 2.378074e+00
1.099000e+03 2.240920e-02
1.100000e+03 4.453659e-04
1.101000e+03 1.187550e-03
1.102000e+03 1.443183e-02
1.103000e+03 2.386694e+00
1.104000e+03 3.416094e+00
1.105000e+03 2.968518e+00
1.106000e+03 7.510929e-02
1.107000e+03 7.483959e-04
1.108000e+03 5.854669e-01
1.109000e+03 8.297205e-03
1.110000e+03 3.955666e+00
1.111000e+03 1.869617e+00
1.112000e+03 2.391613e-01
1.113000e+03 2.775427e+00
1.114000e+03 1.343881e-01
1.115000e+03 1.045013e-02
1.116000e+03 4.050337e-03
1.117000e+03 2.126809e+00
1.118000e+03 1.401219e-02
1.119000e+03 2.804032e-01
1.120000e+03 5.749702e-03
1.121000e+03 1.380924e+00
1.122000e+03 6.578931e+00
1.123000e+03 3.141287e+00
1.124000e+03 3.715436e+00
1.125000e+03 1.523218e+00
1.126000e+03 1.040973e+01
1.127000e+03 2.079976e+00
1.128000e+03 5.178380e+00
1.129000e+03 8.463626e-01
1.130000e+03 4.892412e+00
1.131000e+03 5.921412e+00
1.132000e+03 1.063085e-02
1.133000e+03 7.654715e-02
1.134000e+03 1.028351e+00
1.135000e+03 5.024358e+00
1.136000e+03 1.661520e-01
1.137000e+03 3.450556e+00
1.138000e+03 8.105066e-01
1.139000e+03 6.217978e+00
1.140000e+03 5.895241e+00
1.141000e+03 5.612002e+00
1.142000e+03 6.908048e+00
1.143000e+03 1.106997e+00
1.144000e+03 6.787601e+00
1.145000e+03 5.912781e-03
1.146000e+03 7.406357e+00
1.147000e+03 6.286448e+00
1.148000e+03 4.377890e-02
1.149000e+03 3.750535e+00
1.150000e+03 2.645924e+00
1.151000e+03 7.026265e+00
1.152000e+03 4.650373e+00
1.153000e+03 6.274413e+00
1.154000e+03 7.425652e+00
1.155000e+03 3.385097e+00
1.156000e+03 5.820423e+00
1.157000e+03 6.718705e+00
1.158000e+03 1.234639e+00
1.159000e+03 6.595122e+00
1.160000e+03 1.577356e+00
1.161000e+03 5.846664e+00
1.162000e+03 1.922989e-01
1.163000e+03 6.875310e-01
1.164000e+03 2.939677e-02
1.165000e+03 3.081687e+00
1.166000e+03 1.750930e+00
1.167000e+03 1.408554e+00
1.168000e+03 7.251334e+00
1.169000e+03 7.654510e+00
1.170000e+03 1.137054e+00
1.171000e+03 3.674514e+00
1.172000e+03 1.855021e+00
1.173000e+03 2.881390e+00
1.174000e+03 3.561330e-02
1.175000e+03 1.875508e-02
1.176000e+03 7.878661e-03
1.177000e+03 9.500354e+00
1.178000e+03 9.134076e+00
1.179000e+03 8.230268e+00
1.180000e+03 4.359665e+00
1.181000e+03 8.067612e+00
1.182000e+03 7.345915e+00
1.183000e+03 4.343977e+00
1.184000e+03 3.648943e+00
1.185000e+03 4.395690e+00
1.186000e+03 1.827240e-01
1.187000e+03 5.835749e+00
1.188000e+03 2.787661e+00
1.189000e+03 6.557333e+00
1.190000e+03 6.336480e+00
1.191000e+03 5.221760e+00
1.192000e+03 5.439806e+00
1.193000e+03 4.558298e+00
1.194000e+03 5.251619e+00
1.195000e+03 4.997791e+00
1.196000e+03 3.602965e+01
1.197000e+03 5.143658e+01
1.198000e+03 5.758524e-01
1.199000e+03 4.564614e+01
1.200000e+03 1.902324e+00
1.201000e+03 3.612862e+01
1.202000e+03 1.160051e+01
1.203000e+03 2.602412e+01
1.204000e+03 1.967119e+00
1.205000e+03 1.792512e+01
1.206000e+03 1.583640e+01
1.207000e+03 3.095119e+00
1.208000e+03 8.718965e+00
1.209000e+03 7.046191e+00
1.210000e+03 3.589582e-02
1.211000e+03 2.870199e+00
1.212000e+03 1.342749e+00
1.213000e+03 6.939603e-01
1.214000e+03 2.134830e-01
1.215000e+03 3.633205e-02
1.216000e+03 2.965518e-02
1.217000e+03 1.347075e-01
1.218000e+03 5.745153e-01
1.219000e+03 1.480558e+00
1.220000e+03 1.448085e+00
1.221000e+03 5.575471e+00
1.222000e+03 8.034050e+00
1.223000e+03 9.170549e+00
1.224000e+03 1.735907e+01
1.225000e+03 9.579258e-01
1.226000e+03 3.416536e+01
1.227000e+03 4.249820e+01
1.228000e+03 7.307932e+00
1.229000e+03 4.986083e+01
1.230000e+03 3.832878e+01
1.231000e+03 4.116982e+00
1.232000e+03 9.973786e+01
1.233000e+03 1.142108e+02
1.234000e+03 1.075870e+02
1.235000e+03 1.182590e+02
1.236000e+03 1.232962e+01
1.237000e+03 1.575036e+02
1.238000e+03 1.527066e+02
1.239000e+03 7.828008e+01
1.240000e+03 8.000548e+01
1.241000e+03 8.668481e+01
1.242000e+03 1.632060e+02
1.243000e+03 2.225224e+02
1.244000e+03 2.398408e+02
1.245000e+03 2.336745e+02
1.246000e+03 1.602834e+02
1.247000e+03 2.121027e+02
1.248000e+03 2.270790e+02
1.249000e+03 2.993708e+02
1.250000e+03 2.023676e+02
1.251000e+03 3.078475e+02
1.252000e+03 2.549361e+02
1.253000e+03 3.295596e+02
1.254000e+03 2.789427e+02
1.255000e+03 1.137691e+02
1.256000e+03 2.261406e+02
1.257000e+03 2.264888e+02
1.258000e+03 1.325986e+02
1.259000e+03 2.028141e+02
1.260000e+03 3.640386e+02
1.261000e+03 1.326962e+01
1.262000e+03 3.884451e+02
1.263000e+03 3.418119e+02
1.264000e+03 1.713166e+02
1.265000e+03 1.379546e+02
1.266000e+03 4.279797e+02
1.267000e+03 2.661029e+02
