# wavelength_A flux
5.000000e+02 2.802597e-45
5.010000e+02 4.203895e-45
5.020000e+02 5.605194e-45
5.030000e+02 7.006492e-45
5.040000e+02 9.809089e-45
5.050000e+02 1.261169e-44
5.060000e+02 1.681558e-44
5.070000e+02 2.242078e-44
5.080000e+02 2.942727e-44
5.090000e+02 3.923636e-44
5.100000e+02 5.184804e-44
5.110000e+02 6.866362e-44
5.120000e+02 9.108440e-44
5.130000e+02 1.219130e-43
5.140000e+02 1.611493e-43
5.150000e+02 2.129974e-43
5.160000e+02 2.816610e-43
5.170000e+02 3.727454e-43
5.180000e+02 4.904545e-43
5.190000e+02 6.473999e-43
5.200000e+02 8.505882e-43
5.210000e+02 1.119637e-42
5.220000e+02 1.469962e-42
5.230000e+02 1.928187e-42
5.240000e+02 2.526541e-42
5.250000e+02 3.307064e-42
5.260000e+02 4.324407e-42
5.270000e+02 5.650035e-42
5.280000e+02 7.372231e-42
5.290000e+02 9.611506e-42
5.300000e+02 1.251780e-41
5.310000e+02 1.628589e-41
5.320000e+02 2.116661e-41
5.330000e+02 2.748227e-41
5.340000e+02 3.564903e-41
5.350000e+02 4.619521e-41
5.360000e+02 5.980181e-41
5.370000e+02 7.734046e-41
5.380000e+02 9.992940e-41
5.390000e+02 1.289881e-40
5.400000e+02 1.663369e-40
5.410000e+02 2.142936e-40
5.420000e+02 2.758148e-40
5.430000e+02 3.546630e-40
5.440000e+02 4.556224e-40
5.450000e+02 5.847717e-40
5.460000e+02 7.498334e-40
5.470000e+02 9.605957e-40
5.480000e+02 1.229466e-39
5.490000e+02 1.572153e-39
5.500000e+02 2.008527e-39
5.510000e+02 2.563702e-39
5.520000e+02 3.269385e-39
5.530000e+02 4.165581e-39
5.540000e+02 5.302712e-39
5.550000e+02 6.744286e-39
5.560000e+02 8.570201e-39
5.570000e+02 1.088092e-38
5.580000e+02 1.380262e-38
5.590000e+02 1.749366e-38
5.600000e+02 2.215265e-38
5.610000e+02 2.802839e-38
5.620000e+02 3.543235e-38
5.630000e+02 4.475416e-38
5.640000e+02 5.648074e-38
5.650000e+02 7.122011e-38
5.660000e+02 8.973097e-38
5.670000e+02 1.129591e-37
5.680000e+02 1.420828e-37
5.690000e+02 1.785686e-37
5.700000e+02 2.242402e-37
5.710000e+02 2.813641e-37
5.720000e+02 3.527546e-37
5.730000e+02 4.419034e-37
5.740000e+02 5.531392e-37
5.750000e+02 6.918243e-37
5.760000e+02 8.645960e-37
5.770000e+02 1.079664e-36
5.780000e+02 1.347174e-36
5.790000e+02 1.679655e-36
5.800000e+02 2.092568e-36
5.810000e+02 2.604979e-36
5.820000e+02 3.240377e-36
5.830000e+02 4.027682e-36
5.840000e+02 5.002476e-36
5.850000e+02 6.208501e-36
5.860000e+02 7.699489e-36
5.870000e+02 9.541405e-36
5.880000e+02 1.181516e-35
5.890000e+02 1.461993e-35
5.900000e+02 1.807721e-35
5.910000e+02 2.233568e-35
5.920000e+02 2.757721e-35
5.930000e+02 3.402410e-35
5.940000e+02 4.194783e-35
5.950000e+02 5.167978e-35
5.960000e+02 6.362409e-35
5.970000e+02 7.827335e-35
5.980000e+02 9.622750e-35
5.990000e+02 1.182167e-34
6.000000e+02 1.451292e-34
6.010000e+02 1.780443e-34
6.020000e+02 2.182733e-34
6.030000e+02 2.674074e-34
6.040000e+02 3.273773e-34
6.050000e+02 4.005227e-34
6.060000e+02 4.896783e-34
6.070000e+02 5.982752e-34
6.080000e+02 7.304646e-34
6.090000e+02 8.912648e-34
6.100000e+02 1.086739e-33
6.110000e+02 1.324207e-33
6.120000e+02 1.612502e-33
6.130000e+02 1.962274e-33
6.140000e+02 2.386359e-33
6.150000e+02 2.900211e-33
6.160000e+02 3.522434e-33
6.170000e+02 4.275399e-33
6.180000e+02 5.186001e-33
6.190000e+02 6.286542e-33
6.200000e+02 7.615806e-33
6.210000e+02 9.220319e-33
6.220000e+02 1.115587e-32
6.230000e+02 1.348931e-32
6.240000e+02 1.630069e-32
6.250000e+02 1.968582e-32
6.260000e+02 2.375930e-32
6.270000e+02 2.865813e-32
6.280000e+02 3.454595e-32
6.290000e+02 4.161817e-32
6.300000e+02 5.010794e-32
6.310000e+02 6.029330e-32
6.320000e+02 7.250566e-32
6.330000e+02 8.713973e-32
6.340000e+02 1.046654e-31
6.350000e+02 1.256418e-31
6.360000e+02 1.507336e-31
6.370000e+02 1.807310e-31
6.380000e+02 2.165722e-31
6.390000e+02 2.593710e-31
6.400000e+02 3.104489e-31
6.410000e+02 3.713727e-31
6.420000e+02 4.439992e-31
6.430000e+02 5.305273e-31
6.440000e+02 6.335603e-31
6.450000e+02 7.561778e-31
6.460000e+02 9.020213e-31
6.470000e+02 1.075394e-30
6.480000e+02 1.281380e-30
6.490000e+02 1.525978e-30
6.500000e+02 1.816268e-30
6.510000e+02 2.160600e-30
6.520000e+02 2.568811e-30
6.530000e+02 3.052494e-30
6.540000e+02 3.625294e-30
6.550000e+02 4.303270e-30
6.560000e+02 5.105306e-30
6.570000e+02 6.053604e-30
6.580000e+02 7.174248e-30
6.590000e+02 8.497865e-30
6.600000e+02 1.006041e-29
6.610000e+02 1.190404e-29
6.620000e+02 1.407821e-29
6.630000e+02 1.664086e-29
6.640000e+02 1.965987e-29
6.650000e+02 2.321468e-29
6.660000e+02 2.739826e-29
6.670000e+02 3.231936e-29
6.680000e+02 3.810507e-29
6.690000e+02 4.490390e-29
6.700000e+02 5.288929e-29
6.710000e+02 6.226368e-29
6.720000e+02 7.326322e-29
6.730000e+02 8.616334e-29
6.740000e+02 1.012850e-28
6.750000e+02 1.190022e-28
6.760000e+02 1.397504e-28
6.770000e+02 1.640363e-28
6.780000e+02 1.924496e-28
6.790000e+02 2.256758e-28
6.800000e+02 2.645117e-28
6.810000e+02 3.098828e-28
6.820000e+02 3.628639e-28
6.830000e+02 4.247024e-28
6.840000e+02 4.968452e-28
6.850000e+02 5.809703e-28
6.860000e+02 6.790225e-28
6.870000e+02 7.932546e-28
6.880000e+02 9.262753e-28
6.890000e+02 1.081104e-27
6.900000e+02 1.261235e-27
6.910000e+02 1.470707e-27
6.920000e+02 1.714189e-27
6.930000e+02 1.997077e-27
6.940000e+02 2.325602e-27
6.950000e+02 2.706955e-27
6.960000e+02 3.149435e-27
6.970000e+02 3.662614e-27
6.980000e+02 4.257526e-27
6.990000e+02 4.946887e-27
7.000000e+02 5.745344e-27
7.010000e+02 6.669761e-27
7.020000e+02 7.739546e-27
7.030000e+02 8.977026e-27
7.040000e+02 1.040788e-26
7.050000e+02 1.206161e-26
7.060000e+02 1.397212e-26
7.070000e+02 1.617837e-26
7.080000e+02 1.872504e-26
7.090000e+02 2.166344e-26
7.100000e+02 2.505240e-26
7.110000e+02 2.895940e-26
7.120000e+02 3.346174e-26
7.130000e+02 3.864802e-26
7.140000e+02 4.461968e-26
7.150000e+02 5.149283e-26
7.160000e+02 5.940037e-26
7.170000e+02 6.849426e-26
7.180000e+02 7.894828e-26
7.190000e+02 9.096103e-26
7.200000e+02 1.047594e-25
7.210000e+02 1.206025e-25
7.220000e+02 1.387861e-25
7.230000e+02 1.596478e-25
7.240000e+02 1.835725e-25
7.250000e+02 2.109992e-25
7.260000e+02 2.424283e-25
7.270000e+02 2.784299e-25
7.280000e+02 3.196532e-25
7.290000e+02 3.668375e-25
7.300000e+02 4.208239e-25
7.310000e+02 4.825696e-25
7.320000e+02 5.531628e-25
7.330000e+02 6.338407e-25
7.340000e+02 7.260092e-25
7.350000e+02 8.312653e-25
7.360000e+02 9.514226e-25
7.370000e+02 1.088539e-24
7.380000e+02 1.244951e-24
7.390000e+02 1.423307e-24
7.400000e+02 1.626612e-24
7.410000e+02 1.858270e-24
7.420000e+02 2.122139e-24
7.430000e+02 2.422589e-24
7.440000e+02 2.764567e-24
7.450000e+02 3.153672e-24
7.460000e+02 3.596241e-24
7.470000e+02 4.099439e-24
7.480000e+02 4.671368e-24
7.490000e+02 5.321186e-24
7.500000e+02 6.059239e-24
7.510000e+02 6.897214e-24
7.520000e+02 7.848304e-24
7.530000e+02 8.927402e-24
7.540000e+02 1.015131e-23
7.550000e+02 1.153898e-23
7.560000e+02 1.311179e-23
7.570000e+02 1.489381e-23
7.580000e+02 1.691220e-23
7.590000e+02 1.919752e-23
7.600000e+02 2.178419e-23
7.610000e+02 2.471097e-23
7.620000e+02 2.802145e-23
7.630000e+02 3.176469e-23
7.640000e+02 3.599584e-23
7.650000e+02 4.077692e-23
7.660000e+02 4.617760e-23
7.670000e+02 5.227617e-23
7.680000e+02 5.916054e-23
7.690000e+02 6.692943e-23
7.700000e+02 7.569361e-23
7.710000e+02 8.557740e-23
7.720000e+02 9.672021e-23
7.730000e+02 1.092784e-22
7.740000e+02 1.234271e-22
7.750000e+02 1.393628e-22
7.760000e+02 1.573053e-22
7.770000e+02 1.775012e-22
7.780000e+02 2.002260e-22
7.790000e+02 2.257885e-22
7.800000e+02 2.545340e-22
7.810000e+02 2.868488e-22
7.820000e+02 3.231647e-22
7.830000e+02 3.639644e-22
7.840000e+02 4.097875e-22
7.850000e+02 4.612366e-22
7.860000e+02 5.189848e-22
7.870000e+02 5.837835e-22
7.880000e+02 6.564714e-22
7.890000e+02 7.379842e-22
7.900000e+02 8.293659e-22
7.910000e+02 9.317805e-22
7.920000e+02 1.046526e-21
7.930000e+02 1.175048e-21
7.940000e+02 1.318958e-21
7.950000e+02 1.480051e-21
7.960000e+02 1.660326e-21
7.970000e+02 1.862007e-21
7.980000e+02 2.087570e-21
7.990000e+02 2.339770e-21
8.000000e+02 2.621669e-21
8.010000e+02 2.936676e-21
8.020000e+02 3.288575e-21
8.030000e+02 3.681576e-21
8.040000e+02 4.120353e-21
8.050000e+02 4.610099e-21
8.060000e+02 5.156580e-21
8.070000e+02 5.766194e-21
8.080000e+02 6.446045e-21
8.090000e+02 7.204012e-21
8.100000e+02 8.048835e-21
8.110000e+02 8.990204e-21
8.120000e+02 1.003886e-20
8.130000e+02 1.120671e-20
8.140000e+02 1.250694e-20
8.150000e+02 1.395417e-20
8.160000e+02 1.556456e-20
8.170000e+02 1.735603e-20
8.180000e+02 1.934840e-20
8.190000e+02 2.156360e-20
8.200000e+02 2.402588e-20
8.210000e+02 2.676208e-20
8.220000e+02 2.980184e-20
8.230000e+02 3.317796e-20
8.240000e+02 3.692665e-20
8.250000e+02 4.108793e-20
8.260000e+02 4.570598e-20
8.270000e+02 5.082962e-20
8.280000e+02 5.651270e-20
8.290000e+02 6.281465e-20
8.300000e+02 6.980108e-20
8.310000e+02 7.754431e-20
8.320000e+02 8.612411e-20
8.330000e+02 9.562842e-20
8.340000e+02 1.061542e-19
8.350000e+02 1.178082e-19
8.360000e+02 1.307081e-19
8.370000e+02 1.449835e-19
8.380000e+02 1.607771e-19
8.390000e+02 1.782459e-19
8.400000e+02 1.975629e-19
8.410000e+02 2.189181e-19
8.420000e+02 2.425209e-19
8.430000e+02 2.686012e-19
8.440000e+02 2.974121e-19
8.450000e+02 3.292316e-19
8.460000e+02 3.643653e-19
8.470000e+02 4.031489e-19
8.480000e+02 4.459512e-19
8.490000e+02 4.931772e-19
8.500000e+02 5.452714e-19
8.510000e+02 6.027219e-19
8.520000e+02 6.660642e-19
8.530000e+02 7.358860e-19
8.540000e+02 8.128315e-19
8.550000e+02 8.976077e-19
8.560000e+02 9.909893e-19
8.570000e+02 1.093825e-18
8.580000e+02 1.207047e-18
8.590000e+02 1.331674e-18
8.600000e+02 1.468823e-18
8.610000e+02 1.619717e-18
8.620000e+02 1.785695e-18
8.630000e+02 1.968223e-18
8.640000e+02 2.168906e-18
8.650000e+02 2.389498e-18
8.660000e+02 2.631919e-18
8.670000e+02 2.898269e-18
8.680000e+02 3.190844e-18
8.690000e+02 3.512153e-18
8.700000e+02 3.864939e-18
8.710000e+02 4.252198e-18
8.720000e+02 4.677205e-18
8.730000e+02 5.143534e-18
8.740000e+02 5.655091e-18
8.750000e+02 6.216137e-18
8.760000e+02 6.831325e-18
8.770000e+02 7.505731e-18
8.780000e+02 8.244895e-18
8.790000e+02 9.054857e-18
8.800000e+02 9.942207e-18
8.810000e+02 1.091413e-17
8.820000e+02 1.197845e-17
8.830000e+02 1.314371e-17
8.840000e+02 1.441920e-17
8.850000e+02 1.581505e-17
8.860000e+02 1.734231e-17
8.870000e+02 1.901297e-17
8.880000e+02 2.084014e-17
8.890000e+02 2.283803e-17
8.900000e+02 2.502215e-17
8.910000e+02 2.740935e-17
8.920000e+02 3.001798e-17
8.930000e+02 3.286799e-17
8.940000e+02 3.598105e-17
8.950000e+02 3.938076e-17
8.960000e+02 4.309273e-17
8.970000e+02 4.714483e-17
8.980000e+02 5.156731e-17
8.990000e+02 5.639305e-17
9.000000e+02 6.165775e-17
9.010000e+02 6.740018e-17
9.020000e+02 7.366242e-17
9.030000e+02 8.049016e-17
9.040000e+02 8.793298e-17
9.050000e+02 9.604466e-17
9.060000e+02 1.048836e-16
9.070000e+02 1.145130e-16
9.080000e+02 1.250015e-16
9.090000e+02 1.364236e-16
9.100000e+02 1.488599e-16
9.110000e+02 1.623977e-16
9.120000e+02 1.771319e-16
9.130000e+02 1.931650e-16
9.140000e+02 2.244739e-16
9.150000e+02 4.072378e-14
9.160000e+02 3.328183e-13
9.170000e+02 5.253614e-14
9.180000e+02 5.444558e-14
9.190000e+02 1.079181e-12
9.200000e+02 3.552862e-12
9.210000e+02 3.836600e-16
9.220000e+02 5.276564e-12
9.230000e+02 2.097351e-14
9.240000e+02 9.494055e-14
9.250000e+02 2.621376e-12
9.260000e+02 9.022283e-14
9.270000e+02 1.232237e-13
9.280000e+02 3.102377e-11
9.290000e+02 2.912771e-11
9.300000e+02 4.997850e-12
9.310000e+02 6.144621e-14
9.320000e+02 2.263281e-11
9.330000e+02 2.949445e-11
9.340000e+02 9.560828e-12
9.350000e+02 3.894059e-14
9.360000e+02 8.009110e-13
9.370000e+02 1.527920e-14
9.380000e+02 2.535107e-14
9.390000e+02 2.936648e-12
9.400000e+02 6.779515e-11
9.410000e+02 2.639486e-12
9.420000e+02 1.343562e-10
9.430000e+02 8.190601e-12
9.440000e+02 1.580633e-10
9.450000e+02 1.557956e-10
9.460000e+02 8.703160e-11
9.470000e+02 4.119274e-14
9.480000e+02 3.839696e-11
9.490000e+02 2.682718e-12
9.500000e+02 3.330330e-14
9.510000e+02 1.865269e-11
9.520000e+02 8.941495e-11
9.530000e+02 1.272848e-12
9.540000e+02 4.545821e-14
9.550000e+02 1.620698e-11
9.560000e+02 2.681305e-10
9.570000e+02 3.559791e-12
9.580000e+02 1.744438e-14
9.590000e+02 3.199094e-10
9.600000e+02 1.235886e-13
9.610000e+02 3.001422e-10
9.620000e+02 1.350635e-10
9.630000e+02 4.799328e-12
9.640000e+02 1.721373e-12
9.650000e+02 1.988409e-13
9.660000e+02 1.994224e-11
9.670000e+02 1.776496e-12
9.680000e+02 1.252026e-12
9.690000e+02 7.930639e-11
9.700000e+02 1.325148e-10
9.710000e+02 2.919037e-12
9.720000e+02 3.583517e-13
9.730000e+02 6.551296e-13
9.740000e+02 3.472214e-11
9.750000e+02 4.238888e-11
9.760000e+02 5.309818e-10
9.770000e+02 6.656831e-10
9.780000e+02 5.687919e-10
9.790000e+02 1.470203e-09
9.800000e+02 1.640567e-09
9.810000e+02 3.897025e-10
9.820000e+02 4.971690e-11
9.830000e+02 2.155568e-09
9.840000e+02 3.010810e-11
9.850000e+02 1.377103e-10
9.860000e+02 1.909412e-10
9.870000e+02 2.653604e-09
9.880000e+02 9.896528e-13
9.890000e+02 1.942208e-09
9.900000e+02 2.711463e-09
9.910000e+02 6.732317e-11
9.920000e+02 1.968989e-13
9.930000e+02 3.365353e-09
9.940000e+02 1.674771e-13
9.950000e+02 9.415980e-11
9.960000e+02 6.213696e-12
9.970000e+02 2.036682e-11
9.980000e+02 4.346975e-09
9.990000e+02 8.673291e-11
1.000000e+03 7.155994e-09
1.001000e+03 6.065519e-09
1.002000e+03 7.576801e-09
1.003000e+03 7.963430e-11
1.004000e+03 1.452172e-12
1.005000e+03 6.206111e-10
1.006000e+03 8.844672e-09
1.007000e+03 1.003059e-08
1.008000e+03 8.719821e-09
1.009000e+03 9.511247e-11
1.010000e+03 8.354089e-09
1.011000e+03 7.813162e-09
1.012000e+03 1.042085e-08
1.013000e+03 1.074778e-08
1.014000e+03 1.023626e-12
1.015000e+03 4.295231e-12
1.016000e+03 7.693099e-10
1.017000e+03 8.046896e-13
1.018000e+03 1.119171e-10
1.019000e+03 3.392842e-12
1.020000e+03 6.808319e-09
1.021000e+03 2.323142e-10
1.022000e+03 4.352319e-10
1.023000e+03 1.642098e-11
1.024000e+03 2.621824e-10
1.025000e+03 1.163753e-12
1.026000e+03 1.474100e-12
1.027000e+03 1.160172e-10
1.028000e+03 8.307022e-12
1.029000e+03 2.046363e-12
1.030000e+03 2.257821e-09
1.031000e+03 1.182385e-08
1.032000e+03 2.796780e-08
1.033000e+03 1.057110e-10
1.034000e+03 1.566145e-08
1.035000e+03 5.101697e-12
1.036000e+03 5.023537e-12
1.037000e+03 1.249691e-07
1.038000e+03 2.276625e-07
1.039000e+03 1.870572e-07
1.040000e+03 1.120746e-07
1.041000e+03 2.853677e-07
1.042000e+03 3.399201e-07
1.043000e+03 1.930715e-07
1.044000e+03 4.865924e-07
1.045000e+03 7.038717e-12
1.046000e+03 1.603942e-07
1.047000e+03 1.145290e-07
1.048000e+03 3.801546e-10
1.049000e+03 8.434122e-08
1.050000e+03 7.098208e-09
1.051000e+03 2.629463e-09
1.052000e+03 6.772402e-07
1.053000e+03 7.547037e-07
1.054000e+03 1.216449e-11
1.055000e+03 7.222546e-07
1.056000e+03 8.848252e-07
1.057000e+03 3.108164e-07
1.058000e+03 2.508691e-09
1.059000e+03 1.514422e-09
1.060000e+03 5.234142e-10
1.061000e+03 8.331093e-07
1.062000e+03 1.186985e-09
1.063000e+03 5.617787e-09
1.064000e+03 2.034994e-11
1.065000e+03 2.182787e-11
1.066000e+03 6.008729e-07
1.067000e+03 3.616397e-09
1.068000e+03 1.925469e-06
1.069000e+03 5.329951e-10
1.070000e+03 6.509572e-08
1.071000e+03 1.454657e-06
1.072000e+03 2.549370e-06
1.073000e+03 6.252776e-11
1.074000e+03 6.340011e-07
1.075000e+03 3.552473e-07
1.076000e+03 1.691914e-06
1.077000e+03 6.664891e-10
1.078000e+03 4.350113e-09
1.079000e+03 4.290804e-08
1.080000e+03 3.957432e-07
1.081000e+03 2.857344e-06
1.082000e+03 1.852194e-06
1.083000e+03 9.706902e-07
1.084000e+03 4.602093e-06
1.085000e+03 1.058179e-07
1.086000e+03 4.875580e-06
1.087000e+03 1.033959e-08
1.088000e+03 5.743234e-06
1.089000e+03 6.045690e-06
1.090000e+03 7.972925e-08
1.091000e+03 1.989911e-07
1.092000e+03 6.449167e-06
1.093000e+03 7.243122e-06
1.094000e+03 1.450244e-06
1.095000e+03 8.306347e-06
1.096000e+03 8.028042e-08
1.097000e+03 7.807211e-06
1.098000e+03 8.410331e-06
1.099000e+03 3.357100e-07
1.100000e+03 1.322121e-09
1.101000e+03 5.099821e-09
1.102000e+03 3.276185e-07
1.103000e+03 1.220412e-05
1.104000e+03 1.217295e-05
1.105000e+03 1.324173e-05
1.106000e+03 2.569946e-06
1.107000e+03 4.739377e-09
1.108000e+03 1.227449e-05
1.109000e+03 1.381313e-07
1.110000e+03 1.526064e-05
1.111000e+03 1.454845e-05
1.112000e+03 9.088320e-06
1.113000e+03 9.629670e-06
1.114000e+03 4.549022e-06
1.115000e+03 9.723772e-08
1.116000e+03 1.440444e-08
1.117000e+03 2.231122e-05
1.118000e+03 2.728248e-07
1.119000e+03 8.585570e-06
1.120000e+03 4.320282e-08
1.121000e+03 2.354069e-05
1.122000e+03 3.411211e-05
1.123000e+03 4.549435e-05
1.124000e+03 6.290095e-05
1.125000e+03 4.194657e-05
1.126000e+03 4.918099e-05
1.127000e+03 3.554973e-05
1.128000e+03 2.858427e-05
1.129000e+03 2.083106e-05
1.130000e+03 3.019406e-05
1.131000e+03 2.028073e-05
1.132000e+03 7.597100e-08
1.133000e+03 3.544063e-06
1.134000e+03 2.108447e-05
1.135000e+03 2.149696e-05
1.136000e+03 5.266940e-06
1.137000e+03 1.744469e-05
1.138000e+03 1.689721e-05
1.139000e+03 2.101992e-05
1.140000e+03 1.956017e-05
1.141000e+03 1.975511e-05
1.142000e+03 1.988736e-05
1.143000e+03 1.279318e-05
1.144000e+03 1.910086e-05
1.145000e+03 5.081893e-08
1.146000e+03 2.056297e-05
1.147000e+03 2.070403e-05
1.148000e+03 8.929692e-07
1.149000e+03 1.955131e-05
1.150000e+03 1.932742e-05
1.151000e+03 1.941863e-05
1.152000e+03 1.793359e-05
1.153000e+03 1.851396e-05
1.154000e+03 1.797856e-05
1.155000e+03 1.734639e-05
1.156000e+03 1.245946e-05
1.157000e+03 1.626971e-05
1.158000e+03 1.372318e-05
1.159000e+03 1.667796e-05
1.160000e+03 1.511037e-05
1.161000e+03 1.510153e-05
1.162000e+03 3.695560e-06
1.163000e+03 9.850224e-06
1.164000e+03 2.579145e-08
1.165000e+03 7.834756e-06
1.166000e+03 3.800908e-06
1.167000e+03 2.390282e-06
1.168000e+03 1.733571e-05
1.169000e+03 1.772654e-05
1.170000e+03 2.547845e-06
1.171000e+03 7.102099e-06
1.172000e+03 5.590731e-06
1.173000e+03 4.670880e-06
1.174000e+03 3.873938e-07
1.175000e+03 2.345951e-08
1.176000e+03 9.604719e-09
1.177000e+03 2.367651e-05
1.178000e+03 2.212206e-05
1.179000e+03 2.082134e-05
1.180000e+03 1.903491e-05
1.181000e+03 1.848986e-05
1.182000e+03 1.786513e-05
1.183000e+03 1.672050e-05
1.184000e+03 1.606091e-05
1.185000e+03 1.539363e-05
1.186000e+03 2.248976e-06
1.187000e+03 1.454040e-05
1.188000e+03 1.374607e-05
1.189000e+03 1.383864e-05
1.190000e+03 1.343324e-05
1.191000e+03 1.263825e-05
1.192000e+03 1.130952e-05
1.193000e+03 1.128068e-05
1.194000e+03 1.083936e-05
1.195000e+03 1.033738e-05
1.196000e+03 3.546152e-04
1.197000e+03 3.203828e-04
1.198000e+03 1.630862e-05
1.199000e+03 2.479226e-04
1.200000e+03 7.426814e-05
1.201000e+03 1.774391e-04
1.202000e+03 1.413096e-04
1.203000e+03 1.181550e-04
1.204000e+03 5.701085e-05
1.205000e+03 7.041205e-05
1.206000e+03 5.176418e-05
1.207000e+03 5.273068e-06
1.208000e+03 2.180027e-05
1.209000e+03 1.538857e-05
1.210000e+03 6.205846e-08
1.211000e+03 5.038787e-06
1.212000e+03 2.408335e-06
1.213000e+03 9.993606e-07
1.214000e+03 2.969850e-07
1.215000e+03 6.172578e-08
1.216000e+03 5.705634e-08
1.217000e+03 1.902351e-07
1.218000e+03 8.582542e-07
1.219000e+03 2.419169e-06
1.220000e+03 5.558491e-06
1.221000e+03 1.168711e-05
1.222000e+03 2.213303e-05
1.223000e+03 3.704405e-05
1.224000e+03 5.361428e-05
1.225000e+03 2.293664e-05
1.226000e+03 1.317661e-04
1.227000e+03 1.924390e-04
1.228000e+03 2.056392e-04
1.229000e+03 3.489805e-04
1.230000e+03 3.241608e-04
1.231000e+03 1.810960e-04
1.232000e+03 6.866934e-04
1.233000e+03 8.414909e-04
1.234000e+03 8.698298e-04
1.235000e+03 1.173026e-03
1.236000e+03 8.810879e-04
1.237000e+03 1.551560e-03
1.238000e+03 1.759065e-03
1.239000e+03 1.843917e-03
1.240000e+03 1.800039e-04
1.241000e+03 2.000640e-03
1.242000e+03 2.626401e-03
1.243000e+03 2.886106e-03
1.244000e+03 3.144098e-03
1.245000e+03 3.340110e-03
1.246000e+03 3.485859e-03
1.247000e+03 3.754396e-03
1.248000e+03 2.843825e-03
1.249000e+03 4.306815e-03
1.250000e+03 3.613845e-03
1.251000e+03 4.855672e-03
1.252000e+03 4.770028e-03
1.253000e+03 5.153053e-03
1.254000e+03 5.019077e-03
1.255000e+03 6.365755e-04
1.256000e+03 4.069998e-03
1.257000e+03 2.362354e-03
1.258000e+03 5.162280e-03
1.259000e+03 5.662318e-03
1.260000e+03 5.982036e-03
1.261000e+03 4.833704e-05
1.262000e+03 6.174407e-03
1.263000e+03 5.574945e-03
1.264000e+03 5.507420e-03
1.265000e+03 6.163900e-03
1.266000e+03 7.888785e-03
1.267000e+03 8.584102e-03
