# wavelength_A flux
5.000000e+02 1.537911e-10
5.010000e+02 1.762787e-10
5.020000e+02 2.019407e-10
5.030000e+02 2.312091e-10
5.040000e+02 2.645723e-10
5.050000e+02 3.059818e-10
5.060000e+02 3.497147e-10
5.070000e+02 3.994804e-10
5.080000e+02 4.560807e-10
5.090000e+02 5.204213e-10
5.100000e+02 5.935192e-10
5.110000e+02 6.765242e-10
5.120000e+02 7.707296e-10
5.130000e+02 8.775913e-10
5.140000e+02 9.987470e-10
5.150000e+02 1.136032e-09
5.160000e+02 1.291534e-09
5.170000e+02 1.467530e-09
5.180000e+02 1.666722e-09
5.190000e+02 1.891954e-09
5.200000e+02 2.146538e-09
5.210000e+02 2.434154e-09
5.220000e+02 2.758789e-09
5.230000e+02 3.125491e-09
5.240000e+02 3.539007e-09
5.250000e+02 4.005291e-09
5.260000e+02 4.530780e-09
5.270000e+02 5.122728e-09
5.280000e+02 5.789222e-09
5.290000e+02 6.538576e-09
5.300000e+02 7.383033e-09
5.310000e+02 8.331685e-09
5.320000e+02 9.397808e-09
5.330000e+02 1.059538e-08
5.340000e+02 1.193999e-08
5.350000e+02 1.344900e-08
5.360000e+02 1.514171e-08
5.370000e+02 1.694734e-08
5.380000e+02 1.916678e-08
5.390000e+02 2.154998e-08
5.400000e+02 2.421837e-08
5.410000e+02 2.720387e-08
5.420000e+02 3.054610e-08
5.430000e+02 3.428273e-08
5.440000e+02 3.845932e-08
5.450000e+02 4.312584e-08
5.460000e+02 4.833349e-08
5.470000e+02 5.415559e-08
5.480000e+02 6.064776e-08
5.490000e+02 6.788923e-08
5.500000e+02 7.596293e-08
5.510000e+02 8.496080e-08
5.520000e+02 9.498446e-08
5.530000e+02 1.061462e-07
5.540000e+02 1.185702e-07
5.550000e+02 1.323935e-07
5.560000e+02 1.477674e-07
5.570000e+02 1.648590e-07
5.580000e+02 1.838526e-07
5.590000e+02 2.049513e-07
5.600000e+02 2.283792e-07
5.610000e+02 2.543831e-07
5.620000e+02 2.832348e-07
5.630000e+02 3.152337e-07
5.640000e+02 3.507094e-07
5.650000e+02 3.900241e-07
5.660000e+02 4.335770e-07
5.670000e+02 4.818061e-07
5.680000e+02 5.351932e-07
5.690000e+02 5.942675e-07
5.700000e+02 6.596101e-07
5.710000e+02 7.318596e-07
5.720000e+02 8.117157e-07
5.730000e+02 8.999467e-07
5.740000e+02 9.973949e-07
5.750000e+02 1.104991e-06
5.760000e+02 1.223689e-06
5.770000e+02 1.354736e-06
5.780000e+02 1.499213e-06
5.790000e+02 1.658494e-06
5.800000e+02 1.834033e-06
5.810000e+02 2.027419e-06
5.820000e+02 2.240391e-06
5.830000e+02 2.474841e-06
5.840000e+02 2.732550e-06
5.850000e+02 3.016666e-06
5.860000e+02 3.328928e-06
5.870000e+02 3.672143e-06
5.880000e+02 4.049328e-06
5.890000e+02 4.463690e-06
5.900000e+02 4.918800e-06
5.910000e+02 5.418434e-06
5.920000e+02 5.966785e-06
5.930000e+02 6.568405e-06
5.940000e+02 7.228247e-06
5.950000e+02 7.951689e-06
5.960000e+02 8.744657e-06
5.970000e+02 9.613489e-06
5.980000e+02 1.056515e-05
5.990000e+02 1.160721e-05
6.000000e+02 1.274788e-05
6.010000e+02 1.399603e-05
6.020000e+02 1.536154e-05
6.030000e+02 1.685478e-05
6.040000e+02 1.848724e-05
6.050000e+02 2.027136e-05
6.060000e+02 2.222057e-05
6.070000e+02 2.434958e-05
6.080000e+02 2.667416e-05
6.090000e+02 2.921154e-05
6.100000e+02 3.198033e-05
6.110000e+02 3.500074e-05
6.120000e+02 3.829461e-05
6.130000e+02 4.188563e-05
6.140000e+02 4.579943e-05
6.150000e+02 5.006375e-05
6.160000e+02 5.470859e-05
6.170000e+02 5.976643e-05
6.180000e+02 6.527235e-05
6.190000e+02 7.126430e-05
6.200000e+02 7.778329e-05
6.210000e+02 8.487360e-05
6.220000e+02 9.258310e-05
6.230000e+02 1.009634e-04
6.240000e+02 1.100704e-04
6.250000e+02 1.199641e-04
6.260000e+02 1.307096e-04
6.270000e+02 1.423768e-04
6.280000e+02 1.550414e-04
6.290000e+02 1.687846e-04
6.300000e+02 1.836943e-04
6.310000e+02 1.998467e-04
6.320000e+02 2.173984e-04
6.330000e+02 2.364039e-04
6.340000e+02 2.570008e-04
6.350000e+02 2.793142e-04
6.360000e+02 3.034616e-04
6.370000e+02 3.296527e-04
6.380000e+02 3.579818e-04
6.390000e+02 3.886404e-04
6.400000e+02 4.218114e-04
6.410000e+02 4.576912e-04
6.420000e+02 4.964909e-04
6.430000e+02 5.384369e-04
6.440000e+02 5.837730e-04
6.450000e+02 6.327600e-04
6.460000e+02 6.856789e-04
6.470000e+02 7.428301e-04
6.480000e+02 8.045371e-04
6.490000e+02 8.711455e-04
6.500000e+02 9.430266e-04
6.510000e+02 1.020579e-03
6.520000e+02 1.104228e-03
6.530000e+02 1.194431e-03
6.540000e+02 1.291679e-03
6.550000e+02 1.396494e-03
6.560000e+02 1.509438e-03
6.570000e+02 1.631102e-03
6.580000e+02 1.762158e-03
6.590000e+02 1.903266e-03
6.600000e+02 2.055169e-03
6.610000e+02 2.218657e-03
6.620000e+02 2.394569e-03
6.630000e+02 2.583805e-03
6.640000e+02 2.787327e-03
6.650000e+02 3.006159e-03
6.660000e+02 3.241403e-03
6.670000e+02 3.494227e-03
6.680000e+02 3.765882e-03
6.690000e+02 4.057704e-03
6.700000e+02 4.371117e-03
6.710000e+02 4.707644e-03
6.720000e+02 5.068904e-03
6.730000e+02 5.456630e-03
6.740000e+02 5.872665e-03
6.750000e+02 6.318977e-03
6.760000e+02 6.797661e-03
6.770000e+02 7.310952e-03
6.780000e+02 7.861229e-03
6.790000e+02 8.451028e-03
6.800000e+02 9.083048e-03
6.810000e+02 9.760163e-03
6.820000e+02 1.048543e-02
6.830000e+02 1.126212e-02
6.840000e+02 1.209368e-02
6.850000e+02 1.298380e-02
6.860000e+02 1.393640e-02
6.870000e+02 1.495566e-02
6.880000e+02 1.604601e-02
6.890000e+02 1.721215e-02
6.900000e+02 1.845910e-02
6.910000e+02 1.979217e-02
6.920000e+02 2.121703e-02
6.930000e+02 2.273966e-02
6.940000e+02 2.436645e-02
6.950000e+02 2.610416e-02
6.960000e+02 2.795998e-02
6.970000e+02 2.994136e-02
6.980000e+02 3.205690e-02
6.990000e+02 3.431468e-02
7.000000e+02 3.672396e-02
7.010000e+02 3.929440e-02
7.020000e+02 4.203622e-02
7.030000e+02 4.496029e-02
7.040000e+02 4.807810e-02
7.050000e+02 5.140183e-02
7.060000e+02 5.494439e-02
7.070000e+02 5.871945e-02
7.080000e+02 6.274148e-02
7.090000e+02 6.702580e-02
7.100000e+02 7.158871e-02
7.110000e+02 7.644732e-02
7.120000e+02 8.161981e-02
7.130000e+02 8.712545e-02
7.140000e+02 9.298456e-02
7.150000e+02 9.921867e-02
7.160000e+02 1.058505e-01
7.170000e+02 1.129041e-01
7.180000e+02 1.204047e-01
7.190000e+02 1.283803e-01
7.200000e+02 1.368580e-01
7.210000e+02 1.458682e-01
7.220000e+02 1.554427e-01
7.230000e+02 1.656149e-01
7.240000e+02 1.764203e-01
7.250000e+02 1.878962e-01
7.260000e+02 2.000819e-01
7.270000e+02 2.130191e-01
7.280000e+02 2.267517e-01
7.290000e+02 2.413260e-01
7.300000e+02 2.567908e-01
7.310000e+02 2.731977e-01
7.320000e+02 2.906011e-01
7.330000e+02 3.090581e-01
7.340000e+02 3.286293e-01
7.350000e+02 3.493783e-01
7.360000e+02 3.713720e-01
7.370000e+02 3.946815e-01
7.380000e+02 4.193810e-01
7.390000e+02 4.455489e-01
7.400000e+02 4.732678e-01
7.410000e+02 5.026252e-01
7.420000e+02 5.337118e-01
7.430000e+02 5.666249e-01
7.440000e+02 6.014655e-01
7.450000e+02 6.383403e-01
7.460000e+02 6.773618e-01
7.470000e+02 7.186481e-01
7.480000e+02 7.623237e-01
7.490000e+02 8.085191e-01
7.500000e+02 8.573717e-01
7.510000e+02 9.090263e-01
7.520000e+02 9.636346e-01
7.530000e+02 1.021356e+00
7.540000e+02 1.082359e+00
7.550000e+02 1.146819e+00
7.560000e+02 1.214921e+00
7.570000e+02 1.286858e+00
7.580000e+02 1.362842e+00
7.590000e+02 1.443077e+00
7.600000e+02 1.527795e+00
7.610000e+02 1.617230e+00
7.620000e+02 1.711630e+00
7.630000e+02 1.811255e+00
7.640000e+02 1.916379e+00
7.650000e+02 2.027288e+00
7.660000e+02 2.144283e+00
7.670000e+02 2.267678e+00
7.680000e+02 2.397802e+00
7.690000e+02 2.535011e+00
7.700000e+02 2.679658e+00
7.710000e+02 2.832127e+00
7.720000e+02 2.992817e+00
7.730000e+02 3.162148e+00
7.740000e+02 3.340556e+00
7.750000e+02 3.528501e+00
7.760000e+02 3.726420e+00
7.770000e+02 3.934948e+00
7.780000e+02 4.154481e+00
7.790000e+02 4.385615e+00
7.800000e+02 4.628928e+00
7.810000e+02 4.885025e+00
7.820000e+02 5.154539e+00
7.830000e+02 5.438132e+00
7.840000e+02 5.736499e+00
7.850000e+02 6.050364e+00
7.860000e+02 6.380485e+00
7.870000e+02 6.727662e+00
7.880000e+02 7.092714e+00
7.890000e+02 7.476514e+00
7.900000e+02 7.879968e+00
7.910000e+02 8.304024e+00
7.920000e+02 8.749674e+00
7.930000e+02 9.217952e+00
7.940000e+02 9.709941e+00
7.950000e+02 1.022677e+01
7.960000e+02 1.076962e+01
7.970000e+02 1.133973e+01
7.980000e+02 1.193838e+01
7.990000e+02 1.256692e+01
8.000000e+02 1.322676e+01
8.010000e+02 1.391935e+01
8.020000e+02 1.464623e+01
8.030000e+02 1.540900e+01
8.040000e+02 1.620932e+01
8.050000e+02 1.704893e+01
8.060000e+02 1.792966e+01
8.070000e+02 1.885338e+01
8.080000e+02 1.982208e+01
8.090000e+02 2.083781e+01
8.100000e+02 2.190272e+01
8.110000e+02 2.301905e+01
8.120000e+02 2.418914e+01
8.130000e+02 2.541541e+01
8.140000e+02 2.670041e+01
8.150000e+02 2.804675e+01
8.160000e+02 2.945724e+01
8.170000e+02 3.093471e+01
8.180000e+02 3.248216e+01
8.190000e+02 3.410270e+01
8.200000e+02 3.579957e+01
8.210000e+02 3.757615e+01
8.220000e+02 3.943596e+01
8.230000e+02 4.138266e+01
8.240000e+02 4.342007e+01
8.250000e+02 4.555215e+01
8.260000e+02 4.778302e+01
8.270000e+02 5.011699e+01
8.280000e+02 5.255854e+01
8.290000e+02 5.511230e+01
8.300000e+02 5.778313e+01
8.310000e+02 6.057606e+01
8.320000e+02 6.349633e+01
8.330000e+02 6.654938e+01
8.340000e+02 6.974088e+01
8.350000e+02 7.307483e+01
8.360000e+02 7.656287e+01
8.370000e+02 8.020612e+01
8.380000e+02 8.401265e+01
8.390000e+02 8.798954e+01
8.400000e+02 9.214387e+01
8.410000e+02 9.648306e+01
8.420000e+02 1.010143e+02
8.430000e+02 1.057473e+02
8.440000e+02 1.106886e+02
8.450000e+02 1.158475e+02
8.460000e+02 1.212330e+02
8.470000e+02 1.268544e+02
8.480000e+02 1.327212e+02
8.490000e+02 1.388437e+02
8.500000e+02 1.452322e+02
8.510000e+02 1.518976e+02
8.520000e+02 1.588510e+02
8.530000e+02 1.661042e+02
8.540000e+02 1.736695e+02
8.550000e+02 1.815589e+02
8.560000e+02 1.897858e+02
8.570000e+02 1.983636e+02
8.580000e+02 2.073063e+02
8.590000e+02 2.166285e+02
8.600000e+02 2.263452e+02
8.610000e+02 2.364722e+02
8.620000e+02 2.470254e+02
8.630000e+02 2.580218e+02
8.640000e+02 2.694788e+02
8.650000e+02 2.814142e+02
8.660000e+02 2.938471e+02
8.670000e+02 3.067966e+02
8.680000e+02 3.202829e+02
8.690000e+02 3.343267e+02
8.700000e+02 3.489493e+02
8.710000e+02 3.641738e+02
8.720000e+02 3.800226e+02
8.730000e+02 3.965198e+02
8.740000e+02 4.136903e+02
8.750000e+02 4.315598e+02
8.760000e+02 4.501547e+02
8.770000e+02 4.695026e+02
8.780000e+02 4.896322e+02
8.790000e+02 5.105727e+02
8.800000e+02 5.323546e+02
8.810000e+02 5.550097e+02
8.820000e+02 5.785706e+02
8.830000e+02 6.030709e+02
8.840000e+02 6.285458e+02
8.850000e+02 6.550315e+02
8.860000e+02 6.825653e+02
8.870000e+02 7.111860e+02
8.880000e+02 7.409335e+02
8.890000e+02 7.718494e+02
8.900000e+02 8.039764e+02
8.910000e+02 8.373587e+02
8.920000e+02 8.717592e+02
8.930000e+02 9.080739e+02
8.940000e+02 9.455031e+02
8.950000e+02 9.843799e+02
8.960000e+02 1.024757e+03
8.970000e+02 1.066688e+03
8.980000e+02 1.110229e+03
8.990000e+02 1.155437e+03
9.000000e+02 1.202372e+03
9.010000e+02 1.251095e+03
9.020000e+02 1.301670e+03
9.030000e+02 1.354163e+03
9.040000e+02 1.408640e+03
9.050000e+02 1.465173e+03
9.060000e+02 1.523833e+03
9.070000e+02 1.584691e+03
9.080000e+02 1.647835e+03
9.090000e+02 1.713334e+03
9.100000e+02 1.781273e+03
9.110000e+02 1.851738e+03
9.120000e+02 1.924823e+03
9.130000e+02 1.996650e+03
9.140000e+02 2.090758e+03
9.150000e+02 8.846913e+03
9.160000e+02 1.725809e+04
9.170000e+02 1.757379e+04
9.180000e+02 1.638131e+04
9.190000e+02 2.273651e+04
9.200000e+02 2.444921e+04
9.210000e+02 2.709741e+03
9.220000e+02 2.618501e+04
9.230000e+02 2.020481e+04
9.240000e+02 2.503478e+04
9.250000e+02 2.811171e+04
9.260000e+02 2.629929e+04
9.270000e+02 2.850281e+04
9.280000e+02 3.207269e+04
9.290000e+02 2.989632e+04
9.300000e+02 3.362701e+04
9.310000e+02 2.926565e+04
9.320000e+02 3.636515e+04
9.330000e+02 3.717178e+04
9.340000e+02 3.815718e+04
9.350000e+02 8.148355e+03
9.360000e+02 3.669330e+04
9.370000e+02 7.073098e+03
9.380000e+02 2.461414e+04
9.390000e+02 4.158996e+04
9.400000e+02 4.666826e+04
9.410000e+02 2.010083e+04
9.420000e+02 4.962215e+04
9.430000e+02 4.811085e+04
9.440000e+02 4.220218e+04
9.450000e+02 5.446075e+04
9.460000e+02 5.578277e+04
9.470000e+02 4.682940e+04
9.480000e+02 5.529870e+04
9.490000e+02 6.049266e+04
9.500000e+02 1.260347e+04
9.510000e+02 6.275537e+04
9.520000e+02 6.680302e+04
9.530000e+02 5.521105e+04
9.540000e+02 5.285835e+04
9.550000e+02 7.161630e+04
9.560000e+02 7.218668e+04
9.570000e+02 4.392300e+04
9.580000e+02 5.073936e+04
9.590000e+02 8.346807e+04
9.600000e+02 1.571468e+04
9.610000e+02 8.766343e+04
9.620000e+02 8.861655e+04
9.630000e+02 9.147863e+04
9.640000e+02 1.317039e+04
9.650000e+02 7.856562e+04
9.660000e+02 9.914016e+04
9.670000e+02 9.527263e+04
9.680000e+02 8.837211e+04
9.690000e+02 1.094409e+05
9.700000e+02 1.120516e+05
9.710000e+02 1.037655e+05
9.720000e+02 1.058560e+05
9.730000e+02 1.119532e+05
9.740000e+02 1.258323e+05
9.750000e+02 1.282557e+05
9.760000e+02 1.369341e+05
9.770000e+02 1.405187e+05
9.780000e+02 1.419468e+05
9.790000e+02 1.499954e+05
9.800000e+02 1.543319e+05
9.810000e+02 1.560626e+05
9.820000e+02 1.516054e+05
9.830000e+02 1.679053e+05
9.840000e+02 7.664384e+04
9.850000e+02 1.726222e+05
9.860000e+02 1.767865e+05
9.870000e+02 1.879967e+05
9.880000e+02 1.524184e+05
9.890000e+02 1.625242e+05
9.900000e+02 3.591155e+04
9.910000e+02 1.792456e+05
9.920000e+02 1.268702e+05
9.930000e+02 2.146925e+05
9.940000e+02 3.877855e+04
9.950000e+02 7.479088e+04
9.960000e+02 1.973937e+05
9.970000e+02 6.515502e+04
9.980000e+02 2.530380e+05
9.990000e+02 2.346520e+05
1.000000e+03 2.696358e+05
1.001000e+03 2.776443e+05
1.002000e+03 2.849656e+05
1.003000e+03 2.635934e+05
1.004000e+03 2.471591e+05
1.005000e+03 2.807572e+05
1.006000e+03 3.174607e+05
1.007000e+03 3.264721e+05
1.008000e+03 3.340888e+05
1.009000e+03 3.223814e+05
1.010000e+03 3.526019e+05
1.011000e+03 3.630186e+05
1.012000e+03 3.716458e+05
1.013000e+03 3.810631e+05
1.014000e+03 2.234724e+05
1.015000e+03 3.022687e+05
1.016000e+03 3.837265e+05
1.017000e+03 2.485875e+05
1.018000e+03 4.100296e+05
1.019000e+03 3.418484e+05
1.020000e+03 4.587787e+05
1.021000e+03 2.712282e+05
1.022000e+03 4.060442e+05
1.023000e+03 3.717641e+05
1.024000e+03 4.781344e+05
1.025000e+03 2.555544e+05
1.026000e+03 2.016737e+05
1.027000e+03 4.869664e+05
1.028000e+03 1.350570e+05
1.029000e+03 3.483402e+05
1.030000e+03 5.797296e+05
1.031000e+03 5.817572e+05
1.032000e+03 6.234036e+05
1.033000e+03 2.359242e+05
1.034000e+03 6.499394e+05
1.035000e+03 1.470808e+05
1.036000e+03 4.299980e+05
1.037000e+03 6.271958e+05
1.038000e+03 7.342012e+05
1.039000e+03 7.474395e+05
1.040000e+03 7.700415e+05
1.041000e+03 7.893237e+05
1.042000e+03 8.081858e+05
1.043000e+03 7.981383e+05
1.044000e+03 8.553774e+05
1.045000e+03 8.736389e+05
1.046000e+03 8.987394e+05
1.047000e+03 9.006312e+05
1.048000e+03 7.868941e+05
1.049000e+03 9.517545e+05
1.050000e+03 9.727226e+05
1.051000e+03 9.763020e+05
1.052000e+03 1.042341e+06
1.053000e+03 1.065914e+06
1.054000e+03 6.492848e+05
1.055000e+03 1.124972e+06
1.056000e+03 1.153554e+06
1.057000e+03 1.165875e+06
1.058000e+03 1.181081e+06
1.059000e+03 1.102261e+06
1.060000e+03 1.072469e+06
1.061000e+03 1.288224e+06
1.062000e+03 1.271545e+06
1.063000e+03 6.488643e+05
1.064000e+03 3.155014e+05
1.065000e+03 9.161234e+05
1.066000e+03 1.373998e+06
1.067000e+03 1.290303e+06
1.068000e+03 1.547666e+06
1.069000e+03 1.151481e+06
1.070000e+03 1.601182e+06
1.071000e+03 1.662712e+06
1.072000e+03 1.701822e+06
1.073000e+03 1.204738e+06
1.074000e+03 1.741310e+06
1.075000e+03 1.761257e+06
1.076000e+03 1.871229e+06
1.077000e+03 1.704062e+06
1.078000e+03 1.883264e+06
1.079000e+03 1.969606e+06
1.080000e+03 2.030056e+06
1.081000e+03 2.090736e+06
1.082000e+03 2.137657e+06
1.083000e+03 2.178465e+06
1.084000e+03 2.257268e+06
1.085000e+03 1.979546e+06
1.086000e+03 2.363218e+06
1.087000e+03 2.147731e+06
1.088000e+03 2.468991e+06
1.089000e+03 2.531724e+06
1.090000e+03 2.473133e+06
1.091000e+03 2.519166e+06
1.092000e+03 2.709094e+06
1.093000e+03 2.769576e+06
1.094000e+03 2.819500e+06
1.095000e+03 2.899266e+06
1.096000e+03 2.933794e+06
1.097000e+03 3.004732e+06
1.098000e+03 3.095334e+06
1.099000e+03 3.127820e+06
1.100000e+03 2.690622e+06
1.101000e+03 2.789278e+06
1.102000e+03 5.729056e+06
1.103000e+03 2.099799e+07
1.104000e+03 7.552040e+06
1.105000e+03 3.405624e+06
1.106000e+03 2.915156e+07
1.107000e+03 5.179052e+06
1.108000e+03 3.829156e+07
1.109000e+03 1.234850e+07
1.110000e+03 1.415098e+07
1.111000e+03 7.391072e+06
1.112000e+03 3.562767e+07
1.113000e+03 4.647573e+07
1.114000e+03 2.969867e+06
1.115000e+03 2.082253e+07
1.116000e+03 1.758437e+07
1.117000e+03 2.915704e+06
1.118000e+03 1.630085e+07
1.119000e+03 4.367075e+07
1.120000e+03 1.908929e+07
1.121000e+03 4.578473e+07
1.122000e+03 1.307420e+06
1.123000e+03 8.995740e+06
1.124000e+03 5.269777e+07
1.125000e+03 3.423578e+07
1.126000e+03 5.795822e+07
1.127000e+03 5.552121e+07
1.128000e+03 2.156458e+07
1.129000e+03 4.942311e+07
1.130000e+03 5.571425e+07
1.131000e+03 6.161012e+07
1.132000e+03 4.064028e+06
1.133000e+03 2.466034e+07
1.134000e+03 5.210660e+07
1.135000e+03 3.047658e+06
1.136000e+03 4.026078e+07
1.137000e+03 6.645328e+07
1.138000e+03 5.472710e+07
1.139000e+03 6.829704e+07
1.140000e+03 2.399558e+06
1.141000e+03 7.021624e+07
1.142000e+03 7.352172e+07
1.143000e+03 7.006156e+07
1.144000e+03 7.649975e+07
1.145000e+03 1.718767e+07
1.146000e+03 7.947643e+07
1.147000e+03 7.795129e+07
1.148000e+03 3.372374e+07
1.149000e+03 7.992245e+07
1.150000e+03 7.155414e+07
1.151000e+03 8.527852e+07
1.152000e+03 8.514292e+07
1.153000e+03 3.927215e+07
1.154000e+03 4.761816e+07
1.155000e+03 8.284470e+07
1.156000e+03 4.319029e+07
1.157000e+03 9.346600e+07
1.158000e+03 4.450772e+06
1.159000e+03 8.481651e+07
1.160000e+03 7.751037e+07
1.161000e+03 9.839422e+07
1.162000e+03 2.638206e+07
1.163000e+03 7.136022e+07
1.164000e+03 4.537216e+06
1.165000e+03 1.045448e+08
1.166000e+03 1.012291e+08
1.167000e+03 9.975402e+07
1.168000e+03 1.121937e+08
1.169000e+03 1.119173e+08
1.170000e+03 1.100459e+08
1.171000e+03 1.136242e+08
1.172000e+03 9.338522e+07
1.173000e+03 1.218916e+08
1.174000e+03 4.647498e+07
1.175000e+03 5.428216e+06
1.176000e+03 4.988616e+06
1.177000e+03 1.313129e+08
1.178000e+03 1.309305e+08
1.179000e+03 1.339786e+08
1.180000e+03 9.742803e+07
1.181000e+03 1.395900e+08
1.182000e+03 1.395591e+08
1.183000e+03 1.351476e+08
1.184000e+03 1.334103e+08
1.185000e+03 1.429205e+08
1.186000e+03 9.660792e+07
1.187000e+03 1.468480e+08
1.188000e+03 1.235561e+08
1.189000e+03 6.961264e+06
1.190000e+03 4.534086e+07
1.191000e+03 1.489809e+08
1.192000e+03 1.576411e+08
1.193000e+03 6.677176e+06
1.194000e+03 7.939824e+06
1.195000e+03 1.275195e+08
1.196000e+03 1.602750e+08
1.197000e+03 2.460762e+08
1.198000e+03 1.671574e+08
1.199000e+03 2.419158e+08
1.200000e+03 1.664137e+08
1.201000e+03 2.283984e+08
1.202000e+03 1.947777e+08
1.203000e+03 2.770848e+08
1.204000e+03 1.607107e+08
1.205000e+03 2.319399e+08
1.206000e+03 2.217237e+08
1.207000e+03 3.618363e+07
1.208000e+03 1.661711e+08
1.209000e+03 1.296050e+08
1.210000e+03 1.065902e+07
1.211000e+03 7.614811e+07
1.212000e+03 5.128494e+07
1.213000e+03 3.303275e+07
1.214000e+03 1.991029e+07
1.215000e+03 1.252895e+07
1.216000e+03 1.133546e+07
1.217000e+03 1.769437e+07
1.218000e+03 3.053930e+07
1.219000e+03 5.102583e+07
1.220000e+03 7.425065e+07
1.221000e+03 1.147768e+08
1.222000e+03 1.531547e+08
1.223000e+03 1.989821e+08
1.224000e+03 2.511557e+08
1.225000e+03 1.856612e+08
1.226000e+03 3.534160e+08
1.227000e+03 3.960998e+08
1.228000e+03 3.348941e+08
1.229000e+03 4.606592e+08
1.230000e+03 4.612766e+08
1.231000e+03 3.820838e+08
1.232000e+03 6.372922e+08
1.233000e+03 6.837573e+08
1.234000e+03 4.441872e+08
1.235000e+03 7.446531e+08
1.236000e+03 4.877584e+08
1.237000e+03 8.218234e+08
1.238000e+03 8.016242e+08
1.239000e+03 8.151478e+08
1.240000e+03 7.707140e+08
1.241000e+03 9.864378e+08
1.242000e+03 7.784882e+08
1.243000e+03 1.136997e+09
1.244000e+03 5.884099e+08
1.245000e+03 7.947342e+08
1.246000e+03 1.429366e+09
1.247000e+03 1.450809e+09
1.248000e+03 5.989798e+08
1.249000e+03 8.019926e+08
1.250000e+03 1.589612e+09
1.251000e+03 1.840166e+09
1.252000e+03 1.721392e+09
1.253000e+03 1.898291e+09
1.254000e+03 1.765716e+09
1.255000e+03 1.981863e+09
1.256000e+03 1.815091e+09
1.257000e+03 1.987612e+09
1.258000e+03 1.531289e+09
1.259000e+03 1.889169e+09
1.260000e+03 1.958030e+09
1.261000e+03 2.714462e+07
1.262000e+03 3.860991e+08
1.263000e+03 2.188744e+09
1.264000e+03 1.734018e+09
1.265000e+03 2.864742e+07
1.266000e+03 2.249381e+09
1.267000e+03 1.957579e+09
