# wavelength_A flux
5.000000e+02 1.066445e-37
5.010000e+02 1.385052e-37
5.020000e+02 1.796938e-37
5.030000e+02 2.328851e-37
5.040000e+02 3.015053e-37
5.050000e+02 3.900112e-37
5.060000e+02 5.038767e-37
5.070000e+02 6.503134e-37
5.080000e+02 8.384531e-37
5.090000e+02 1.079921e-36
5.100000e+02 1.389315e-36
5.110000e+02 1.786088e-36
5.120000e+02 2.293531e-36
5.130000e+02 2.942235e-36
5.140000e+02 3.770683e-36
5.150000e+02 4.827652e-36
5.160000e+02 6.174872e-36
5.170000e+02 7.890392e-36
5.180000e+02 1.007280e-35
5.190000e+02 1.284650e-35
5.200000e+02 1.636837e-35
5.210000e+02 2.083599e-35
5.220000e+02 2.649798e-35
5.230000e+02 3.366708e-35
5.240000e+02 4.273590e-35
5.250000e+02 5.419732e-35
5.260000e+02 6.866930e-35
5.270000e+02 8.692599e-35
5.280000e+02 1.099363e-34
5.290000e+02 1.389118e-34
5.300000e+02 1.753663e-34
5.310000e+02 2.211894e-34
5.320000e+02 2.787378e-34
5.330000e+02 3.509482e-34
5.340000e+02 4.414767e-34
5.350000e+02 5.548716e-34
5.360000e+02 6.967855e-34
5.370000e+02 8.742102e-34
5.380000e+02 1.095940e-33
5.390000e+02 1.372690e-33
5.400000e+02 1.717861e-33
5.410000e+02 2.148010e-33
5.420000e+02 2.683608e-33
5.430000e+02 3.349951e-33
5.440000e+02 4.178269e-33
5.450000e+02 5.207086e-33
5.460000e+02 6.483892e-33
5.470000e+02 8.067172e-33
5.480000e+02 1.002890e-32
5.490000e+02 1.245758e-32
5.500000e+02 1.546196e-32
5.510000e+02 1.917554e-32
5.520000e+02 2.376210e-32
5.530000e+02 2.942240e-32
5.540000e+02 3.640234e-32
5.550000e+02 4.500288e-32
5.560000e+02 5.559209e-32
5.570000e+02 6.861975e-32
5.580000e+02 8.463512e-32
5.590000e+02 1.043084e-31
5.600000e+02 1.284567e-31
5.610000e+02 1.580756e-31
5.620000e+02 1.943772e-31
5.630000e+02 2.388362e-31
5.640000e+02 2.932452e-31
5.650000e+02 3.597820e-31
5.660000e+02 4.410901e-31
5.670000e+02 5.403763e-31
5.680000e+02 6.615278e-31
5.690000e+02 8.092531e-31
5.700000e+02 9.892518e-31
5.710000e+02 1.208418e-30
5.720000e+02 1.475084e-30
5.730000e+02 1.799317e-30
5.740000e+02 2.193266e-30
5.750000e+02 2.671587e-30
5.760000e+02 3.251946e-30
5.770000e+02 3.955622e-30
5.780000e+02 4.808231e-30
5.790000e+02 5.840589e-30
5.800000e+02 7.089739e-30
5.810000e+02 8.600181e-30
5.820000e+02 1.042534e-29
5.830000e+02 1.262932e-29
5.840000e+02 1.528895e-29
5.850000e+02 1.849633e-29
5.860000e+02 2.236171e-29
5.870000e+02 2.701700e-29
5.880000e+02 3.261997e-29
5.890000e+02 3.935916e-29
5.900000e+02 4.745975e-29
5.910000e+02 5.719047e-29
5.920000e+02 6.887191e-29
5.930000e+02 8.288619e-29
5.940000e+02 9.968852e-29
5.950000e+02 1.198209e-28
5.960000e+02 1.439282e-28
5.970000e+02 1.727771e-28
5.980000e+02 2.072789e-28
5.990000e+02 2.485158e-28
6.000000e+02 2.977723e-28
6.010000e+02 3.565719e-28
6.020000e+02 4.267209e-28
6.030000e+02 5.103594e-28
6.040000e+02 6.100212e-28
6.050000e+02 7.287049e-28
6.060000e+02 8.699569e-28
6.070000e+02 1.037969e-27
6.080000e+02 1.237693e-27
6.090000e+02 1.474974e-27
6.100000e+02 1.756712e-27
6.110000e+02 2.091039e-27
6.120000e+02 2.487544e-27
6.130000e+02 2.957519e-27
6.140000e+02 3.514259e-27
6.150000e+02 4.173407e-27
6.160000e+02 4.953355e-27
6.170000e+02 5.875723e-27
6.180000e+02 6.965904e-27
6.190000e+02 8.253709e-27
6.200000e+02 9.774116e-27
6.210000e+02 1.156815e-26
6.220000e+02 1.368387e-26
6.230000e+02 1.617762e-26
6.240000e+02 1.911531e-26
6.250000e+02 2.257412e-26
6.260000e+02 2.664428e-26
6.270000e+02 3.143126e-26
6.280000e+02 3.705832e-26
6.290000e+02 4.366935e-26
6.300000e+02 5.143229e-26
6.310000e+02 6.054306e-26
6.320000e+02 7.123005e-26
6.330000e+02 8.375942e-26
6.340000e+02 9.844115e-26
6.350000e+02 1.156361e-25
6.360000e+02 1.357641e-25
6.370000e+02 1.593133e-25
6.380000e+02 1.868514e-25
6.390000e+02 2.190375e-25
6.400000e+02 2.566371e-25
6.410000e+02 3.005389e-25
6.420000e+02 3.517733e-25
6.430000e+02 4.115354e-25
6.440000e+02 4.812100e-25
6.450000e+02 5.624012e-25
6.460000e+02 6.569662e-25
6.470000e+02 7.670540e-25
6.480000e+02 8.951504e-25
6.490000e+02 1.044129e-24
6.500000e+02 1.217311e-24
6.510000e+02 1.418532e-24
6.520000e+02 1.652219e-24
6.530000e+02 1.923483e-24
6.540000e+02 2.238216e-24
6.550000e+02 2.603212e-24
6.560000e+02 3.026301e-24
6.570000e+02 3.516499e-24
6.580000e+02 4.084188e-24
6.590000e+02 4.741313e-24
6.600000e+02 5.501615e-24
6.610000e+02 6.380892e-24
6.620000e+02 7.397298e-24
6.630000e+02 8.571685e-24
6.640000e+02 9.927998e-24
6.650000e+02 1.149371e-23
6.660000e+02 1.330035e-23
6.670000e+02 1.538405e-23
6.680000e+02 1.778625e-23
6.690000e+02 2.055440e-23
6.700000e+02 2.374285e-23
6.710000e+02 2.741381e-23
6.720000e+02 3.163846e-23
6.730000e+02 3.649820e-23
6.740000e+02 4.208609e-23
6.750000e+02 4.850848e-23
6.760000e+02 5.588683e-23
6.770000e+02 6.435984e-23
6.780000e+02 7.408578e-23
6.790000e+02 8.524521e-23
6.800000e+02 9.804403e-23
6.810000e+02 1.127170e-22
6.820000e+02 1.295314e-22
6.830000e+02 1.487919e-22
6.840000e+02 1.708453e-22
6.850000e+02 1.960861e-22
6.860000e+02 2.249632e-22
6.870000e+02 2.579869e-22
6.880000e+02 2.957376e-22
6.890000e+02 3.388743e-22
6.900000e+02 3.881457e-22
6.910000e+02 4.444017e-22
6.920000e+02 5.086069e-22
6.930000e+02 5.818554e-22
6.940000e+02 6.653880e-22
6.950000e+02 7.606113e-22
6.960000e+02 8.691187e-22
6.970000e+02 9.927156e-22
6.980000e+02 1.133445e-21
6.990000e+02 1.293621e-21
7.000000e+02 1.475860e-21
7.010000e+02 1.683122e-21
7.020000e+02 1.918753e-21
7.030000e+02 2.186534e-21
7.040000e+02 2.490736e-21
7.050000e+02 2.836184e-21
7.060000e+02 3.228323e-21
7.070000e+02 3.673297e-21
7.080000e+02 4.178037e-21
7.090000e+02 4.750360e-21
7.100000e+02 5.399076e-21
7.110000e+02 6.134111e-21
7.120000e+02 6.966648e-21
7.130000e+02 7.909276e-21
7.140000e+02 8.976168e-21
7.150000e+02 1.018327e-20
7.160000e+02 1.154852e-20
7.170000e+02 1.309208e-20
7.180000e+02 1.483662e-20
7.190000e+02 1.680761e-20
7.200000e+02 1.903366e-20
7.210000e+02 2.154689e-20
7.220000e+02 2.438336e-20
7.230000e+02 2.758353e-20
7.240000e+02 3.119277e-20
7.250000e+02 3.526197e-20
7.260000e+02 3.984818e-20
7.270000e+02 4.501529e-20
7.280000e+02 5.083492e-20
7.290000e+02 5.738723e-20
7.300000e+02 6.476197e-20
7.310000e+02 7.305958e-20
7.320000e+02 8.239239e-20
7.330000e+02 9.288606e-20
7.340000e+02 1.046811e-19
7.350000e+02 1.179344e-19
7.360000e+02 1.328214e-19
7.370000e+02 1.495379e-19
7.380000e+02 1.683028e-19
7.390000e+02 1.893600e-19
7.400000e+02 2.129821e-19
7.410000e+02 2.394726e-19
7.420000e+02 2.691706e-19
7.430000e+02 3.024536e-19
7.440000e+02 3.397425e-19
7.450000e+02 3.815061e-19
7.460000e+02 4.282666e-19
7.470000e+02 4.806054e-19
7.480000e+02 5.391694e-19
7.490000e+02 6.046786e-19
7.500000e+02 6.779339e-19
7.510000e+02 7.598257e-19
7.520000e+02 8.513440e-19
7.530000e+02 9.535887e-19
7.540000e+02 1.067782e-18
7.550000e+02 1.195282e-18
7.560000e+02 1.337595e-18
7.570000e+02 1.496394e-18
7.580000e+02 1.673535e-18
7.590000e+02 1.871079e-18
7.600000e+02 2.091308e-18
7.610000e+02 2.336755e-18
7.620000e+02 2.610226e-18
7.630000e+02 2.914830e-18
7.640000e+02 3.254013e-18
7.650000e+02 3.631588e-18
7.660000e+02 4.051778e-18
7.670000e+02 4.519258e-18
7.680000e+02 5.039197e-18
7.690000e+02 5.617317e-18
7.700000e+02 6.259942e-18
7.710000e+02 6.974065e-18
7.720000e+02 7.767415e-18
7.730000e+02 8.648530e-18
7.740000e+02 9.626843e-18
7.750000e+02 1.071277e-17
7.760000e+02 1.191781e-17
7.770000e+02 1.325465e-17
7.780000e+02 1.473730e-17
7.790000e+02 1.638119e-17
7.800000e+02 1.820338e-17
7.810000e+02 2.022263e-17
7.820000e+02 2.245964e-17
7.830000e+02 2.493721e-17
7.840000e+02 2.768048e-17
7.850000e+02 3.071712e-17
7.860000e+02 3.407757e-17
7.870000e+02 3.779538e-17
7.880000e+02 4.190745e-17
7.890000e+02 4.645436e-17
7.900000e+02 5.148077e-17
7.910000e+02 5.703576e-17
7.920000e+02 6.317332e-17
7.930000e+02 6.995273e-17
7.940000e+02 7.743918e-17
7.950000e+02 8.570423e-17
7.960000e+02 9.482649e-17
7.970000e+02 1.048923e-16
7.980000e+02 1.159963e-16
7.990000e+02 1.282424e-16
8.000000e+02 1.417448e-16
8.010000e+02 1.566284e-16
8.020000e+02 1.730304e-16
8.030000e+02 1.911012e-16
8.040000e+02 2.110054e-16
8.050000e+02 2.329236e-16
8.060000e+02 2.570535e-16
8.070000e+02 2.836116e-16
8.080000e+02 3.128352e-16
8.090000e+02 3.449837e-16
8.100000e+02 3.803412e-16
8.110000e+02 4.192184e-16
8.120000e+02 4.619552e-16
8.130000e+02 5.089234e-16
8.140000e+02 5.605293e-16
8.150000e+02 6.172173e-16
8.160000e+02 6.794727e-16
8.170000e+02 7.478259e-16
8.180000e+02 8.228562e-16
8.190000e+02 9.051964e-16
8.200000e+02 9.955369e-16
8.210000e+02 1.094632e-15
8.220000e+02 1.203304e-15
8.230000e+02 1.322450e-15
8.240000e+02 1.453051e-15
8.250000e+02 1.596172e-15
8.260000e+02 1.752980e-15
8.270000e+02 1.924741e-15
8.280000e+02 2.112840e-15
8.290000e+02 2.318782e-15
8.300000e+02 2.544209e-15
8.310000e+02 2.790908e-15
8.320000e+02 3.060826e-15
8.330000e+02 3.356079e-15
8.340000e+02 3.678974e-15
8.350000e+02 4.032020e-15
8.360000e+02 4.417944e-15
8.370000e+02 4.839716e-15
8.380000e+02 5.300562e-15
8.390000e+02 5.803990e-15
8.400000e+02 6.353814e-15
8.410000e+02 6.954178e-15
8.420000e+02 7.609584e-15
8.430000e+02 8.324922e-15
8.440000e+02 9.105503e-15
8.450000e+02 9.957091e-15
8.460000e+02 1.088595e-14
8.470000e+02 1.189886e-14
8.480000e+02 1.300321e-14
8.490000e+02 1.420698e-14
8.500000e+02 1.551885e-14
8.510000e+02 1.694822e-14
8.520000e+02 1.850529e-14
8.530000e+02 2.020112e-14
8.540000e+02 2.204766e-14
8.550000e+02 2.405791e-14
8.560000e+02 2.624591e-14
8.570000e+02 2.862690e-14
8.580000e+02 3.121736e-14
8.590000e+02 3.403513e-14
8.600000e+02 3.709953e-14
8.610000e+02 4.043147e-14
8.620000e+02 4.405356e-14
8.630000e+02 4.799028e-14
8.640000e+02 5.226809e-14
8.650000e+02 5.691559e-14
8.660000e+02 6.196373e-14
8.670000e+02 6.744595e-14
8.680000e+02 7.339837e-14
8.690000e+02 7.986005e-14
8.700000e+02 8.687316e-14
8.710000e+02 9.448325e-14
8.720000e+02 1.027395e-13
8.730000e+02 1.116951e-13
8.740000e+02 1.214073e-13
8.750000e+02 1.319380e-13
8.760000e+02 1.433539e-13
8.770000e+02 1.557271e-13
8.780000e+02 1.691353e-13
8.790000e+02 1.836622e-13
8.800000e+02 1.993981e-13
8.810000e+02 2.164406e-13
8.820000e+02 2.348944e-13
8.830000e+02 2.548727e-13
8.840000e+02 2.764974e-13
8.850000e+02 2.998998e-13
8.860000e+02 3.252211e-13
8.870000e+02 3.526137e-13
8.880000e+02 3.822415e-13
8.890000e+02 4.142809e-13
8.900000e+02 4.489217e-13
8.910000e+02 4.863684e-13
8.920000e+02 5.268407e-13
8.930000e+02 5.705751e-13
8.940000e+02 6.178259e-13
8.950000e+02 6.688666e-13
8.960000e+02 7.239911e-13
8.970000e+02 7.835154e-13
8.980000e+02 8.477791e-13
8.990000e+02 9.171473e-13
9.000000e+02 9.920119e-13
9.010000e+02 1.072794e-12
9.020000e+02 1.159946e-12
9.030000e+02 1.253953e-12
9.040000e+02 1.355337e-12
9.050000e+02 1.464658e-12
9.060000e+02 1.582515e-12
9.070000e+02 1.709554e-12
9.080000e+02 1.846466e-12
9.090000e+02 1.993993e-12
9.100000e+02 2.152930e-12
9.110000e+02 2.324130e-12
9.120000e+02 2.508508e-12
9.130000e+02 2.707044e-12
9.140000e+02 2.978007e-12
9.150000e+02 6.993935e-10
9.160000e+02 4.881703e-09
9.170000e+02 1.993564e-10
9.180000e+02 9.133953e-10
9.190000e+02 1.423019e-08
9.200000e+02 4.151966e-08
9.210000e+02 4.948287e-12
9.220000e+02 3.393379e-08
9.230000e+02 1.671613e-10
9.240000e+02 3.091642e-10
9.250000e+02 5.842667e-09
9.260000e+02 1.392009e-09
9.270000e+02 3.231857e-10
9.280000e+02 2.779736e-07
9.290000e+02 2.665443e-07
9.300000e+02 5.484868e-08
9.310000e+02 3.656469e-10
9.320000e+02 2.118423e-07
9.330000e+02 5.472671e-08
9.340000e+02 1.138750e-08
9.350000e+02 4.024628e-10
9.360000e+02 1.344199e-09
9.370000e+02 1.182304e-10
9.380000e+02 3.186113e-10
9.390000e+02 5.036468e-09
9.400000e+02 3.660582e-07
9.410000e+02 3.947028e-08
9.420000e+02 1.004997e-06
9.430000e+02 8.722964e-09
9.440000e+02 1.150459e-06
9.450000e+02 1.102211e-06
9.460000e+02 1.847068e-07
9.470000e+02 1.049720e-10
9.480000e+02 3.194176e-07
9.490000e+02 2.925790e-08
9.500000e+02 5.166304e-10
9.510000e+02 9.716124e-08
9.520000e+02 3.222681e-07
9.530000e+02 1.641025e-09
9.540000e+02 1.172982e-10
9.550000e+02 2.042111e-08
9.560000e+02 1.673552e-06
9.570000e+02 8.129632e-09
9.580000e+02 7.611334e-11
9.590000e+02 9.404552e-07
9.600000e+02 1.186059e-09
9.610000e+02 3.394803e-07
9.620000e+02 1.041623e-07
9.630000e+02 8.840743e-09
9.640000e+02 2.335895e-09
9.650000e+02 4.196181e-10
9.660000e+02 2.170941e-08
9.670000e+02 2.837510e-09
9.680000e+02 1.941316e-09
9.690000e+02 1.400036e-07
9.700000e+02 2.624832e-07
9.710000e+02 4.938731e-09
9.720000e+02 1.263494e-09
9.730000e+02 6.357647e-09
9.740000e+02 1.467584e-07
9.750000e+02 5.179701e-08
9.760000e+02 2.133617e-06
9.770000e+02 1.337595e-06
9.780000e+02 5.765225e-07
9.790000e+02 7.471335e-06
9.800000e+02 7.364439e-06
9.810000e+02 2.928491e-07
9.820000e+02 4.105186e-08
9.830000e+02 7.822088e-06
9.840000e+02 1.853231e-07
9.850000e+02 1.087121e-07
9.860000e+02 1.910947e-07
9.870000e+02 8.192531e-06
9.880000e+02 1.650733e-09
9.890000e+02 2.151949e-06
9.900000e+02 6.133063e-06
9.910000e+02 4.899808e-08
9.920000e+02 7.062033e-10
9.930000e+02 1.622072e-05
9.940000e+02 1.151761e-09
9.950000e+02 5.538671e-07
9.960000e+02 8.694769e-09
9.970000e+02 7.145406e-07
9.980000e+02 8.041370e-06
9.990000e+02 7.615328e-08
1.000000e+03 2.913180e-05
1.001000e+03 2.426958e-05
1.002000e+03 2.447896e-05
1.003000e+03 7.423660e-08
1.004000e+03 2.717570e-09
1.005000e+03 3.808163e-07
1.006000e+03 2.230444e-05
1.007000e+03 3.159203e-05
1.008000e+03 1.453627e-05
1.009000e+03 1.126633e-07
1.010000e+03 1.373216e-05
1.011000e+03 1.488483e-05
1.012000e+03 2.020391e-05
1.013000e+03 1.992166e-05
1.014000e+03 2.811248e-09
1.015000e+03 6.119080e-09
1.016000e+03 5.264428e-07
1.017000e+03 3.215973e-09
1.018000e+03 1.104199e-07
1.019000e+03 5.540642e-09
1.020000e+03 2.095864e-05
1.021000e+03 3.018122e-07
1.022000e+03 4.283656e-07
1.023000e+03 1.681883e-08
1.024000e+03 1.513123e-06
1.025000e+03 5.189165e-09
1.026000e+03 7.660242e-09
1.027000e+03 5.618251e-07
1.028000e+03 4.349658e-08
1.029000e+03 6.665687e-09
1.030000e+03 1.819710e-06
1.031000e+03 6.514711e-06
1.032000e+03 6.753887e-05
1.033000e+03 4.564099e-07
1.034000e+03 7.566095e-06
1.035000e+03 2.976958e-08
1.036000e+03 1.066292e-08
1.037000e+03 9.000798e-05
1.038000e+03 4.033887e-04
1.039000e+03 1.094975e-04
1.040000e+03 7.030545e-05
1.041000e+03 4.299477e-04
1.042000e+03 3.540386e-04
1.043000e+03 3.236518e-04
1.044000e+03 9.294724e-04
1.045000e+03 2.802030e-08
1.046000e+03 7.387035e-05
1.047000e+03 3.073266e-05
1.048000e+03 2.610905e-07
1.049000e+03 2.462600e-05
1.050000e+03 4.055473e-06
1.051000e+03 1.966953e-06
1.052000e+03 5.508149e-04
1.053000e+03 8.126648e-04
1.054000e+03 2.853631e-08
1.055000e+03 8.849356e-04
1.056000e+03 1.058125e-03
1.057000e+03 1.082505e-04
1.058000e+03 1.773807e-06
1.059000e+03 1.611013e-06
1.060000e+03 3.988389e-07
1.061000e+03 2.523065e-04
1.062000e+03 9.035284e-07
1.063000e+03 7.090704e-05
1.064000e+03 7.217750e-08
1.065000e+03 5.238689e-08
1.066000e+03 3.573954e-04
1.067000e+03 1.710882e-06
1.068000e+03 2.350332e-03
1.069000e+03 3.276737e-07
1.070000e+03 2.561091e-05
1.071000e+03 8.298105e-04
1.072000e+03 2.929469e-03
1.073000e+03 9.045471e-08
1.074000e+03 1.261608e-04
1.075000e+03 6.299606e-05
1.076000e+03 3.064200e-03
1.077000e+03 1.048043e-06
1.078000e+03 2.772547e-06
1.079000e+03 1.724741e-05
1.080000e+03 1.199108e-04
1.081000e+03 1.053606e-03
1.082000e+03 4.778716e-04
1.083000e+03 2.057673e-04
1.084000e+03 6.282291e-03
1.085000e+03 3.119861e-05
1.086000e+03 4.763601e-03
1.087000e+03 4.794449e-06
1.088000e+03 7.042478e-03
1.089000e+03 7.601785e-03
1.090000e+03 2.349799e-05
1.091000e+03 4.285853e-05
1.092000e+03 7.218856e-03
1.093000e+03 8.882812e-03
1.094000e+03 4.695838e-04
1.095000e+03 1.038754e-02
1.096000e+03 2.763571e-04
1.097000e+03 4.483460e-03
1.098000e+03 9.840597e-03
1.099000e+03 9.995047e-05
1.100000e+03 9.030482e-07
1.101000e+03 3.165085e-06
1.102000e+03 7.362353e-05
1.103000e+03 1.312952e-02
1.104000e+03 1.351742e-02
1.105000e+03 1.433789e-02
1.106000e+03 5.135493e-04
1.107000e+03 2.200715e-06
1.108000e+03 5.457031e-03
1.109000e+03 3.814418e-05
1.110000e+03 1.602583e-02
1.111000e+03 1.267250e-02
1.112000e+03 2.142900e-03
1.113000e+03 1.126413e-02
1.114000e+03 9.940867e-04
1.115000e+03 3.958645e-05
1.116000e+03 9.984720e-06
1.117000e+03 1.719936e-02
1.118000e+03 6.910786e-05
1.119000e+03 2.041721e-03
1.120000e+03 1.943577e-05
1.121000e+03 1.252061e-02
1.122000e+03 3.444243e-02
1.123000e+03 2.809845e-02
1.124000e+03 3.559055e-02
1.125000e+03 1.709823e-02
1.126000e+03 4.838517e-02
1.127000e+03 1.749529e-02
1.128000e+03 2.464721e-02
1.129000e+03 7.525004e-03
1.130000e+03 2.948361e-02
1.131000e+03 2.398936e-02
1.132000e+03 3.627571e-05
1.133000e+03 5.838927e-04
1.134000e+03 1.039719e-02
1.135000e+03 2.442652e-02
1.136000e+03 1.198361e-03
1.137000e+03 1.970775e-02
1.138000e+03 7.394790e-03
1.139000e+03 2.548525e-02
1.140000e+03 2.291785e-02
1.141000e+03 2.506258e-02
1.142000e+03 2.523842e-02
1.143000e+03 7.189874e-03
1.144000e+03 2.507404e-02
1.145000e+03 2.140552e-05
1.146000e+03 2.629093e-02
1.147000e+03 2.568428e-02
1.148000e+03 2.303086e-04
1.149000e+03 2.037991e-02
1.150000e+03 1.818272e-02
1.151000e+03 2.498005e-02
1.152000e+03 1.985460e-02
1.153000e+03 2.410319e-02
1.154000e+03 2.461452e-02
1.155000e+03 1.921895e-02
1.156000e+03 1.808586e-02
1.157000e+03 2.189403e-02
1.158000e+03 8.254952e-03
1.159000e+03 2.265036e-02
1.160000e+03 1.145751e-02
1.161000e+03 2.063040e-02
1.162000e+03 1.163580e-03
1.163000e+03 5.067941e-03
1.164000e+03 5.036872e-05
1.165000e+03 1.095916e-02
1.166000e+03 5.853614e-03
1.167000e+03 4.049204e-03
1.168000e+03 2.362490e-02
1.169000e+03 2.442458e-02
1.170000e+03 3.786479e-03
1.171000e+03 1.094286e-02
1.172000e+03 7.834016e-03
1.173000e+03 7.636568e-03
1.174000e+03 1.494475e-04
1.175000e+03 3.518071e-05
1.176000e+03 1.518568e-05
1.177000e+03 3.129786e-02
1.178000e+03 2.959106e-02
1.179000e+03 2.778319e-02
1.180000e+03 2.197235e-02
1.181000e+03 2.533084e-02
1.182000e+03 2.424806e-02
1.183000e+03 1.968119e-02
1.184000e+03 1.810047e-02
1.185000e+03 1.857081e-02
1.186000e+03 8.634737e-04
1.187000e+03 1.998440e-02
1.188000e+03 1.497863e-02
1.189000e+03 1.963107e-02
1.190000e+03 1.907483e-02
1.191000e+03 1.763858e-02
1.192000e+03 1.630477e-02
1.193000e+03 1.568798e-02
1.194000e+03 1.568111e-02
1.195000e+03 1.496827e-02
1.196000e+03 2.611177e-01
1.197000e+03 2.703094e-01
1.198000e+03 3.503643e-03
1.199000e+03 2.231462e-01
1.200000e+03 1.621269e-02
1.201000e+03 1.691982e-01
1.202000e+03 9.822195e-02
1.203000e+03 1.204435e-01
1.204000e+03 1.749041e-02
1.205000e+03 7.752487e-02
1.206000e+03 6.028259e-02
1.207000e+03 8.205190e-03
1.208000e+03 2.911601e-02
1.209000e+03 2.117178e-02
1.210000e+03 8.031074e-05
1.211000e+03 7.683703e-03
1.212000e+03 3.702532e-03
1.213000e+03 1.600123e-03
1.214000e+03 4.576611e-04
1.215000e+03 8.282057e-05
1.216000e+03 7.387828e-05
1.217000e+03 2.878855e-04
1.218000e+03 1.321075e-03
1.219000e+03 3.705434e-03
1.220000e+03 6.236961e-03
1.221000e+03 1.636234e-02
1.222000e+03 2.795524e-02
1.223000e+03 3.994576e-02
1.224000e+03 6.103726e-02
1.225000e+03 6.312720e-03
1.226000e+03 1.364100e-01
1.227000e+03 1.885933e-01
1.228000e+03 7.150899e-02
1.229000e+03 2.964189e-01
1.230000e+03 2.641830e-01
1.231000e+03 3.722990e-02
1.232000e+03 5.389985e-01
1.233000e+03 6.381493e-01
1.234000e+03 6.322303e-01
1.235000e+03 7.991100e-01
1.236000e+03 1.636210e-01
1.237000e+03 1.026678e+00
1.238000e+03 1.110440e+00
1.239000e+03 8.241872e-01
1.240000e+03 3.112631e-01
1.241000e+03 9.776065e-01
1.242000e+03 1.435624e+00
1.243000e+03 1.657133e+00
1.244000e+03 1.779133e+00
1.245000e+03 1.851434e+00
1.246000e+03 1.653901e+00
1.247000e+03 1.925025e+00
1.248000e+03 1.690587e+00
1.249000e+03 2.324534e+00
1.250000e+03 1.672661e+00
1.251000e+03 2.501737e+00
1.252000e+03 2.362357e+00
1.253000e+03 2.651568e+00
1.254000e+03 2.511218e+00
1.255000e+03 5.719395e-01
1.256000e+03 2.016163e+00
1.257000e+03 1.494691e+00
1.258000e+03 1.895655e+00
1.259000e+03 2.330081e+00
1.260000e+03 3.028378e+00
1.261000e+03 4.672027e-02
1.262000e+03 3.142678e+00
1.263000e+03 3.009272e+00
1.264000e+03 2.177800e+00
1.265000e+03 2.290247e+00
1.266000e+03 3.777839e+00
1.267000e+03 3.386183e+00
