# wavelength_A flux
5.000000e+02 9.078101e-35
5.010000e+02 1.163252e-34
5.020000e+02 1.489068e-34
5.030000e+02 1.904235e-34
5.040000e+02 2.432732e-34
5.050000e+02 3.105638e-34
5.060000e+02 3.959706e-34
5.070000e+02 5.043689e-34
5.080000e+02 6.418220e-34
5.090000e+02 8.159431e-34
5.100000e+02 1.036089e-33
5.110000e+02 1.314930e-33
5.120000e+02 1.666873e-33
5.130000e+02 2.111039e-33
5.140000e+02 2.671045e-33
5.150000e+02 3.376456e-33
5.160000e+02 4.264208e-33
5.170000e+02 5.380415e-33
5.180000e+02 6.782585e-33
5.190000e+02 8.542385e-33
5.200000e+02 1.074904e-32
5.210000e+02 1.351355e-32
5.220000e+02 1.697383e-32
5.230000e+02 2.130126e-32
5.240000e+02 2.670826e-32
5.250000e+02 3.345829e-32
5.260000e+02 4.187764e-32
5.270000e+02 5.237004e-32
5.280000e+02 6.543469e-32
5.290000e+02 8.168830e-32
5.300000e+02 1.018921e-31
5.310000e+02 1.269848e-31
5.320000e+02 1.581234e-31
5.330000e+02 1.967323e-31
5.340000e+02 2.445637e-31
5.350000e+02 3.037719e-31
5.360000e+02 3.770026e-31
5.370000e+02 4.674805e-31
5.380000e+02 5.792546e-31
5.390000e+02 7.171364e-31
5.400000e+02 8.871217e-31
5.410000e+02 1.096518e-30
5.420000e+02 1.354258e-30
5.430000e+02 1.671251e-30
5.440000e+02 2.060816e-30
5.450000e+02 2.539191e-30
5.460000e+02 3.126168e-30
5.470000e+02 3.845844e-30
5.480000e+02 4.727543e-30
5.490000e+02 5.806915e-30
5.500000e+02 7.127276e-30
5.510000e+02 8.741211e-30
5.520000e+02 1.071251e-29
5.530000e+02 1.311851e-29
5.540000e+02 1.605288e-29
5.550000e+02 1.962901e-29
5.560000e+02 2.398406e-29
5.570000e+02 2.928381e-29
5.580000e+02 3.572850e-29
5.590000e+02 4.355980e-29
5.600000e+02 5.306921e-29
5.610000e+02 6.460807e-29
5.620000e+02 7.859953e-29
5.630000e+02 9.555291e-29
5.640000e+02 1.160808e-28
5.650000e+02 1.409193e-28
5.660000e+02 1.709529e-28
5.670000e+02 2.072430e-28
5.680000e+02 2.510626e-28
5.690000e+02 3.039378e-28
5.700000e+02 3.676965e-28
5.710000e+02 4.445267e-28
5.720000e+02 5.370460e-28
5.730000e+02 6.483834e-28
5.740000e+02 7.822771e-28
5.750000e+02 9.431900e-28
5.760000e+02 1.136447e-27
5.770000e+02 1.368397e-27
5.780000e+02 1.646604e-27
5.790000e+02 1.980078e-27
5.800000e+02 2.379539e-27
5.810000e+02 2.857735e-27
5.820000e+02 3.429822e-27
5.830000e+02 4.113798e-27
5.840000e+02 4.931025e-27
5.850000e+02 5.906857e-27
5.860000e+02 7.071338e-27
5.870000e+02 8.460074e-27
5.880000e+02 1.011523e-26
5.890000e+02 1.208668e-26
5.900000e+02 1.443346e-26
5.910000e+02 1.722530e-26
5.920000e+02 2.054458e-26
5.930000e+02 2.448858e-26
5.940000e+02 2.917205e-26
5.950000e+02 3.473031e-26
5.960000e+02 4.132283e-26
5.970000e+02 4.913744e-26
5.980000e+02 5.839523e-26
5.990000e+02 6.935628e-26
6.000000e+02 8.232641e-26
6.010000e+02 9.766496e-26
6.020000e+02 1.157939e-25
6.030000e+02 1.372087e-25
6.040000e+02 1.624903e-25
6.050000e+02 1.923201e-25
6.060000e+02 2.274963e-25
6.070000e+02 2.689538e-25
6.080000e+02 3.177869e-25
6.090000e+02 3.752757e-25
6.100000e+02 4.429170e-25
6.110000e+02 5.224598e-25
6.120000e+02 6.159466e-25
6.130000e+02 7.257622e-25
6.140000e+02 8.546882e-25
6.150000e+02 1.005968e-24
6.160000e+02 1.183384e-24
6.170000e+02 1.391337e-24
6.180000e+02 1.634955e-24
6.190000e+02 1.920204e-24
6.200000e+02 2.254021e-24
6.210000e+02 2.644470e-24
6.220000e+02 3.100920e-24
6.230000e+02 3.634251e-24
6.240000e+02 4.257090e-24
6.250000e+02 4.984084e-24
6.260000e+02 5.832214e-24
6.270000e+02 6.821163e-24
6.280000e+02 7.973725e-24
6.290000e+02 9.316289e-24
6.300000e+02 1.087939e-23
6.310000e+02 1.269835e-23
6.320000e+02 1.481399e-23
6.330000e+02 1.727349e-23
6.340000e+02 2.013131e-23
6.350000e+02 2.345035e-23
6.360000e+02 2.730315e-23
6.370000e+02 3.177338e-23
6.380000e+02 3.695748e-23
6.390000e+02 4.296655e-23
6.400000e+02 4.992854e-23
6.410000e+02 5.799071e-23
6.420000e+02 6.732250e-23
6.430000e+02 7.811873e-23
6.440000e+02 9.060336e-23
6.450000e+02 1.050337e-22
6.460000e+02 1.217051e-22
6.470000e+02 1.409568e-22
6.480000e+02 1.631779e-22
6.490000e+02 1.888147e-22
6.500000e+02 2.183784e-22
6.510000e+02 2.524554e-22
6.520000e+02 2.917166e-22
6.530000e+02 3.369306e-22
6.540000e+02 3.889763e-22
6.550000e+02 4.488594e-22
6.560000e+02 5.177295e-22
6.570000e+02 5.969002e-22
6.580000e+02 6.878720e-22
6.590000e+02 7.923582e-22
6.600000e+02 9.123143e-22
6.610000e+02 1.049970e-21
6.620000e+02 1.207871e-21
6.630000e+02 1.388913e-21
6.640000e+02 1.596402e-21
6.650000e+02 1.834099e-21
6.660000e+02 2.106286e-21
6.670000e+02 2.417835e-21
6.680000e+02 2.774290e-21
6.690000e+02 3.181952e-21
6.700000e+02 3.647982e-21
6.710000e+02 4.180518e-21
6.720000e+02 4.788799e-21
6.730000e+02 5.483312e-21
6.740000e+02 6.275957e-21
6.750000e+02 7.180232e-21
6.760000e+02 8.211439e-21
6.770000e+02 9.386921e-21
6.780000e+02 1.072632e-20
6.790000e+02 1.225190e-20
6.800000e+02 1.398882e-20
6.810000e+02 1.596560e-20
6.820000e+02 1.821446e-20
6.830000e+02 2.077184e-20
6.840000e+02 2.367895e-20
6.850000e+02 2.698230e-20
6.860000e+02 3.073446e-20
6.870000e+02 3.499475e-20
6.880000e+02 3.983014e-20
6.890000e+02 4.531615e-20
6.900000e+02 5.153795e-20
6.910000e+02 5.859155e-20
6.920000e+02 6.658514e-20
6.930000e+02 7.564057e-20
6.940000e+02 8.589507e-20
6.950000e+02 9.750306e-20
6.960000e+02 1.106383e-19
6.970000e+02 1.254963e-19
6.980000e+02 1.422968e-19
6.990000e+02 1.612867e-19
7.000000e+02 1.827436e-19
7.010000e+02 2.069792e-19
7.020000e+02 2.343433e-19
7.030000e+02 2.652288e-19
7.040000e+02 3.000763e-19
7.050000e+02 3.393800e-19
7.060000e+02 3.836940e-19
7.070000e+02 4.336393e-19
7.080000e+02 4.899117e-19
7.090000e+02 5.532904e-19
7.100000e+02 6.246480e-19
7.110000e+02 7.049610e-19
7.120000e+02 7.953219e-19
7.130000e+02 8.969529e-19
7.140000e+02 1.011220e-18
7.150000e+02 1.139651e-18
7.160000e+02 1.283952e-18
7.170000e+02 1.446029e-18
7.180000e+02 1.628011e-18
7.190000e+02 1.832273e-18
7.200000e+02 2.061466e-18
7.210000e+02 2.318548e-18
7.220000e+02 2.606816e-18
7.230000e+02 2.929947e-18
7.240000e+02 3.292037e-18
7.250000e+02 3.697652e-18
7.260000e+02 4.151874e-18
7.270000e+02 4.660363e-18
7.280000e+02 5.229418e-18
7.290000e+02 5.866049e-18
7.300000e+02 6.578051e-18
7.310000e+02 7.374092e-18
7.320000e+02 8.263810e-18
7.330000e+02 9.257910e-18
7.340000e+02 1.036829e-17
7.350000e+02 1.160817e-17
7.360000e+02 1.299220e-17
7.370000e+02 1.453667e-17
7.380000e+02 1.625964e-17
7.390000e+02 1.818115e-17
7.400000e+02 2.032342e-17
7.410000e+02 2.271107e-17
7.420000e+02 2.537140e-17
7.430000e+02 2.833465e-17
7.440000e+02 3.163432e-17
7.450000e+02 3.530748e-17
7.460000e+02 3.939518e-17
7.470000e+02 4.394285e-17
7.480000e+02 4.900073e-17
7.490000e+02 5.462440e-17
7.500000e+02 6.087531e-17
7.510000e+02 6.782135e-17
7.520000e+02 7.553758e-17
7.530000e+02 8.410689e-17
7.540000e+02 9.362082e-17
7.550000e+02 1.041805e-16
7.560000e+02 1.158973e-16
7.570000e+02 1.288946e-16
7.580000e+02 1.433079e-16
7.590000e+02 1.592871e-16
7.600000e+02 1.769972e-16
7.610000e+02 1.966203e-16
7.620000e+02 2.183567e-16
7.630000e+02 2.424273e-16
7.640000e+02 2.690754e-16
7.650000e+02 2.985688e-16
7.660000e+02 3.312021e-16
7.670000e+02 3.672998e-16
7.680000e+02 4.072186e-16
7.690000e+02 4.513508e-16
7.700000e+02 5.001280e-16
7.710000e+02 5.540242e-16
7.720000e+02 6.135609e-16
7.730000e+02 6.793103e-16
7.740000e+02 7.519012e-16
7.750000e+02 8.320244e-16
7.760000e+02 9.204377e-16
7.770000e+02 1.017973e-15
7.780000e+02 1.125543e-15
7.790000e+02 1.244148e-15
7.800000e+02 1.374887e-15
7.810000e+02 1.518964e-15
7.820000e+02 1.677697e-15
7.830000e+02 1.852533e-15
7.840000e+02 2.045054e-15
7.850000e+02 2.256996e-15
7.860000e+02 2.490258e-15
7.870000e+02 2.746919e-15
7.880000e+02 3.029254e-15
7.890000e+02 3.339753e-15
7.900000e+02 3.681139e-15
7.910000e+02 4.056390e-15
7.920000e+02 4.468762e-15
7.930000e+02 4.921816e-15
7.940000e+02 5.419440e-15
7.950000e+02 5.965883e-15
7.960000e+02 6.565786e-15
7.970000e+02 7.224220e-15
7.980000e+02 7.946717e-15
7.990000e+02 8.739318e-15
8.000000e+02 9.608613e-15
8.010000e+02 1.056179e-14
8.020000e+02 1.160670e-14
8.030000e+02 1.275189e-14
8.040000e+02 1.400668e-14
8.050000e+02 1.538123e-14
8.060000e+02 1.688663e-14
8.070000e+02 1.853493e-14
8.080000e+02 2.033928e-14
8.090000e+02 2.231398e-14
8.100000e+02 2.447461e-14
8.110000e+02 2.683813e-14
8.120000e+02 2.942299e-14
8.130000e+02 3.224927e-14
8.140000e+02 3.533880e-14
8.150000e+02 3.871533e-14
8.160000e+02 4.240468e-14
8.170000e+02 4.643489e-14
8.180000e+02 5.083648e-14
8.190000e+02 5.564258e-14
8.200000e+02 6.088918e-14
8.210000e+02 6.661536e-14
8.220000e+02 7.286358e-14
8.230000e+02 7.967989e-14
8.240000e+02 8.711432e-14
8.250000e+02 9.522111e-14
8.260000e+02 1.040591e-13
8.270000e+02 1.136922e-13
8.280000e+02 1.241896e-13
8.290000e+02 1.356263e-13
8.300000e+02 1.480838e-13
8.310000e+02 1.616501e-13
8.320000e+02 1.764208e-13
8.330000e+02 1.924993e-13
8.340000e+02 2.099978e-13
8.350000e+02 2.290375e-13
8.360000e+02 2.497498e-13
8.370000e+02 2.722770e-13
8.380000e+02 2.967727e-13
8.390000e+02 3.234035e-13
8.400000e+02 3.523495e-13
8.410000e+02 3.838052e-13
8.420000e+02 4.179813e-13
8.430000e+02 4.551052e-13
8.440000e+02 4.954231e-13
8.450000e+02 5.392006e-13
8.460000e+02 5.867248e-13
8.470000e+02 6.383060e-13
8.480000e+02 6.942791e-13
8.490000e+02 7.550057e-13
8.500000e+02 8.208762e-13
8.510000e+02 8.923119e-13
8.520000e+02 9.697677e-13
8.530000e+02 1.053734e-12
8.540000e+02 1.144740e-12
8.550000e+02 1.243356e-12
8.560000e+02 1.350197e-12
8.570000e+02 1.465928e-12
8.580000e+02 1.591262e-12
8.590000e+02 1.726971e-12
8.600000e+02 1.873884e-12
8.610000e+02 2.032895e-12
8.620000e+02 2.204968e-12
8.630000e+02 2.391140e-12
8.640000e+02 2.592527e-12
8.650000e+02 2.810331e-12
8.660000e+02 3.045845e-12
8.670000e+02 3.300461e-12
8.680000e+02 3.575676e-12
8.690000e+02 3.873101e-12
8.700000e+02 4.194468e-12
8.710000e+02 4.541638e-12
8.720000e+02 4.916614e-12
8.730000e+02 5.321547e-12
8.740000e+02 5.758750e-12
8.750000e+02 6.230707e-12
8.760000e+02 6.740087e-12
8.770000e+02 7.289756e-12
8.780000e+02 7.882793e-12
8.790000e+02 8.522503e-12
8.800000e+02 9.212434e-12
8.810000e+02 9.956392e-12
8.820000e+02 1.075847e-11
8.830000e+02 1.162304e-11
8.840000e+02 1.255482e-11
8.850000e+02 1.355884e-11
8.860000e+02 1.464052e-11
8.870000e+02 1.580566e-11
8.880000e+02 1.706047e-11
8.890000e+02 1.841162e-11
8.900000e+02 1.986625e-11
8.910000e+02 2.143202e-11
8.920000e+02 2.311711e-11
8.930000e+02 2.493030e-11
8.940000e+02 2.688101e-11
8.950000e+02 2.897929e-11
8.960000e+02 3.123592e-11
8.970000e+02 3.366244e-11
8.980000e+02 3.627119e-11
8.990000e+02 3.907538e-11
9.000000e+02 4.208914e-11
9.010000e+02 4.532759e-11
9.020000e+02 4.880689e-11
9.030000e+02 5.254433e-11
9.040000e+02 5.655839e-11
9.050000e+02 6.086882e-11
9.060000e+02 6.549673e-11
9.070000e+02 7.046470e-11
9.080000e+02 7.579682e-11
9.090000e+02 8.151885e-11
9.100000e+02 8.765829e-11
9.110000e+02 9.424451e-11
9.120000e+02 1.013089e-10
9.130000e+02 1.088849e-10
9.140000e+02 1.181242e-10
9.150000e+02 2.781167e-08
9.160000e+02 1.877131e-07
9.170000e+02 8.673855e-09
9.180000e+02 3.606605e-08
9.190000e+02 5.371310e-07
9.200000e+02 1.539903e-06
9.210000e+02 1.927469e-10
9.220000e+02 1.121088e-06
9.230000e+02 7.020296e-09
9.240000e+02 1.489684e-08
9.250000e+02 2.022707e-07
9.260000e+02 5.329815e-08
9.270000e+02 1.379802e-08
9.280000e+02 9.585131e-06
9.290000e+02 9.271530e-06
9.300000e+02 1.956405e-06
9.310000e+02 1.390537e-08
9.320000e+02 7.342495e-06
9.330000e+02 1.689358e-06
9.340000e+02 3.898567e-07
9.350000e+02 1.674417e-08
9.360000e+02 4.980905e-08
9.370000e+02 4.592287e-09
9.380000e+02 1.194076e-08
9.390000e+02 1.597549e-07
9.400000e+02 1.143702e-05
9.410000e+02 1.049838e-06
9.420000e+02 3.235576e-05
9.430000e+02 2.706074e-07
9.440000e+02 3.674952e-05
9.450000e+02 3.503992e-05
9.460000e+02 5.511900e-06
9.470000e+02 4.647518e-09
9.480000e+02 1.044397e-05
9.490000e+02 1.003305e-06
9.500000e+02 1.699241e-08
9.510000e+02 2.907128e-06
9.520000e+02 9.072494e-06
9.530000e+02 5.328371e-08
9.540000e+02 5.129454e-09
9.550000e+02 6.606861e-07
9.560000e+02 5.180188e-05
9.570000e+02 2.717879e-07
9.580000e+02 2.763045e-09
9.590000e+02 3.325813e-05
9.600000e+02 3.979881e-08
9.610000e+02 9.003899e-06
9.620000e+02 2.855658e-06
9.630000e+02 3.334535e-07
9.640000e+02 7.020412e-08
9.650000e+02 1.701119e-08
9.660000e+02 7.161798e-07
9.670000e+02 1.039680e-07
9.680000e+02 7.001290e-08
9.690000e+02 4.743386e-06
9.700000e+02 6.602650e-06
9.710000e+02 1.638594e-07
9.720000e+02 4.925732e-08
9.730000e+02 2.090744e-07
9.740000e+02 4.231788e-06
9.750000e+02 1.558170e-06
9.760000e+02 5.623939e-05
9.770000e+02 3.458558e-05
9.780000e+02 1.381752e-05
9.790000e+02 2.046971e-04
9.800000e+02 2.061809e-04
9.810000e+02 8.022165e-06
9.820000e+02 1.197863e-06
9.830000e+02 2.046279e-04
9.840000e+02 5.602715e-06
9.850000e+02 3.188392e-06
9.860000e+02 5.226093e-06
9.870000e+02 2.301563e-04
9.880000e+02 5.814945e-08
9.890000e+02 5.195836e-05
9.900000e+02 1.231138e-04
9.910000e+02 1.277803e-06
9.920000e+02 2.202667e-08
9.930000e+02 4.151354e-04
9.940000e+02 3.457171e-08
9.950000e+02 1.623283e-05
9.960000e+02 2.722954e-07
9.970000e+02 1.272073e-05
9.980000e+02 1.844644e-04
9.990000e+02 2.112921e-06
1.000000e+03 7.157818e-04
1.001000e+03 6.100784e-04
1.002000e+03 6.184201e-04
1.003000e+03 2.173430e-06
1.004000e+03 9.522773e-08
1.005000e+03 9.652169e-06
1.006000e+03 5.400079e-04
1.007000e+03 7.771567e-04
1.008000e+03 3.288803e-04
1.009000e+03 3.239280e-06
1.010000e+03 3.290357e-04
1.011000e+03 4.184723e-04
1.012000e+03 4.522744e-04
1.013000e+03 4.313986e-04
1.014000e+03 8.069037e-08
1.015000e+03 1.921726e-07
1.016000e+03 1.208327e-05
1.017000e+03 8.940697e-08
1.018000e+03 3.269495e-06
1.019000e+03 1.750886e-07
1.020000e+03 5.264226e-04
1.021000e+03 7.000141e-06
1.022000e+03 1.035380e-05
1.023000e+03 4.909816e-07
1.024000e+03 4.016133e-05
1.025000e+03 1.396015e-07
1.026000e+03 2.094625e-07
1.027000e+03 1.465088e-05
1.028000e+03 1.220418e-06
1.029000e+03 1.796579e-07
1.030000e+03 4.762970e-05
1.031000e+03 1.259156e-04
1.032000e+03 1.358531e-03
1.033000e+03 1.318357e-05
1.034000e+03 1.587893e-04
1.035000e+03 7.777708e-07
1.036000e+03 2.883608e-07
1.037000e+03 1.738490e-03
1.038000e+03 7.743894e-03
1.039000e+03 1.991821e-03
1.040000e+03 1.667543e-03
1.041000e+03 9.014427e-03
1.042000e+03 6.562336e-03
1.043000e+03 5.775699e-03
1.044000e+03 1.652409e-02
1.045000e+03 7.818658e-07
1.046000e+03 1.624663e-03
1.047000e+03 5.271006e-04
1.048000e+03 6.411341e-06
1.049000e+03 4.936054e-04
1.050000e+03 9.864592e-05
1.051000e+03 4.813820e-05
1.052000e+03 9.177037e-03
1.053000e+03 1.506951e-02
1.054000e+03 7.119961e-07
1.055000e+03 1.656749e-02
1.056000e+03 1.900691e-02
1.057000e+03 1.754092e-03
1.058000e+03 4.724002e-05
1.059000e+03 3.489107e-05
1.060000e+03 9.607524e-06
1.061000e+03 3.787559e-03
1.062000e+03 2.414800e-05
1.063000e+03 1.012071e-03
1.064000e+03 1.799315e-06
1.065000e+03 1.265667e-06
1.066000e+03 5.302124e-03
1.067000e+03 3.649795e-05
1.068000e+03 3.941334e-02
1.069000e+03 7.680128e-06
1.070000e+03 5.892552e-04
1.071000e+03 1.606615e-02
1.072000e+03 4.274905e-02
1.073000e+03 2.223998e-06
1.074000e+03 1.995997e-03
1.075000e+03 1.030799e-03
1.076000e+03 4.430373e-02
1.077000e+03 2.498133e-05
1.078000e+03 6.879494e-05
1.079000e+03 3.914755e-04
1.080000e+03 2.088865e-03
1.081000e+03 1.518355e-02
1.082000e+03 7.393204e-03
1.083000e+03 3.362883e-03
1.084000e+03 8.915360e-02
1.085000e+03 5.895793e-04
1.086000e+03 7.354867e-02
1.087000e+03 9.817630e-05
1.088000e+03 1.027126e-01
1.089000e+03 1.082925e-01
1.090000e+03 4.534344e-04
1.091000e+03 7.512495e-04
1.092000e+03 1.024635e-01
1.093000e+03 1.216183e-01
1.094000e+03 8.357294e-03
1.095000e+03 1.423035e-01
1.096000e+03 4.887481e-03
1.097000e+03 5.748300e-02
1.098000e+03 1.381945e-01
1.099000e+03 1.856372e-03
1.100000e+03 2.184464e-05
1.101000e+03 7.081698e-05
1.102000e+03 1.271735e-03
1.103000e+03 1.686345e-01
1.104000e+03 1.864501e-01
1.105000e+03 1.876778e-01
1.106000e+03 7.986811e-03
1.107000e+03 4.564971e-05
1.108000e+03 7.299529e-02
1.109000e+03 6.739050e-04
1.110000e+03 2.191348e-01
1.111000e+03 1.643419e-01
1.112000e+03 3.005144e-02
1.113000e+03 1.627072e-01
1.114000e+03 1.476174e-02
1.115000e+03 7.663546e-04
1.116000e+03 2.417707e-04
1.117000e+03 2.079431e-01
1.118000e+03 1.180958e-03
1.119000e+03 3.207050e-02
1.120000e+03 3.995299e-04
1.121000e+03 1.595567e-01
1.122000e+03 3.978369e-01
1.123000e+03 3.213320e-01
1.124000e+03 3.878645e-01
1.125000e+03 1.991200e-01
1.126000e+03 5.429888e-01
1.127000e+03 2.277837e-01
1.128000e+03 3.037395e-01
1.129000e+03 9.960581e-02
1.130000e+03 3.625149e-01
1.131000e+03 3.224213e-01
1.132000e+03 7.333010e-04
1.133000e+03 8.086771e-03
1.134000e+03 1.279256e-01
1.135000e+03 2.857195e-01
1.136000e+03 1.712543e-02
1.137000e+03 2.601985e-01
1.138000e+03 9.450339e-02
1.139000e+03 3.462443e-01
1.140000e+03 3.233859e-01
1.141000e+03 3.363380e-01
1.142000e+03 3.499720e-01
1.143000e+03 1.086830e-01
1.144000e+03 3.466996e-01
1.145000e+03 4.071891e-04
1.146000e+03 3.692287e-01
1.147000e+03 3.588491e-01
1.148000e+03 3.811657e-03
1.149000e+03 2.807744e-01
1.150000e+03 2.399882e-01
1.151000e+03 3.562655e-01
1.152000e+03 2.922475e-01
1.153000e+03 3.410797e-01
1.154000e+03 3.535466e-01
1.155000e+03 2.631699e-01
1.156000e+03 2.711829e-01
1.157000e+03 3.212299e-01
1.158000e+03 1.196830e-01
1.159000e+03 3.310557e-01
1.160000e+03 1.545163e-01
1.161000e+03 3.036632e-01
1.162000e+03 1.760328e-02
1.163000e+03 6.822062e-02
1.164000e+03 9.121150e-04
1.165000e+03 1.697788e-01
1.166000e+03 9.394031e-02
1.167000e+03 6.694340e-02
1.168000e+03 3.498809e-01
1.169000e+03 3.606417e-01
1.170000e+03 6.191452e-02
1.171000e+03 1.723991e-01
1.172000e+03 1.184547e-01
1.173000e+03 1.239957e-01
1.174000e+03 2.686292e-03
1.175000e+03 6.623715e-04
1.176000e+03 2.745762e-04
1.177000e+03 4.554431e-01
1.178000e+03 4.330802e-01
1.179000e+03 4.072488e-01
1.180000e+03 3.079414e-01
1.181000e+03 3.775798e-01
1.182000e+03 3.606973e-01
1.183000e+03 2.864749e-01
1.184000e+03 2.586645e-01
1.185000e+03 2.730727e-01
1.186000e+03 1.470835e-02
1.187000e+03 2.997919e-01
1.188000e+03 2.108103e-01
1.189000e+03 2.995582e-01
1.190000e+03 2.917690e-01
1.191000e+03 2.667981e-01
1.192000e+03 2.510058e-01
1.193000e+03 2.382174e-01
1.194000e+03 2.417495e-01
1.195000e+03 2.310326e-01
1.196000e+03 2.736276e+00
1.197000e+03 2.930591e+00
1.198000e+03 5.492079e-02
1.199000e+03 2.541885e+00
1.200000e+03 2.139863e-01
1.201000e+03 2.037878e+00
1.202000e+03 1.135645e+00
1.203000e+03 1.524558e+00
1.204000e+03 2.154952e-01
1.205000e+03 1.036670e+00
1.206000e+03 8.367671e-01
1.207000e+03 1.286026e-01
1.208000e+03 4.247299e-01
1.209000e+03 3.197958e-01
1.210000e+03 1.355961e-03
1.211000e+03 1.209018e-01
1.212000e+03 5.882740e-02
1.213000e+03 2.612755e-02
1.214000e+03 7.570097e-03
1.215000e+03 1.346540e-03
1.216000e+03 1.183467e-03
1.217000e+03 4.738079e-03
1.218000e+03 2.145339e-02
1.219000e+03 5.901998e-02
1.220000e+03 9.164608e-02
1.221000e+03 2.473637e-01
1.222000e+03 4.079489e-01
1.223000e+03 5.626785e-01
1.224000e+03 8.658144e-01
1.225000e+03 9.049928e-02
1.226000e+03 1.794114e+00
1.227000e+03 2.376043e+00
1.228000e+03 8.432244e-01
1.229000e+03 3.443427e+00
1.230000e+03 3.034059e+00
1.231000e+03 4.711318e-01
1.232000e+03 5.876431e+00
1.233000e+03 6.752900e+00
1.234000e+03 6.290597e+00
1.235000e+03 8.039176e+00
1.236000e+03 1.723482e+00
1.237000e+03 9.939098e+00
1.238000e+03 1.052695e+01
1.239000e+03 8.055260e+00
1.240000e+03 3.253388e+00
1.241000e+03 9.042956e+00
1.242000e+03 1.285889e+01
1.243000e+03 1.466610e+01
1.244000e+03 1.557476e+01
1.245000e+03 1.605849e+01
1.246000e+03 1.437740e+01
1.247000e+03 1.646508e+01
1.248000e+03 1.459123e+01
1.249000e+03 1.947300e+01
1.250000e+03 1.468976e+01
1.251000e+03 2.077052e+01
1.252000e+03 1.966080e+01
1.253000e+03 2.195466e+01
1.254000e+03 2.111221e+01
1.255000e+03 6.573202e+00
1.256000e+03 1.802366e+01
1.257000e+03 1.456429e+01
1.258000e+03 1.604983e+01
1.259000e+03 1.954264e+01
1.260000e+03 2.516425e+01
1.261000e+03 6.454983e-01
1.262000e+03 2.622666e+01
1.263000e+03 2.525935e+01
1.264000e+03 1.892289e+01
1.265000e+03 1.269400e+01
1.266000e+03 3.054541e+01
1.267000e+03 2.705630e+01
