# wavelength_A flux
5.000000e+02 2.311717e-05
5.010000e+02 2.587267e-05
5.020000e+02 2.894309e-05
5.030000e+02 3.236282e-05
5.040000e+02 3.616988e-05
5.050000e+02 4.108664e-05
5.060000e+02 4.587252e-05
5.070000e+02 5.119268e-05
5.080000e+02 5.710415e-05
5.090000e+02 6.367097e-05
5.100000e+02 7.096002e-05
5.110000e+02 7.904864e-05
5.120000e+02 8.802053e-05
5.130000e+02 9.796792e-05
5.140000e+02 1.089921e-04
5.150000e+02 1.212037e-04
5.160000e+02 1.347275e-04
5.170000e+02 1.496914e-04
5.180000e+02 1.662555e-04
5.190000e+02 1.845698e-04
5.200000e+02 2.048156e-04
5.210000e+02 2.271873e-04
5.220000e+02 2.518794e-04
5.230000e+02 2.791818e-04
5.240000e+02 3.092930e-04
5.250000e+02 3.425170e-04
5.260000e+02 3.791530e-04
5.270000e+02 4.195383e-04
5.280000e+02 4.640398e-04
5.290000e+02 5.129803e-04
5.300000e+02 5.670284e-04
5.310000e+02 6.264304e-04
5.320000e+02 6.917862e-04
5.330000e+02 7.636618e-04
5.340000e+02 8.426788e-04
5.350000e+02 9.295139e-04
5.360000e+02 1.024900e-03
5.370000e+02 1.119978e-03
5.380000e+02 1.244628e-03
5.390000e+02 1.370822e-03
5.400000e+02 1.509229e-03
5.410000e+02 1.660909e-03
5.420000e+02 1.827326e-03
5.430000e+02 2.009604e-03
5.440000e+02 2.209244e-03
5.450000e+02 2.427833e-03
5.460000e+02 2.666783e-03
5.470000e+02 2.928863e-03
5.480000e+02 3.215177e-03
5.490000e+02 3.528241e-03
5.500000e+02 3.870411e-03
5.510000e+02 4.244274e-03
5.520000e+02 4.652621e-03
5.530000e+02 5.098484e-03
5.540000e+02 5.585142e-03
5.550000e+02 6.116148e-03
5.560000e+02 6.695349e-03
5.570000e+02 7.326908e-03
5.580000e+02 8.015325e-03
5.590000e+02 8.765478e-03
5.600000e+02 9.582628e-03
5.610000e+02 1.047247e-02
5.620000e+02 1.144116e-02
5.630000e+02 1.249533e-02
5.640000e+02 1.364216e-02
5.650000e+02 1.488938e-02
5.660000e+02 1.624539e-02
5.670000e+02 1.771918e-02
5.680000e+02 1.932047e-02
5.690000e+02 2.105976e-02
5.700000e+02 2.294832e-02
5.710000e+02 2.499841e-02
5.720000e+02 2.722306e-02
5.730000e+02 2.963645e-02
5.740000e+02 3.225378e-02
5.750000e+02 3.509177e-02
5.760000e+02 3.816449e-02
5.770000e+02 4.149981e-02
5.780000e+02 4.510951e-02
5.790000e+02 4.901837e-02
5.800000e+02 5.324988e-02
5.810000e+02 5.782938e-02
5.820000e+02 6.278393e-02
5.830000e+02 6.814235e-02
5.840000e+02 7.392302e-02
5.850000e+02 8.019780e-02
5.860000e+02 8.697040e-02
5.870000e+02 9.428405e-02
5.880000e+02 1.021829e-01
5.890000e+02 1.107106e-01
5.900000e+02 1.199180e-01
5.910000e+02 1.298529e-01
5.920000e+02 1.405712e-01
5.930000e+02 1.521315e-01
5.940000e+02 1.645964e-01
5.950000e+02 1.780297e-01
5.960000e+02 1.925132e-01
5.970000e+02 2.081139e-01
5.980000e+02 2.249171e-01
5.990000e+02 2.430107e-01
6.000000e+02 2.624886e-01
6.010000e+02 2.834439e-01
6.020000e+02 3.060057e-01
6.030000e+02 3.302666e-01
6.040000e+02 3.563566e-01
6.050000e+02 3.844057e-01
6.060000e+02 4.145527e-01
6.070000e+02 4.469487e-01
6.080000e+02 4.817499e-01
6.090000e+02 5.191262e-01
6.100000e+02 5.592578e-01
6.110000e+02 6.023378e-01
6.120000e+02 6.485702e-01
6.130000e+02 6.981739e-01
6.140000e+02 7.513810e-01
6.150000e+02 8.084402e-01
6.160000e+02 8.696144e-01
6.170000e+02 9.351845e-01
6.180000e+02 1.005450e+00
6.190000e+02 1.080727e+00
6.200000e+02 1.161356e+00
6.210000e+02 1.247694e+00
6.220000e+02 1.340127e+00
6.230000e+02 1.439058e+00
6.240000e+02 1.544922e+00
6.250000e+02 1.658175e+00
6.260000e+02 1.779307e+00
6.270000e+02 1.908835e+00
6.280000e+02 2.047309e+00
6.290000e+02 2.195312e+00
6.300000e+02 2.353465e+00
6.310000e+02 2.522345e+00
6.320000e+02 2.702885e+00
6.330000e+02 2.895589e+00
6.340000e+02 3.101327e+00
6.350000e+02 3.320920e+00
6.360000e+02 3.552883e+00
6.370000e+02 3.805269e+00
6.380000e+02 4.071946e+00
6.390000e+02 4.356337e+00
6.400000e+02 4.659549e+00
6.410000e+02 4.982763e+00
6.420000e+02 5.327220e+00
6.430000e+02 5.694234e+00
6.440000e+02 6.085209e+00
6.450000e+02 6.501610e+00
6.460000e+02 6.945010e+00
6.470000e+02 7.417036e+00
6.480000e+02 7.919466e+00
6.490000e+02 8.454113e+00
6.500000e+02 9.022937e+00
6.510000e+02 9.627997e+00
6.520000e+02 1.027147e+01
6.530000e+02 1.095565e+01
6.540000e+02 1.168297e+01
6.550000e+02 1.245599e+01
6.560000e+02 1.327741e+01
6.570000e+02 1.414992e+01
6.580000e+02 1.507703e+01
6.590000e+02 1.606142e+01
6.600000e+02 1.710661e+01
6.610000e+02 1.821617e+01
6.620000e+02 1.939379e+01
6.630000e+02 2.064339e+01
6.640000e+02 2.196915e+01
6.650000e+02 2.337538e+01
6.660000e+02 2.486678e+01
6.670000e+02 2.644811e+01
6.680000e+02 2.812450e+01
6.690000e+02 2.990133e+01
6.700000e+02 3.178426e+01
6.710000e+02 3.377924e+01
6.720000e+02 3.589229e+01
6.730000e+02 3.813078e+01
6.740000e+02 4.050089e+01
6.750000e+02 4.301015e+01
6.760000e+02 4.566629e+01
6.770000e+02 4.847736e+01
6.780000e+02 5.145185e+01
6.790000e+02 5.459871e+01
6.800000e+02 5.792730e+01
6.810000e+02 6.144749e+01
6.820000e+02 6.516965e+01
6.830000e+02 6.910464e+01
6.840000e+02 7.326383e+01
6.850000e+02 7.765931e+01
6.860000e+02 8.230373e+01
6.870000e+02 8.720993e+01
6.880000e+02 9.239279e+01
6.890000e+02 9.786590e+01
6.900000e+02 1.036448e+02
6.910000e+02 1.097457e+02
6.920000e+02 1.161853e+02
6.930000e+02 1.229812e+02
6.940000e+02 1.301520e+02
6.950000e+02 1.377171e+02
6.960000e+02 1.456968e+02
6.970000e+02 1.541108e+02
6.980000e+02 1.629862e+02
6.990000e+02 1.723416e+02
7.000000e+02 1.822032e+02
7.010000e+02 1.925965e+02
7.020000e+02 2.035485e+02
7.030000e+02 2.150874e+02
7.040000e+02 2.272425e+02
7.050000e+02 2.400447e+02
7.060000e+02 2.535263e+02
7.070000e+02 2.677211e+02
7.080000e+02 2.826644e+02
7.090000e+02 2.983927e+02
7.100000e+02 3.149460e+02
7.110000e+02 3.323631e+02
7.120000e+02 3.506873e+02
7.130000e+02 3.699626e+02
7.140000e+02 3.902350e+02
7.150000e+02 4.115529e+02
7.160000e+02 4.339668e+02
7.170000e+02 4.575283e+02
7.180000e+02 4.822913e+02
7.190000e+02 5.083231e+02
7.200000e+02 5.356720e+02
7.210000e+02 5.644049e+02
7.220000e+02 5.945873e+02
7.230000e+02 6.262869e+02
7.240000e+02 6.595765e+02
7.250000e+02 6.945300e+02
7.260000e+02 7.312247e+02
7.270000e+02 7.697422e+02
7.280000e+02 8.101669e+02
7.290000e+02 8.525870e+02
7.300000e+02 8.970945e+02
7.310000e+02 9.437853e+02
7.320000e+02 9.927595e+02
7.330000e+02 1.044121e+03
7.340000e+02 1.097980e+03
7.350000e+02 1.154447e+03
7.360000e+02 1.213641e+03
7.370000e+02 1.275688e+03
7.380000e+02 1.340714e+03
7.390000e+02 1.408851e+03
7.400000e+02 1.480237e+03
7.410000e+02 1.555024e+03
7.420000e+02 1.633353e+03
7.430000e+02 1.715390e+03
7.440000e+02 1.801292e+03
7.450000e+02 1.891231e+03
7.460000e+02 1.985383e+03
7.470000e+02 2.083933e+03
7.480000e+02 2.187073e+03
7.490000e+02 2.295001e+03
7.500000e+02 2.407925e+03
7.510000e+02 2.526060e+03
7.520000e+02 2.649631e+03
7.530000e+02 2.778869e+03
7.540000e+02 2.914018e+03
7.550000e+02 3.055329e+03
7.560000e+02 3.203065e+03
7.570000e+02 3.357464e+03
7.580000e+02 3.518901e+03
7.590000e+02 3.687573e+03
7.600000e+02 3.863839e+03
7.610000e+02 4.047993e+03
7.620000e+02 4.240369e+03
7.630000e+02 4.441307e+03
7.640000e+02 4.651163e+03
7.650000e+02 4.870307e+03
7.660000e+02 5.099122e+03
7.670000e+02 5.338002e+03
7.680000e+02 5.587345e+03
7.690000e+02 5.847626e+03
7.700000e+02 6.119240e+03
7.710000e+02 6.402662e+03
7.720000e+02 6.698370e+03
7.730000e+02 7.006859e+03
7.740000e+02 7.328643e+03
7.750000e+02 7.664253e+03
7.760000e+02 8.013923e+03
7.770000e+02 8.379182e+03
7.780000e+02 8.759666e+03
7.790000e+02 9.156300e+03
7.800000e+02 9.569738e+03
7.810000e+02 1.000063e+04
7.820000e+02 1.044967e+04
7.830000e+02 1.091755e+04
7.840000e+02 1.140502e+04
7.850000e+02 1.191284e+04
7.860000e+02 1.244178e+04
7.870000e+02 1.299270e+04
7.880000e+02 1.356638e+04
7.890000e+02 1.416374e+04
7.900000e+02 1.478567e+04
7.910000e+02 1.543308e+04
7.920000e+02 1.610700e+04
7.930000e+02 1.680840e+04
7.940000e+02 1.753833e+04
7.950000e+02 1.829785e+04
7.960000e+02 1.908809e+04
7.970000e+02 1.991018e+04
7.980000e+02 2.076533e+04
7.990000e+02 2.165475e+04
8.000000e+02 2.257971e+04
8.010000e+02 2.354154e+04
8.020000e+02 2.454164e+04
8.030000e+02 2.558137e+04
8.040000e+02 2.666219e+04
8.050000e+02 2.778561e+04
8.060000e+02 2.895317e+04
8.070000e+02 3.016650e+04
8.080000e+02 3.142723e+04
8.090000e+02 3.273710e+04
8.100000e+02 3.409787e+04
8.110000e+02 3.551136e+04
8.120000e+02 3.697948e+04
8.130000e+02 3.850417e+04
8.140000e+02 4.008744e+04
8.150000e+02 4.173133e+04
8.160000e+02 4.343813e+04
8.170000e+02 4.520992e+04
8.180000e+02 4.704897e+04
8.190000e+02 4.895777e+04
8.200000e+02 5.093866e+04
8.210000e+02 5.299423e+04
8.220000e+02 5.512703e+04
8.230000e+02 5.733974e+04
8.240000e+02 5.963517e+04
8.250000e+02 6.201612e+04
8.260000e+02 6.448555e+04
8.270000e+02 6.704650e+04
8.280000e+02 6.970209e+04
8.290000e+02 7.245555e+04
8.300000e+02 7.531022e+04
8.310000e+02 7.826952e+04
8.320000e+02 8.133698e+04
8.330000e+02 8.451623e+04
8.340000e+02 8.781109e+04
8.350000e+02 9.122030e+04
8.360000e+02 9.476282e+04
8.370000e+02 9.842842e+04
8.380000e+02 1.022253e+05
8.390000e+02 1.061587e+05
8.400000e+02 1.102326e+05
8.410000e+02 1.144517e+05
8.420000e+02 1.188196e+05
8.430000e+02 1.233453e+05
8.440000e+02 1.280295e+05
8.450000e+02 1.328791e+05
8.460000e+02 1.378992e+05
8.470000e+02 1.430955e+05
8.480000e+02 1.484736e+05
8.490000e+02 1.540394e+05
8.500000e+02 1.597985e+05
8.510000e+02 1.657580e+05
8.520000e+02 1.719235e+05
8.530000e+02 1.783022e+05
8.540000e+02 1.849009e+05
8.550000e+02 1.917257e+05
8.560000e+02 1.987842e+05
8.570000e+02 2.060839e+05
8.580000e+02 2.136321e+05
8.590000e+02 2.214369e+05
8.600000e+02 2.295061e+05
8.610000e+02 2.378479e+05
8.620000e+02 2.464709e+05
8.630000e+02 2.553836e+05
8.640000e+02 2.645953e+05
8.650000e+02 2.741147e+05
8.660000e+02 2.839520e+05
8.670000e+02 2.941163e+05
8.680000e+02 3.046177e+05
8.690000e+02 3.154665e+05
8.700000e+02 3.266728e+05
8.710000e+02 3.382489e+05
8.720000e+02 3.502044e+05
8.730000e+02 3.625512e+05
8.740000e+02 3.753012e+05
8.750000e+02 3.884664e+05
8.760000e+02 4.020592e+05
8.770000e+02 4.160917e+05
8.780000e+02 4.305787e+05
8.790000e+02 4.455320e+05
8.800000e+02 4.609659e+05
8.810000e+02 4.768945e+05
8.820000e+02 4.933323e+05
8.830000e+02 5.102944e+05
8.840000e+02 5.277959e+05
8.850000e+02 5.458528e+05
8.860000e+02 5.644808e+05
8.870000e+02 5.836968e+05
8.880000e+02 6.035176e+05
8.890000e+02 6.239607e+05
8.900000e+02 6.450434e+05
8.910000e+02 6.667851e+05
8.920000e+02 6.886292e+05
8.930000e+02 7.123196e+05
8.940000e+02 7.361516e+05
8.950000e+02 7.607199e+05
8.960000e+02 7.860467e+05
8.970000e+02 8.121519e+05
8.980000e+02 8.390579e+05
8.990000e+02 8.667871e+05
9.000000e+02 8.953625e+05
9.010000e+02 9.248077e+05
9.020000e+02 9.551470e+05
9.030000e+02 9.864026e+05
9.040000e+02 1.018599e+06
9.050000e+02 1.051777e+06
9.060000e+02 1.085947e+06
9.070000e+02 1.121130e+06
9.080000e+02 1.157386e+06
9.090000e+02 1.194714e+06
9.100000e+02 1.233151e+06
9.110000e+02 1.272732e+06
9.120000e+02 1.313500e+06
9.130000e+02 1.344730e+06
9.140000e+02 1.408330e+06
9.150000e+02 3.143840e+06
9.160000e+02 7.905950e+06
9.170000e+02 8.451508e+06
9.180000e+02 6.789172e+06
9.190000e+02 1.347719e+07
9.200000e+02 1.659562e+07
9.210000e+02 1.702418e+06
9.220000e+02 1.861151e+07
9.230000e+02 8.779209e+06
9.240000e+02 1.728097e+07
9.250000e+02 2.028457e+07
9.260000e+02 1.279557e+07
9.270000e+02 2.080240e+07
9.280000e+02 2.266866e+07
9.290000e+02 2.031097e+07
9.300000e+02 2.237133e+07
9.310000e+02 1.537633e+07
9.320000e+02 2.481386e+07
9.330000e+02 2.575935e+07
9.340000e+02 2.649259e+07
9.350000e+02 6.499374e+06
9.360000e+02 2.596344e+07
9.370000e+02 5.018568e+06
9.380000e+02 1.230756e+07
9.390000e+02 2.836883e+07
9.400000e+02 3.054434e+07
9.410000e+02 1.329770e+07
9.420000e+02 3.218724e+07
9.430000e+02 3.235368e+07
9.440000e+02 2.314784e+07
9.450000e+02 3.455648e+07
9.460000e+02 3.526889e+07
9.470000e+02 3.017892e+07
9.480000e+02 3.213883e+07
9.490000e+02 3.531295e+07
9.500000e+02 7.410554e+06
9.510000e+02 3.744303e+07
9.520000e+02 4.043302e+07
9.530000e+02 3.759697e+07
9.540000e+02 3.522779e+07
9.550000e+02 4.329511e+07
9.560000e+02 3.867092e+07
9.570000e+02 3.015838e+07
9.580000e+02 3.942044e+07
9.590000e+02 4.815605e+07
9.600000e+02 9.478200e+06
9.610000e+02 5.022056e+07
9.620000e+02 5.089618e+07
9.630000e+02 5.245971e+07
9.640000e+02 6.373560e+06
9.650000e+02 4.882868e+07
9.660000e+02 5.592649e+07
9.670000e+02 5.573823e+07
9.680000e+02 5.377261e+07
9.690000e+02 5.945434e+07
9.700000e+02 6.071851e+07
9.710000e+02 5.923775e+07
9.720000e+02 5.300367e+07
9.730000e+02 5.193412e+07
9.740000e+02 6.551481e+07
9.750000e+02 6.791958e+07
9.760000e+02 7.060538e+07
9.770000e+02 7.214094e+07
9.780000e+02 7.306638e+07
9.790000e+02 7.580474e+07
9.800000e+02 7.750960e+07
9.810000e+02 7.873327e+07
9.820000e+02 7.840880e+07
9.830000e+02 8.274486e+07
9.840000e+02 3.653185e+07
9.850000e+02 8.562179e+07
9.860000e+02 8.712760e+07
9.870000e+02 9.026886e+07
9.880000e+02 8.486701e+07
9.890000e+02 7.240214e+07
9.900000e+02 1.498607e+07
9.910000e+02 9.129682e+07
9.920000e+02 7.603698e+07
9.930000e+02 9.824170e+07
9.940000e+02 1.728286e+07
9.950000e+02 3.174107e+07
9.960000e+02 5.503331e+07
9.970000e+02 2.609716e+07
9.980000e+02 1.137442e+08
9.990000e+02 1.113366e+08
1.000000e+03 1.194067e+08
1.001000e+03 1.220675e+08
1.002000e+03 1.245050e+08
1.003000e+03 1.142541e+08
1.004000e+03 1.226526e+08
1.005000e+03 1.183560e+08
1.006000e+03 1.354149e+08
1.007000e+03 1.382531e+08
1.008000e+03 1.408842e+08
1.009000e+03 1.380216e+08
1.010000e+03 1.469128e+08
1.011000e+03 1.501160e+08
1.012000e+03 1.529516e+08
1.013000e+03 1.559932e+08
1.014000e+03 1.209211e+08
1.015000e+03 1.449098e+08
1.016000e+03 1.602293e+08
1.017000e+03 1.338569e+08
1.018000e+03 1.691749e+08
1.019000e+03 1.609105e+08
1.020000e+03 1.795538e+08
1.021000e+03 1.068901e+08
1.022000e+03 1.658945e+08
1.023000e+03 1.667807e+08
1.024000e+03 1.784720e+08
1.025000e+03 1.182953e+08
1.026000e+03 6.874775e+07
1.027000e+03 1.796047e+08
1.028000e+03 5.360302e+07
1.029000e+03 1.705290e+08
1.030000e+03 2.148664e+08
1.031000e+03 2.177078e+08
1.032000e+03 2.270995e+08
1.033000e+03 1.012604e+08
1.034000e+03 2.370317e+08
1.035000e+03 5.318760e+07
1.036000e+03 1.944756e+08
1.037000e+03 5.131910e+07
1.038000e+03 2.590816e+08
1.039000e+03 2.616117e+08
1.040000e+03 2.688162e+08
1.041000e+03 2.729646e+08
1.042000e+03 2.751185e+08
1.043000e+03 2.759847e+08
1.044000e+03 2.908820e+08
1.045000e+03 2.964570e+08
1.046000e+03 3.031440e+08
1.047000e+03 3.049026e+08
1.048000e+03 2.897900e+08
1.049000e+03 3.144277e+08
1.050000e+03 3.247840e+08
1.051000e+03 3.272555e+08
1.052000e+03 3.397165e+08
1.053000e+03 3.419684e+08
1.054000e+03 2.722454e+08
1.055000e+03 3.591522e+08
1.056000e+03 3.673692e+08
1.057000e+03 3.711632e+08
1.058000e+03 3.783100e+08
1.059000e+03 3.653614e+08
1.060000e+03 3.687038e+08
1.061000e+03 4.007329e+08
1.062000e+03 4.049384e+08
1.063000e+03 1.711352e+08
1.064000e+03 9.381728e+07
1.065000e+03 3.573930e+08
1.066000e+03 3.835402e+08
1.067000e+03 4.105482e+08
1.068000e+03 4.636407e+08
1.069000e+03 3.946295e+08
1.070000e+03 4.721175e+08
1.071000e+03 4.901513e+08
1.072000e+03 4.989112e+08
1.073000e+03 4.340345e+08
1.074000e+03 5.098525e+08
1.075000e+03 5.162356e+08
1.076000e+03 5.367499e+08
1.077000e+03 5.309403e+08
1.078000e+03 5.494365e+08
1.079000e+03 5.610169e+08
1.080000e+03 5.733436e+08
1.081000e+03 5.847827e+08
1.082000e+03 5.957370e+08
1.083000e+03 6.050140e+08
1.084000e+03 6.173820e+08
1.085000e+03 5.091203e+08
1.086000e+03 6.426094e+08
1.087000e+03 6.186735e+08
1.088000e+03 6.642881e+08
1.089000e+03 6.775086e+08
1.090000e+03 6.747802e+08
1.091000e+03 6.839637e+08
1.092000e+03 7.139742e+08
1.093000e+03 7.260802e+08
1.094000e+03 7.372518e+08
1.095000e+03 7.518378e+08
1.096000e+03 7.644577e+08
1.097000e+03 7.716723e+08
1.098000e+03 7.831165e+08
1.099000e+03 8.011878e+08
1.100000e+03 7.562605e+08
1.101000e+03 7.416038e+08
1.102000e+03 1.505859e+09
1.103000e+03 4.702790e+09
1.104000e+03 1.972666e+09
1.105000e+03 8.258104e+08
1.106000e+03 8.013438e+09
1.107000e+03 2.175166e+09
1.108000e+03 9.222306e+09
1.109000e+03 3.899895e+09
1.110000e+03 2.296058e+09
1.111000e+03 1.778138e+09
1.112000e+03 8.393134e+09
1.113000e+03 1.060734e+10
1.114000e+03 6.634560e+08
1.115000e+03 7.002018e+09
1.116000e+03 6.092711e+09
1.117000e+03 7.156275e+08
1.118000e+03 5.161750e+09
1.119000e+03 1.023046e+10
1.120000e+03 6.961129e+09
1.121000e+03 9.640326e+09
1.122000e+03 2.707963e+08
1.123000e+03 1.504095e+09
1.124000e+03 1.152132e+10
1.125000e+03 5.957974e+09
1.126000e+03 1.244530e+10
1.127000e+03 1.204824e+10
1.128000e+03 4.427489e+09
1.129000e+03 1.101368e+10
1.130000e+03 1.078959e+10
1.131000e+03 1.306420e+10
1.132000e+03 7.977595e+08
1.133000e+03 6.549651e+09
1.134000e+03 1.155771e+10
1.135000e+03 4.611036e+08
1.136000e+03 1.003894e+10
1.137000e+03 1.390948e+10
1.138000e+03 1.213357e+10
1.139000e+03 1.396724e+10
1.140000e+03 4.682563e+08
1.141000e+03 1.433043e+10
1.142000e+03 1.447765e+10
1.143000e+03 1.452893e+10
1.144000e+03 1.545651e+10
1.145000e+03 5.933525e+09
1.146000e+03 1.587723e+10
1.147000e+03 1.555001e+10
1.148000e+03 9.664033e+09
1.149000e+03 1.605431e+10
1.150000e+03 1.430722e+10
1.151000e+03 1.674342e+10
1.152000e+03 1.650726e+10
1.153000e+03 5.399927e+09
1.154000e+03 1.696894e+09
1.155000e+03 1.471194e+10
1.156000e+03 5.350249e+09
1.157000e+03 1.799412e+10
1.158000e+03 6.946811e+08
1.159000e+03 1.539452e+10
1.160000e+03 1.523658e+10
1.161000e+03 1.867305e+10
1.162000e+03 4.223874e+09
1.163000e+03 1.502627e+10
1.164000e+03 8.912835e+08
1.165000e+03 1.968235e+10
1.166000e+03 1.912530e+10
1.167000e+03 1.824842e+10
1.168000e+03 2.062092e+10
1.169000e+03 2.045266e+10
1.170000e+03 2.064026e+10
1.171000e+03 2.063854e+10
1.172000e+03 1.731865e+10
1.173000e+03 2.185609e+10
1.174000e+03 1.287749e+10
1.175000e+03 1.006219e+09
1.176000e+03 8.715960e+08
1.177000e+03 2.298468e+10
1.178000e+03 2.174677e+10
1.179000e+03 2.339540e+10
1.180000e+03 1.607871e+10
1.181000e+03 2.396822e+10
1.182000e+03 2.393999e+10
1.183000e+03 2.366834e+10
1.184000e+03 2.350554e+10
1.185000e+03 2.412275e+10
1.186000e+03 2.092408e+10
1.187000e+03 2.480006e+10
1.188000e+03 2.158210e+10
1.189000e+03 1.083218e+09
1.190000e+03 4.750965e+09
1.191000e+03 2.463128e+10
1.192000e+03 2.579414e+10
1.193000e+03 9.984430e+08
1.194000e+03 1.224657e+09
1.195000e+03 1.767305e+10
1.196000e+03 2.569301e+10
1.197000e+03 3.423902e+10
1.198000e+03 2.989510e+10
1.199000e+03 3.367977e+10
1.200000e+03 2.696326e+10
1.201000e+03 3.170041e+10
1.202000e+03 2.844634e+10
1.203000e+03 3.508083e+10
1.204000e+03 2.576249e+10
1.205000e+03 2.985606e+10
1.206000e+03 2.591557e+10
1.207000e+03 6.652344e+09
1.208000e+03 2.172687e+10
1.209000e+03 1.700093e+10
1.210000e+03 1.631730e+09
1.211000e+03 1.066371e+10
1.212000e+03 7.262099e+09
1.213000e+03 4.694159e+09
1.214000e+03 2.764483e+09
1.215000e+03 1.704070e+09
1.216000e+03 1.534953e+09
1.217000e+03 2.407246e+09
1.218000e+03 4.232770e+09
1.219000e+03 7.088137e+09
1.220000e+03 1.050668e+10
1.221000e+03 1.520957e+10
1.222000e+03 1.978790e+10
1.223000e+03 2.500436e+10
1.224000e+03 3.042232e+10
1.225000e+03 2.964402e+10
1.226000e+03 4.045160e+10
1.227000e+03 4.510201e+10
1.228000e+03 4.443215e+10
1.229000e+03 5.205205e+10
1.230000e+03 5.326102e+10
1.231000e+03 5.355880e+10
1.232000e+03 6.806586e+10
1.233000e+03 7.235895e+10
1.234000e+03 5.171866e+10
1.235000e+03 7.859376e+10
1.236000e+03 6.441267e+10
1.237000e+03 8.527730e+10
1.238000e+03 8.328320e+10
1.239000e+03 8.672376e+10
1.240000e+03 8.403589e+10
1.241000e+03 1.246581e+11
1.242000e+03 7.808305e+10
1.243000e+03 1.198569e+11
1.244000e+03 5.062894e+10
1.245000e+03 7.379924e+10
1.246000e+03 1.846407e+11
1.247000e+03 1.816273e+11
1.248000e+03 5.280681e+10
1.249000e+03 6.753980e+10
1.250000e+03 2.164773e+11
1.251000e+03 2.414906e+11
1.252000e+03 2.226079e+11
1.253000e+03 2.447148e+11
1.254000e+03 2.235599e+11
1.255000e+03 2.618309e+11
1.256000e+03 2.361229e+11
1.257000e+03 2.644188e+11
1.258000e+03 2.050938e+11
1.259000e+03 2.453690e+11
1.260000e+03 2.468642e+11
1.261000e+03 3.137923e+09
1.262000e+03 3.002730e+10
1.263000e+03 2.919433e+11
1.264000e+03 2.190927e+11
1.265000e+03 3.189809e+09
1.266000e+03 2.817208e+11
1.267000e+03 2.536619e+11
