# wavelength_A flux
5.000000e+02 2.276050e-01
5.010000e+02 2.500929e-01
5.020000e+02 2.746832e-01
5.030000e+02 3.015783e-01
5.040000e+02 3.309850e-01
5.050000e+02 3.462660e-01
5.060000e+02 3.797761e-01
5.070000e+02 4.163700e-01
5.080000e+02 4.563165e-01
5.090000e+02 5.001339e-01
5.100000e+02 5.474150e-01
5.110000e+02 5.992586e-01
5.120000e+02 6.557690e-01
5.130000e+02 7.173437e-01
5.140000e+02 7.844003e-01
5.150000e+02 8.574298e-01
5.160000e+02 9.369115e-01
5.170000e+02 1.023414e+00
5.180000e+02 1.117462e+00
5.190000e+02 1.219742e+00
5.200000e+02 1.330914e+00
5.210000e+02 1.451711e+00
5.220000e+02 1.583178e+00
5.230000e+02 1.725380e+00
5.240000e+02 1.880017e+00
5.250000e+02 2.047773e+00
5.260000e+02 2.229623e+00
5.270000e+02 2.426954e+00
5.280000e+02 2.640858e+00
5.290000e+02 2.873009e+00
5.300000e+02 3.123747e+00
5.310000e+02 3.395658e+00
5.320000e+02 3.690003e+00
5.330000e+02 4.008503e+00
5.340000e+02 4.353151e+00
5.350000e+02 4.725899e+00
5.360000e+02 5.128958e+00
5.370000e+02 5.714294e+00
5.380000e+02 6.035293e+00
5.390000e+02 6.543587e+00
5.400000e+02 7.092452e+00
5.410000e+02 7.685410e+00
5.420000e+02 8.324613e+00
5.430000e+02 9.014498e+00
5.440000e+02 9.758613e+00
5.450000e+02 1.056092e+01
5.460000e+02 1.142699e+01
5.470000e+02 1.235753e+01
5.480000e+02 1.336177e+01
5.490000e+02 1.444235e+01
5.500000e+02 1.560616e+01
5.510000e+02 1.685846e+01
5.520000e+02 1.820620e+01
5.530000e+02 1.965588e+01
5.540000e+02 2.121339e+01
5.550000e+02 2.288924e+01
5.560000e+02 2.469034e+01
5.570000e+02 2.662552e+01
5.580000e+02 2.870419e+01
5.590000e+02 3.093635e+01
5.600000e+02 3.333269e+01
5.610000e+02 3.590456e+01
5.620000e+02 3.866404e+01
5.630000e+02 4.162395e+01
5.640000e+02 4.479842e+01
5.650000e+02 4.820151e+01
5.660000e+02 5.184889e+01
5.670000e+02 5.575608e+01
5.680000e+02 5.994257e+01
5.690000e+02 6.442615e+01
5.700000e+02 6.922671e+01
5.710000e+02 7.436488e+01
5.720000e+02 7.986432e+01
5.730000e+02 8.574599e+01
5.740000e+02 9.203775e+01
5.750000e+02 9.876220e+01
5.760000e+02 1.059704e+02
5.770000e+02 1.136329e+02
5.780000e+02 1.218449e+02
5.790000e+02 1.306171e+02
5.800000e+02 1.399755e+02
5.810000e+02 1.499773e+02
5.820000e+02 1.606539e+02
5.830000e+02 1.720480e+02
5.840000e+02 1.843160e+02
5.850000e+02 1.971923e+02
5.860000e+02 2.109904e+02
5.870000e+02 2.257280e+02
5.880000e+02 2.414356e+02
5.890000e+02 2.581790e+02
5.900000e+02 2.760123e+02
5.910000e+02 2.950082e+02
5.920000e+02 3.152372e+02
5.930000e+02 3.367737e+02
5.940000e+02 3.596965e+02
5.950000e+02 3.841326e+02
5.960000e+02 4.100406e+02
5.970000e+02 4.376440e+02
5.980000e+02 4.669975e+02
5.990000e+02 4.981932e+02
6.000000e+02 5.313645e+02
6.010000e+02 5.666190e+02
6.020000e+02 6.040677e+02
6.030000e+02 6.438034e+02
6.040000e+02 6.860493e+02
6.050000e+02 7.309031e+02
6.060000e+02 7.785229e+02
6.070000e+02 8.290552e+02
6.080000e+02 8.826775e+02
6.090000e+02 9.395599e+02
6.100000e+02 9.998906e+02
6.110000e+02 1.063865e+03
6.120000e+02 1.131688e+03
6.130000e+02 1.203551e+03
6.140000e+02 1.279736e+03
6.150000e+02 1.360447e+03
6.160000e+02 1.445948e+03
6.170000e+02 1.536500e+03
6.180000e+02 1.632381e+03
6.190000e+02 1.733885e+03
6.200000e+02 1.841320e+03
6.210000e+02 1.955008e+03
6.220000e+02 2.075291e+03
6.230000e+02 2.202523e+03
6.240000e+02 2.337082e+03
6.250000e+02 2.479175e+03
6.260000e+02 2.629576e+03
6.270000e+02 2.788512e+03
6.280000e+02 2.956499e+03
6.290000e+02 3.133986e+03
6.300000e+02 3.321471e+03
6.310000e+02 3.519463e+03
6.320000e+02 3.728562e+03
6.330000e+02 3.949305e+03
6.340000e+02 4.182311e+03
6.350000e+02 4.428215e+03
6.360000e+02 4.708328e+03
6.370000e+02 4.961383e+03
6.380000e+02 5.250086e+03
6.390000e+02 5.554541e+03
6.400000e+02 5.875546e+03
6.410000e+02 6.213945e+03
6.420000e+02 6.570617e+03
6.430000e+02 6.946447e+03
6.440000e+02 7.342480e+03
6.450000e+02 7.759672e+03
6.460000e+02 8.198340e+03
6.470000e+02 8.661062e+03
6.480000e+02 9.148036e+03
6.490000e+02 9.660735e+03
6.500000e+02 1.020035e+04
6.510000e+02 1.076820e+04
6.520000e+02 1.136563e+04
6.530000e+02 1.199410e+04
6.540000e+02 1.265426e+04
6.550000e+02 1.334930e+04
6.560000e+02 1.408006e+04
6.570000e+02 1.484851e+04
6.580000e+02 1.565566e+04
6.590000e+02 1.650402e+04
6.600000e+02 1.739545e+04
6.610000e+02 1.833195e+04
6.620000e+02 1.931559e+04
6.630000e+02 2.034865e+04
6.640000e+02 2.143324e+04
6.650000e+02 2.257198e+04
6.660000e+02 2.376528e+04
6.670000e+02 2.501956e+04
6.680000e+02 2.633570e+04
6.690000e+02 2.771653e+04
6.700000e+02 2.916508e+04
6.710000e+02 3.068502e+04
6.720000e+02 3.266833e+04
6.730000e+02 3.394759e+04
6.740000e+02 3.569864e+04
6.750000e+02 3.753402e+04
6.760000e+02 3.945750e+04
6.770000e+02 4.147299e+04
6.780000e+02 4.358456e+04
6.790000e+02 4.579647e+04
6.800000e+02 4.811313e+04
6.810000e+02 5.053912e+04
6.820000e+02 5.307925e+04
6.830000e+02 5.573841e+04
6.840000e+02 5.852186e+04
6.850000e+02 6.142997e+04
6.860000e+02 6.447795e+04
6.870000e+02 6.766896e+04
6.880000e+02 7.100530e+04
6.890000e+02 7.449526e+04
6.900000e+02 7.814462e+04
6.910000e+02 8.196003e+04
6.920000e+02 8.594958e+04
6.930000e+02 9.012008e+04
6.940000e+02 9.447909e+04
6.950000e+02 9.903492e+04
6.960000e+02 1.037946e+05
6.970000e+02 1.087722e+05
6.980000e+02 1.139625e+05
6.990000e+02 1.193884e+05
7.000000e+02 1.250547e+05
7.010000e+02 1.309714e+05
7.020000e+02 1.371486e+05
7.030000e+02 1.435849e+05
7.040000e+02 1.503147e+05
7.050000e+02 1.573380e+05
7.060000e+02 1.646667e+05
7.070000e+02 1.723126e+05
7.080000e+02 1.802887e+05
7.090000e+02 1.886097e+05
7.100000e+02 1.972859e+05
7.110000e+02 2.063335e+05
7.120000e+02 2.157668e+05
7.130000e+02 2.256008e+05
7.140000e+02 2.358505e+05
7.150000e+02 2.465338e+05
7.160000e+02 2.576668e+05
7.170000e+02 2.692505e+05
7.180000e+02 2.813428e+05
7.190000e+02 2.939207e+05
7.200000e+02 3.070054e+05
7.210000e+02 3.206583e+05
7.220000e+02 3.348750e+05
7.230000e+02 3.496762e+05
7.240000e+02 3.650851e+05
7.250000e+02 3.811242e+05
7.260000e+02 3.978166e+05
7.270000e+02 4.151879e+05
7.280000e+02 4.332628e+05
7.290000e+02 4.520673e+05
7.300000e+02 4.723441e+05
7.310000e+02 4.919760e+05
7.320000e+02 5.134235e+05
7.330000e+02 5.351415e+05
7.340000e+02 5.580207e+05
7.350000e+02 5.818376e+05
7.360000e+02 6.065346e+05
7.370000e+02 6.322034e+05
7.380000e+02 6.589078e+05
7.390000e+02 6.866601e+05
7.400000e+02 7.154972e+05
7.410000e+02 7.454516e+05
7.420000e+02 7.765718e+05
7.430000e+02 8.088906e+05
7.440000e+02 8.424571e+05
7.450000e+02 8.773119e+05
7.460000e+02 9.135026e+05
7.470000e+02 9.510811e+05
7.480000e+02 9.900777e+05
7.490000e+02 1.030560e+06
7.500000e+02 1.072590e+06
7.510000e+02 1.116172e+06
7.520000e+02 1.161410e+06
7.530000e+02 1.208342e+06
7.540000e+02 1.257031e+06
7.550000e+02 1.307515e+06
7.560000e+02 1.359885e+06
7.570000e+02 1.414223e+06
7.580000e+02 1.470519e+06
7.590000e+02 1.528925e+06
7.600000e+02 1.589447e+06
7.610000e+02 1.652184e+06
7.620000e+02 1.717218e+06
7.630000e+02 1.784619e+06
7.640000e+02 1.854464e+06
7.650000e+02 1.926848e+06
7.660000e+02 2.001823e+06
7.670000e+02 2.079491e+06
7.680000e+02 2.159975e+06
7.690000e+02 2.243264e+06
7.700000e+02 2.329552e+06
7.710000e+02 2.418905e+06
7.720000e+02 2.511243e+06
7.730000e+02 2.607043e+06
7.740000e+02 2.706182e+06
7.750000e+02 2.808800e+06
7.760000e+02 2.915307e+06
7.770000e+02 3.024914e+06
7.780000e+02 3.138640e+06
7.790000e+02 3.256310e+06
7.800000e+02 3.378044e+06
7.810000e+02 3.503972e+06
7.820000e+02 3.634226e+06
7.830000e+02 3.768927e+06
7.840000e+02 3.908234e+06
7.850000e+02 4.052290e+06
7.860000e+02 4.201238e+06
7.870000e+02 4.355212e+06
7.880000e+02 4.514396e+06
7.890000e+02 4.678935e+06
7.900000e+02 4.849020e+06
7.910000e+02 5.024744e+06
7.920000e+02 5.206348e+06
7.930000e+02 5.393995e+06
7.940000e+02 5.587874e+06
7.950000e+02 5.788144e+06
7.960000e+02 5.995024e+06
7.970000e+02 6.208702e+06
7.980000e+02 6.429408e+06
7.990000e+02 6.657283e+06
8.000000e+02 6.892602e+06
8.010000e+02 7.135574e+06
8.020000e+02 7.386397e+06
8.030000e+02 7.645356e+06
8.040000e+02 7.912568e+06
8.050000e+02 8.188425e+06
8.060000e+02 8.473112e+06
8.070000e+02 8.766891e+06
8.080000e+02 9.070022e+06
8.090000e+02 9.382776e+06
8.100000e+02 9.705434e+06
8.110000e+02 1.003829e+07
8.120000e+02 1.038163e+07
8.130000e+02 1.073566e+07
8.140000e+02 1.110083e+07
8.150000e+02 1.147763e+07
8.160000e+02 1.186577e+07
8.170000e+02 1.226614e+07
8.180000e+02 1.267881e+07
8.190000e+02 1.310426e+07
8.200000e+02 1.354279e+07
8.210000e+02 1.399477e+07
8.220000e+02 1.445953e+07
8.230000e+02 1.493958e+07
8.240000e+02 1.543401e+07
8.250000e+02 1.594359e+07
8.260000e+02 1.646858e+07
8.270000e+02 1.700940e+07
8.280000e+02 1.756650e+07
8.290000e+02 1.814029e+07
8.300000e+02 1.873124e+07
8.310000e+02 1.933982e+07
8.320000e+02 1.996650e+07
8.330000e+02 2.061184e+07
8.340000e+02 2.127614e+07
8.350000e+02 2.196307e+07
8.360000e+02 2.266461e+07
8.370000e+02 2.338880e+07
8.380000e+02 2.413465e+07
8.390000e+02 2.490223e+07
8.400000e+02 2.569217e+07
8.410000e+02 2.650510e+07
8.420000e+02 2.734661e+07
8.430000e+02 2.820201e+07
8.440000e+02 2.908721e+07
8.450000e+02 2.999782e+07
8.460000e+02 3.093467e+07
8.470000e+02 3.189796e+07
8.480000e+02 3.288881e+07
8.490000e+02 3.390759e+07
8.500000e+02 3.495527e+07
8.510000e+02 3.603251e+07
8.520000e+02 3.714023e+07
8.530000e+02 3.827892e+07
8.540000e+02 3.944900e+07
8.550000e+02 4.065210e+07
8.560000e+02 4.188867e+07
8.570000e+02 4.315955e+07
8.580000e+02 4.446566e+07
8.590000e+02 4.580769e+07
8.600000e+02 4.718711e+07
8.610000e+02 4.860398e+07
8.620000e+02 5.005968e+07
8.630000e+02 5.155514e+07
8.640000e+02 5.309116e+07
8.650000e+02 5.466901e+07
8.660000e+02 5.628942e+07
8.670000e+02 5.794935e+07
8.680000e+02 5.965828e+07
8.690000e+02 6.141310e+07
8.700000e+02 6.321578e+07
8.710000e+02 6.506484e+07
8.720000e+02 6.696406e+07
8.730000e+02 6.891374e+07
8.740000e+02 7.091505e+07
8.750000e+02 7.296926e+07
8.760000e+02 7.507762e+07
8.770000e+02 7.724142e+07
8.780000e+02 7.946178e+07
8.790000e+02 8.174026e+07
8.800000e+02 8.407822e+07
8.810000e+02 8.647684e+07
8.820000e+02 8.893778e+07
8.830000e+02 9.146223e+07
8.840000e+02 9.405186e+07
8.850000e+02 9.670826e+07
8.860000e+02 9.943510e+07
8.870000e+02 1.022281e+08
8.880000e+02 1.050935e+08
8.890000e+02 1.080319e+08
8.900000e+02 1.110448e+08
8.910000e+02 1.141340e+08
8.920000e+02 1.182097e+08
8.930000e+02 1.205483e+08
8.940000e+02 1.238769e+08
8.950000e+02 1.272896e+08
8.960000e+02 1.307858e+08
8.970000e+02 1.343702e+08
8.980000e+02 1.380435e+08
8.990000e+02 1.418080e+08
9.000000e+02 1.456655e+08
9.010000e+02 1.496195e+08
9.020000e+02 1.536694e+08
9.030000e+02 1.578186e+08
9.040000e+02 1.620833e+08
9.050000e+02 1.664239e+08
9.060000e+02 1.708840e+08
9.070000e+02 1.754493e+08
9.080000e+02 1.801183e+08
9.090000e+02 1.849101e+08
9.100000e+02 1.898173e+08
9.110000e+02 1.948421e+08
9.120000e+02 1.999853e+08
9.130000e+02 2.069239e+08
9.140000e+02 2.102150e+08
9.150000e+02 3.328241e+08
9.160000e+02 8.210402e+08
9.170000e+02 9.614272e+08
9.180000e+02 7.260042e+08
9.190000e+02 1.949939e+09
9.200000e+02 3.165782e+09
9.210000e+02 2.683451e+08
9.220000e+02 4.266260e+09
9.230000e+02 9.381502e+08
9.240000e+02 3.174095e+09
9.250000e+02 5.167250e+09
9.260000e+02 1.502844e+09
9.270000e+02 4.593147e+09
9.280000e+02 6.316361e+09
9.290000e+02 4.520948e+09
9.300000e+02 4.726533e+09
9.310000e+02 1.858331e+09
9.320000e+02 6.416467e+09
9.330000e+02 7.339876e+09
9.340000e+02 7.746893e+09
9.350000e+02 2.681384e+09
9.360000e+02 7.571696e+09
9.370000e+02 1.694019e+09
9.380000e+02 1.548818e+09
9.390000e+02 7.200706e+09
9.400000e+02 8.492184e+09
9.410000e+02 5.884141e+09
9.420000e+02 9.172286e+09
9.430000e+02 9.371624e+09
9.440000e+02 4.585167e+09
9.450000e+02 9.667571e+09
9.460000e+02 9.820893e+09
9.470000e+02 6.579480e+09
9.480000e+02 9.186158e+09
9.490000e+02 6.710417e+09
9.500000e+02 1.757632e+09
9.510000e+02 8.244310e+09
9.520000e+02 1.056761e+10
9.530000e+02 1.104109e+10
9.540000e+02 8.552631e+09
9.550000e+02 1.169153e+10
9.560000e+02 1.168600e+10
9.570000e+02 9.904238e+09
9.580000e+02 1.223068e+10
9.590000e+02 1.264689e+10
9.600000e+02 2.762387e+09
9.610000e+02 1.313860e+10
9.620000e+02 1.308602e+10
9.630000e+02 1.359197e+10
9.640000e+02 7.243213e+08
9.650000e+02 1.208569e+10
9.660000e+02 1.426596e+10
9.670000e+02 1.441627e+10
9.680000e+02 1.429148e+10
9.690000e+02 1.462697e+10
9.700000e+02 1.459890e+10
9.710000e+02 1.352666e+10
9.720000e+02 7.479359e+09
9.730000e+02 6.741956e+09
9.740000e+02 1.398003e+10
9.750000e+02 1.583268e+10
9.760000e+02 1.659203e+10
9.770000e+02 1.701522e+10
9.780000e+02 1.736866e+10
9.790000e+02 1.774254e+10
9.800000e+02 1.807271e+10
9.810000e+02 1.839160e+10
9.820000e+02 1.823804e+10
9.830000e+02 1.900623e+10
9.840000e+02 4.628628e+09
9.850000e+02 1.966534e+10
9.860000e+02 1.998453e+10
9.870000e+02 2.023882e+10
9.880000e+02 2.010324e+10
9.890000e+02 9.974564e+09
9.900000e+02 1.485460e+09
9.910000e+02 2.137730e+10
9.920000e+02 2.020497e+10
9.930000e+02 2.075051e+10
9.940000e+02 2.750431e+09
9.950000e+02 3.114615e+09
9.960000e+02 3.039644e+09
9.970000e+02 3.873153e+09
9.980000e+02 2.410845e+10
9.990000e+02 2.377251e+10
1.000000e+03 2.500750e+10
1.001000e+03 2.541649e+10
1.002000e+03 2.577456e+10
1.003000e+03 1.848934e+10
1.004000e+03 2.663177e+10
1.005000e+03 2.090690e+10
1.006000e+03 2.746318e+10
1.007000e+03 2.789035e+10
1.008000e+03 2.827859e+10
1.009000e+03 2.540094e+10
1.010000e+03 2.918063e+10
1.011000e+03 2.962500e+10
1.012000e+03 3.002597e+10
1.013000e+03 3.050722e+10
1.014000e+03 3.096919e+10
1.015000e+03 3.001665e+10
1.016000e+03 3.175201e+10
1.017000e+03 3.228566e+10
1.018000e+03 3.269337e+10
1.019000e+03 3.308879e+10
1.020000e+03 3.338173e+10
1.021000e+03 2.725948e+10
1.022000e+03 3.273119e+10
1.023000e+03 3.287140e+10
1.024000e+03 2.913274e+10
1.025000e+03 1.609118e+10
1.026000e+03 6.045627e+09
1.027000e+03 2.624460e+10
1.028000e+03 1.033677e+10
1.029000e+03 3.709580e+10
1.030000e+03 3.713441e+10
1.031000e+03 3.976058e+10
1.032000e+03 3.924520e+10
1.033000e+03 2.324434e+10
1.034000e+03 4.217292e+10
1.035000e+03 8.370622e+09
1.036000e+03 4.268209e+10
1.037000e+03 3.557712e+09
1.038000e+03 4.488510e+10
1.039000e+03 4.445816e+10
1.040000e+03 4.631260e+10
1.041000e+03 4.681130e+10
1.042000e+03 4.156350e+10
1.043000e+03 4.771591e+10
1.044000e+03 4.830932e+10
1.045000e+03 4.969827e+10
1.046000e+03 5.049094e+10
1.047000e+03 5.122055e+10
1.048000e+03 4.996616e+10
1.049000e+03 5.214867e+10
1.050000e+03 5.358573e+10
1.051000e+03 5.435500e+10
1.052000e+03 5.512283e+10
1.053000e+03 5.147253e+10
1.054000e+03 5.666652e+10
1.055000e+03 5.748233e+10
1.056000e+03 5.832514e+10
1.057000e+03 5.901633e+10
1.058000e+03 5.990846e+10
1.059000e+03 6.079552e+10
1.060000e+03 6.166258e+10
1.061000e+03 6.252840e+10
1.062000e+03 6.338870e+10
1.063000e+03 4.072111e+10
1.064000e+03 1.110760e+10
1.065000e+03 6.887457e+10
1.066000e+03 6.785039e+10
1.067000e+03 5.812080e+10
1.068000e+03 7.187985e+10
1.069000e+03 7.288379e+10
1.070000e+03 6.799093e+10
1.071000e+03 7.504430e+10
1.072000e+03 7.600915e+10
1.073000e+03 7.709934e+10
1.074000e+03 7.808643e+10
1.075000e+03 7.891757e+10
1.076000e+03 8.023928e+10
1.077000e+03 8.098492e+10
1.078000e+03 8.233850e+10
1.079000e+03 8.271215e+10
1.080000e+03 8.415883e+10
1.081000e+03 8.576983e+10
1.082000e+03 8.684546e+10
1.083000e+03 8.794535e+10
1.084000e+03 4.736207e+10
1.085000e+03 7.194270e+10
1.086000e+03 9.161417e+10
1.087000e+03 9.266410e+10
1.088000e+03 9.351817e+10
1.089000e+03 9.502360e+10
1.090000e+03 9.602421e+10
1.091000e+03 9.773823e+10
1.092000e+03 9.899984e+10
1.093000e+03 1.001541e+11
1.094000e+03 1.016072e+11
1.095000e+03 1.022878e+11
1.096000e+03 1.041463e+11
1.097000e+03 1.043582e+11
1.098000e+03 1.017084e+11
1.099000e+03 1.078275e+11
1.100000e+03 1.074569e+11
1.101000e+03 1.018595e+11
1.102000e+03 2.052641e+11
1.103000e+03 5.018841e+11
1.104000e+03 2.319415e+11
1.105000e+03 1.075739e+11
1.106000e+03 8.979760e+11
1.107000e+03 8.749348e+11
1.108000e+03 9.184760e+11
1.109000e+03 4.841272e+11
1.110000e+03 1.197113e+11
1.111000e+03 2.199676e+11
1.112000e+03 8.465402e+11
1.113000e+03 9.653135e+11
1.114000e+03 8.046123e+10
1.115000e+03 9.498795e+11
1.116000e+03 9.819589e+11
1.117000e+03 8.623365e+10
1.118000e+03 8.506128e+11
1.119000e+03 1.005072e+12
1.120000e+03 1.022948e+12
1.121000e+03 6.387651e+11
1.122000e+03 1.732923e+10
1.123000e+03 1.780153e+11
1.124000e+03 1.048205e+12
1.125000e+03 3.587056e+11
1.126000e+03 1.076038e+12
1.127000e+03 1.043817e+12
1.128000e+03 5.145287e+11
1.129000e+03 1.093943e+12
1.130000e+03 6.372655e+11
1.131000e+03 1.140311e+12
1.132000e+03 4.767102e+10
1.133000e+03 1.076392e+12
1.134000e+03 1.138619e+12
1.135000e+03 2.690843e+10
1.136000e+03 1.127660e+12
1.137000e+03 1.209143e+12
1.138000e+03 1.231312e+12
1.139000e+03 1.214966e+12
1.140000e+03 3.509099e+10
1.141000e+03 1.266637e+12
1.142000e+03 1.040073e+12
1.143000e+03 1.280171e+12
1.144000e+03 1.297356e+12
1.145000e+03 1.064102e+12
1.146000e+03 1.303945e+12
1.147000e+03 1.311638e+12
1.148000e+03 1.328846e+12
1.149000e+03 1.357516e+12
1.150000e+03 1.228311e+12
1.151000e+03 1.370949e+12
1.152000e+03 1.350752e+12
1.153000e+03 2.993725e+11
1.154000e+03 6.486688e+10
1.155000e+03 1.148578e+12
1.156000e+03 5.129878e+11
1.157000e+03 1.452126e+12
1.158000e+03 5.151947e+10
1.159000e+03 1.273423e+12
1.160000e+03 1.445500e+12
1.161000e+03 1.513854e+12
1.162000e+03 1.646916e+11
1.163000e+03 1.358316e+12
1.164000e+03 9.404734e+10
1.165000e+03 1.563896e+12
1.166000e+03 1.509355e+12
1.167000e+03 1.264534e+12
1.168000e+03 1.602387e+12
1.169000e+03 1.566851e+12
1.170000e+03 1.633429e+12
1.171000e+03 1.646265e+12
1.172000e+03 1.413438e+12
1.173000e+03 1.657982e+12
1.174000e+03 1.577599e+12
1.175000e+03 9.259490e+10
1.176000e+03 6.257980e+10
1.177000e+03 1.634880e+12
1.178000e+03 1.379796e+12
1.179000e+03 1.724337e+12
1.180000e+03 1.192532e+12
1.181000e+03 1.655989e+12
1.182000e+03 1.762908e+12
1.183000e+03 1.765978e+12
1.184000e+03 1.777297e+12
1.185000e+03 1.584752e+12
1.186000e+03 1.783377e+12
1.187000e+03 1.788123e+12
1.188000e+03 1.556945e+12
1.189000e+03 6.461083e+10
1.190000e+03 4.174222e+11
1.191000e+03 1.713508e+12
1.192000e+03 1.734222e+12
1.193000e+03 4.846125e+10
1.194000e+03 7.419881e+10
1.195000e+03 6.810740e+11
1.196000e+03 1.679700e+12
1.197000e+03 1.712289e+12
1.198000e+03 1.751605e+12
1.199000e+03 1.699197e+12
1.200000e+03 1.527003e+12
1.201000e+03 1.572169e+12
1.202000e+03 1.538626e+12
1.203000e+03 1.521309e+12
1.204000e+03 1.381708e+12
1.205000e+03 1.301510e+12
1.206000e+03 8.585512e+11
1.207000e+03 6.666460e+11
1.208000e+03 9.010632e+11
1.209000e+03 6.759219e+11
1.210000e+03 1.088312e+11
1.211000e+03 4.472398e+11
1.212000e+03 3.110023e+11
1.213000e+03 1.998002e+11
1.214000e+03 1.188943e+11
1.215000e+03 7.292603e+10
1.216000e+03 6.526026e+10
1.217000e+03 1.028112e+11
1.218000e+03 1.783527e+11
1.219000e+03 2.933684e+11
1.220000e+03 4.416701e+11
1.221000e+03 6.138429e+11
1.222000e+03 8.014614e+11
1.223000e+03 9.966800e+11
1.224000e+03 1.193102e+12
1.225000e+03 1.385685e+12
1.226000e+03 1.546413e+12
1.227000e+03 1.748400e+12
1.228000e+03 1.940256e+12
1.229000e+03 2.081370e+12
1.230000e+03 2.241379e+12
1.231000e+03 2.415390e+12
1.232000e+03 2.562661e+12
1.233000e+03 2.699351e+12
1.234000e+03 1.911353e+12
1.235000e+03 2.926592e+12
1.236000e+03 3.064358e+12
1.237000e+03 3.155676e+12
1.238000e+03 3.273735e+12
1.239000e+03 3.378246e+12
1.240000e+03 3.199855e+12
1.241000e+03 5.116270e+12
1.242000e+03 3.120801e+12
1.243000e+03 4.288768e+12
1.244000e+03 2.013461e+12
1.245000e+03 2.905507e+12
1.246000e+03 6.796026e+12
1.247000e+03 7.502167e+12
1.248000e+03 2.182164e+12
1.249000e+03 2.651579e+12
1.250000e+03 8.422677e+12
1.251000e+03 8.399299e+12
1.252000e+03 8.106583e+12
1.253000e+03 9.433701e+12
1.254000e+03 9.611854e+12
1.255000e+03 9.524051e+12
1.256000e+03 9.638457e+12
1.257000e+03 1.053544e+13
1.258000e+03 1.049798e+13
1.259000e+03 1.000580e+13
1.260000e+03 8.734308e+12
1.261000e+03 1.299779e+11
1.262000e+03 1.341925e+12
1.263000e+03 1.173003e+13
1.264000e+03 1.048126e+13
1.265000e+03 1.197783e+11
1.266000e+03 1.234404e+13
1.267000e+03 1.335783e+13
