# wavelength_A flux
5.000000e+02 1.395840e-13
5.010000e+02 1.622235e-13
5.020000e+02 1.884186e-13
5.030000e+02 2.187092e-13
5.040000e+02 2.537145e-13
5.050000e+02 3.013414e-13
5.060000e+02 3.490921e-13
5.070000e+02 4.041678e-13
5.080000e+02 4.676547e-13
5.090000e+02 5.408009e-13
5.100000e+02 6.250121e-13
5.110000e+02 7.219172e-13
5.120000e+02 8.333617e-13
5.130000e+02 9.614553e-13
5.140000e+02 1.108602e-12
5.150000e+02 1.277525e-12
5.160000e+02 1.471387e-12
5.170000e+02 1.693626e-12
5.180000e+02 1.948494e-12
5.190000e+02 2.240378e-12
5.200000e+02 2.574561e-12
5.210000e+02 2.956958e-12
5.220000e+02 3.393928e-12
5.230000e+02 3.894190e-12
5.240000e+02 4.465308e-12
5.250000e+02 5.117461e-12
5.260000e+02 5.861686e-12
5.270000e+02 6.710573e-12
5.280000e+02 7.678334e-12
5.290000e+02 8.778945e-12
5.300000e+02 1.003686e-11
5.310000e+02 1.146633e-11
5.320000e+02 1.309264e-11
5.330000e+02 1.494191e-11
5.340000e+02 1.704365e-11
5.350000e+02 1.943113e-11
5.360000e+02 2.214172e-11
5.370000e+02 2.491172e-11
5.380000e+02 2.870689e-11
5.390000e+02 3.266300e-11
5.400000e+02 3.714608e-11
5.410000e+02 4.222015e-11
5.420000e+02 4.797046e-11
5.430000e+02 5.447441e-11
5.440000e+02 6.182981e-11
5.450000e+02 7.014466e-11
5.460000e+02 7.952585e-11
5.470000e+02 9.015024e-11
5.480000e+02 1.021278e-10
5.490000e+02 1.156428e-10
5.500000e+02 1.308848e-10
5.510000e+02 1.480671e-10
5.520000e+02 1.674275e-10
5.530000e+02 1.892325e-10
5.540000e+02 2.137795e-10
5.550000e+02 2.414010e-10
5.560000e+02 2.724681e-10
5.570000e+02 3.073951e-10
5.580000e+02 3.466443e-10
5.590000e+02 3.907312e-10
5.600000e+02 4.402303e-10
5.610000e+02 4.957819e-10
5.620000e+02 5.580992e-10
5.630000e+02 6.279761e-10
5.640000e+02 7.062961e-10
5.650000e+02 7.940406e-10
5.660000e+02 8.923068e-10
5.670000e+02 1.002305e-09
5.680000e+02 1.125386e-09
5.690000e+02 1.263049e-09
5.700000e+02 1.416956e-09
5.710000e+02 1.588957e-09
5.720000e+02 1.781097e-09
5.730000e+02 1.995647e-09
5.740000e+02 2.235124e-09
5.750000e+02 2.502354e-09
5.760000e+02 2.800020e-09
5.770000e+02 3.132575e-09
5.780000e+02 3.502802e-09
5.790000e+02 3.915218e-09
5.800000e+02 4.374451e-09
5.810000e+02 4.885612e-09
5.820000e+02 5.454347e-09
5.830000e+02 6.086849e-09
5.840000e+02 6.788283e-09
5.850000e+02 7.571337e-09
5.860000e+02 8.440137e-09
5.870000e+02 9.404511e-09
5.880000e+02 1.047503e-08
5.890000e+02 1.166279e-08
5.900000e+02 1.298071e-08
5.910000e+02 1.444190e-08
5.920000e+02 1.606160e-08
5.930000e+02 1.785629e-08
5.940000e+02 1.984417e-08
5.950000e+02 2.204498e-08
5.960000e+02 2.448149e-08
5.970000e+02 2.717706e-08
5.980000e+02 3.015851e-08
5.990000e+02 3.345496e-08
6.000000e+02 3.709842e-08
6.010000e+02 4.111935e-08
6.020000e+02 4.557019e-08
6.030000e+02 5.047922e-08
6.040000e+02 5.589750e-08
6.050000e+02 6.187566e-08
6.060000e+02 6.846926e-08
6.070000e+02 7.573942e-08
6.080000e+02 8.375257e-08
6.090000e+02 9.258176e-08
6.100000e+02 1.023067e-07
6.110000e+02 1.130150e-07
6.120000e+02 1.248018e-07
6.130000e+02 1.377716e-07
6.140000e+02 1.520384e-07
6.150000e+02 1.677268e-07
6.160000e+02 1.849727e-07
6.170000e+02 2.039246e-07
6.180000e+02 2.247446e-07
6.190000e+02 2.476093e-07
6.200000e+02 2.727118e-07
6.210000e+02 3.002619e-07
6.220000e+02 3.304891e-07
6.230000e+02 3.636427e-07
6.240000e+02 3.999947e-07
6.250000e+02 4.398414e-07
6.260000e+02 4.835048e-07
6.270000e+02 5.313361e-07
6.280000e+02 5.837167e-07
6.290000e+02 6.410618e-07
6.300000e+02 7.038228e-07
6.310000e+02 7.724303e-07
6.320000e+02 8.475978e-07
6.330000e+02 9.297199e-07
6.340000e+02 1.019498e-06
6.350000e+02 1.117602e-06
6.360000e+02 1.224273e-06
6.370000e+02 1.341836e-06
6.380000e+02 1.469639e-06
6.390000e+02 1.609139e-06
6.400000e+02 1.761361e-06
6.410000e+02 1.927416e-06
6.420000e+02 2.108511e-06
6.430000e+02 2.305951e-06
6.440000e+02 2.521149e-06
6.450000e+02 2.755635e-06
6.460000e+02 3.011068e-06
6.470000e+02 3.289239e-06
6.480000e+02 3.592090e-06
6.490000e+02 3.921715e-06
6.500000e+02 4.280382e-06
6.510000e+02 4.670546e-06
6.520000e+02 5.094854e-06
6.530000e+02 5.556166e-06
6.540000e+02 6.057575e-06
6.550000e+02 6.602418e-06
6.560000e+02 7.194298e-06
6.570000e+02 7.836964e-06
6.580000e+02 8.535028e-06
6.590000e+02 9.292599e-06
6.600000e+02 1.011467e-05
6.610000e+02 1.100658e-05
6.620000e+02 1.197392e-05
6.630000e+02 1.302282e-05
6.640000e+02 1.415987e-05
6.650000e+02 1.539214e-05
6.660000e+02 1.672733e-05
6.670000e+02 1.817358e-05
6.680000e+02 1.973977e-05
6.690000e+02 2.143541e-05
6.700000e+02 2.327072e-05
6.710000e+02 2.525673e-05
6.720000e+02 2.740525e-05
6.730000e+02 2.972903e-05
6.740000e+02 3.224172e-05
6.750000e+02 3.495801e-05
6.760000e+02 3.789368e-05
6.770000e+02 4.106567e-05
6.780000e+02 4.449216e-05
6.790000e+02 4.819269e-05
6.800000e+02 5.218820e-05
6.810000e+02 5.650116e-05
6.820000e+02 6.115568e-05
6.830000e+02 6.617764e-05
6.840000e+02 7.159472e-05
6.850000e+02 7.743646e-05
6.860000e+02 8.373529e-05
6.870000e+02 9.052443e-05
6.880000e+02 9.784146e-05
6.890000e+02 1.057247e-04
6.900000e+02 1.142163e-04
6.910000e+02 1.233611e-04
6.920000e+02 1.332071e-04
6.930000e+02 1.438056e-04
6.940000e+02 1.552117e-04
6.950000e+02 1.674840e-04
6.960000e+02 1.806853e-04
6.970000e+02 1.948808e-04
6.980000e+02 2.101483e-04
6.990000e+02 2.265585e-04
7.000000e+02 2.441953e-04
7.010000e+02 2.631462e-04
7.020000e+02 2.835046e-04
7.030000e+02 3.053705e-04
7.040000e+02 3.288501e-04
7.050000e+02 3.540573e-04
7.060000e+02 3.811130e-04
7.070000e+02 4.101474e-04
7.080000e+02 4.412977e-04
7.090000e+02 4.747097e-04
7.100000e+02 5.105450e-04
7.110000e+02 5.489661e-04
7.120000e+02 5.901527e-04
7.130000e+02 6.342947e-04
7.140000e+02 6.815942e-04
7.150000e+02 7.322665e-04
7.160000e+02 7.865416e-04
7.170000e+02 8.446606e-04
7.180000e+02 9.068817e-04
7.190000e+02 9.735009e-04
7.200000e+02 1.044789e-03
7.210000e+02 1.121067e-03
7.220000e+02 1.202667e-03
7.230000e+02 1.289946e-03
7.240000e+02 1.383277e-03
7.250000e+02 1.483062e-03
7.260000e+02 1.589725e-03
7.270000e+02 1.703719e-03
7.280000e+02 1.825524e-03
7.290000e+02 1.955648e-03
7.300000e+02 2.094633e-03
7.310000e+02 2.243055e-03
7.320000e+02 2.401523e-03
7.330000e+02 2.570684e-03
7.340000e+02 2.751226e-03
7.350000e+02 2.943878e-03
7.360000e+02 3.149411e-03
7.370000e+02 3.368652e-03
7.380000e+02 3.602463e-03
7.390000e+02 3.851769e-03
7.400000e+02 4.117537e-03
7.410000e+02 4.400834e-03
7.420000e+02 4.702713e-03
7.430000e+02 5.024387e-03
7.440000e+02 5.367047e-03
7.450000e+02 5.732012e-03
7.460000e+02 6.120662e-03
7.470000e+02 6.534460e-03
7.480000e+02 6.974954e-03
7.490000e+02 7.443781e-03
7.500000e+02 7.942675e-03
7.510000e+02 8.473470e-03
7.520000e+02 9.038105e-03
7.530000e+02 9.638631e-03
7.540000e+02 1.027722e-02
7.550000e+02 1.095616e-02
7.560000e+02 1.167788e-02
7.570000e+02 1.244472e-02
7.580000e+02 1.326004e-02
7.590000e+02 1.412601e-02
7.600000e+02 1.504598e-02
7.610000e+02 1.602306e-02
7.620000e+02 1.706062e-02
7.630000e+02 1.816222e-02
7.640000e+02 1.933162e-02
7.650000e+02 2.057279e-02
7.660000e+02 2.188992e-02
7.670000e+02 2.328741e-02
7.680000e+02 2.476982e-02
7.690000e+02 2.634238e-02
7.700000e+02 2.800995e-02
7.710000e+02 2.977809e-02
7.720000e+02 3.165258e-02
7.730000e+02 3.363948e-02
7.740000e+02 3.574519e-02
7.750000e+02 3.797645e-02
7.760000e+02 4.033712e-02
7.770000e+02 4.284445e-02
7.780000e+02 4.549656e-02
7.790000e+02 4.830499e-02
7.800000e+02 5.127850e-02
7.810000e+02 5.442630e-02
7.820000e+02 5.775807e-02
7.830000e+02 6.128401e-02
7.840000e+02 6.501488e-02
7.850000e+02 6.896193e-02
7.860000e+02 7.313703e-02
7.870000e+02 7.755294e-02
7.880000e+02 8.222242e-02
7.890000e+02 8.715944e-02
7.900000e+02 9.237856e-02
7.910000e+02 9.789504e-02
7.920000e+02 1.037250e-01
7.930000e+02 1.098852e-01
7.940000e+02 1.163935e-01
7.950000e+02 1.232684e-01
7.960000e+02 1.305296e-01
7.970000e+02 1.381977e-01
7.980000e+02 1.462941e-01
7.990000e+02 1.548417e-01
8.000000e+02 1.638642e-01
8.010000e+02 1.733864e-01
8.020000e+02 1.834351e-01
8.030000e+02 1.940373e-01
8.040000e+02 2.052221e-01
8.050000e+02 2.170198e-01
8.060000e+02 2.294621e-01
8.070000e+02 2.425825e-01
8.080000e+02 2.564159e-01
8.090000e+02 2.709990e-01
8.100000e+02 2.863702e-01
8.110000e+02 3.025699e-01
8.120000e+02 3.196403e-01
8.130000e+02 3.376258e-01
8.140000e+02 3.565727e-01
8.150000e+02 3.765295e-01
8.160000e+02 3.975477e-01
8.170000e+02 4.196800e-01
8.180000e+02 4.429827e-01
8.190000e+02 4.675142e-01
8.200000e+02 4.933357e-01
8.210000e+02 5.205115e-01
8.220000e+02 5.491087e-01
8.230000e+02 5.791977e-01
8.240000e+02 6.108519e-01
8.250000e+02 6.441485e-01
8.260000e+02 6.791679e-01
8.270000e+02 7.159944e-01
8.280000e+02 7.547160e-01
8.290000e+02 7.954251e-01
8.300000e+02 8.382181e-01
8.310000e+02 8.831957e-01
8.320000e+02 9.304633e-01
8.330000e+02 9.801310e-01
8.340000e+02 1.032314e+00
8.350000e+02 1.087077e+00
8.360000e+02 1.144710e+00
8.370000e+02 1.205186e+00
8.380000e+02 1.268680e+00
8.390000e+02 1.335365e+00
8.400000e+02 1.405364e+00
8.410000e+02 1.478843e+00
8.420000e+02 1.555948e+00
8.430000e+02 1.636900e+00
8.440000e+02 1.721826e+00
8.450000e+02 1.810930e+00
8.460000e+02 1.904404e+00
8.470000e+02 2.002451e+00
8.480000e+02 2.105284e+00
8.490000e+02 2.213120e+00
8.500000e+02 2.326192e+00
8.510000e+02 2.444738e+00
8.520000e+02 2.569005e+00
8.530000e+02 2.699262e+00
8.540000e+02 2.835781e+00
8.550000e+02 2.978834e+00
8.560000e+02 3.128722e+00
8.570000e+02 3.285755e+00
8.580000e+02 3.450252e+00
8.590000e+02 3.622549e+00
8.600000e+02 3.802993e+00
8.610000e+02 3.991949e+00
8.620000e+02 4.189795e+00
8.630000e+02 4.396922e+00
8.640000e+02 4.613749e+00
8.650000e+02 4.840687e+00
8.660000e+02 5.078207e+00
8.670000e+02 5.326752e+00
8.680000e+02 5.586809e+00
8.690000e+02 5.858882e+00
8.700000e+02 6.143493e+00
8.710000e+02 6.441188e+00
8.720000e+02 6.752532e+00
8.730000e+02 7.078115e+00
8.740000e+02 7.418549e+00
8.750000e+02 7.774472e+00
8.760000e+02 8.146549e+00
8.770000e+02 8.535458e+00
8.780000e+02 8.941950e+00
8.790000e+02 9.366738e+00
8.800000e+02 9.810610e+00
8.810000e+02 1.027437e+01
8.820000e+02 1.075886e+01
8.830000e+02 1.126495e+01
8.840000e+02 1.179354e+01
8.850000e+02 1.234559e+01
8.860000e+02 1.292206e+01
8.870000e+02 1.352397e+01
8.880000e+02 1.415238e+01
8.890000e+02 1.480838e+01
8.900000e+02 1.549313e+01
8.910000e+02 1.620778e+01
8.920000e+02 1.694258e+01
8.930000e+02 1.773182e+01
8.940000e+02 1.854380e+01
8.950000e+02 1.939090e+01
8.960000e+02 2.027456e+01
8.970000e+02 2.119625e+01
8.980000e+02 2.215751e+01
8.990000e+02 2.315994e+01
9.000000e+02 2.420519e+01
9.010000e+02 2.529500e+01
9.020000e+02 2.643112e+01
9.030000e+02 2.761542e+01
9.040000e+02 2.884977e+01
9.050000e+02 3.013628e+01
9.060000e+02 3.147694e+01
9.070000e+02 3.287360e+01
9.080000e+02 3.432930e+01
9.090000e+02 3.584554e+01
9.100000e+02 3.742496e+01
9.110000e+02 3.907014e+01
9.120000e+02 4.078393e+01
9.130000e+02 4.235154e+01
9.140000e+02 4.515315e+01
9.150000e+02 3.132903e+02
9.160000e+02 4.733626e+02
9.170000e+02 4.913039e+02
9.180000e+02 5.074995e+02
9.190000e+02 5.299843e+02
9.200000e+02 5.499073e+02
9.210000e+02 5.939239e+01
9.220000e+02 5.909070e+02
9.230000e+02 6.088372e+02
9.240000e+02 6.116712e+02
9.250000e+02 6.507200e+02
9.260000e+02 6.799734e+02
9.270000e+02 7.067838e+02
9.280000e+02 7.334697e+02
9.290000e+02 7.582454e+02
9.300000e+02 7.800897e+02
9.310000e+02 8.071934e+02
9.320000e+02 8.457407e+02
9.330000e+02 8.751011e+02
9.340000e+02 9.072889e+02
9.350000e+02 2.208718e+02
9.360000e+02 9.261868e+02
9.370000e+02 1.835681e+02
9.380000e+02 5.466393e+02
9.390000e+02 1.077835e+03
9.400000e+02 1.119731e+03
9.410000e+02 4.240089e+02
9.420000e+02 1.200657e+03
9.430000e+02 1.241530e+03
9.440000e+02 1.028922e+03
9.450000e+02 1.331344e+03
9.460000e+02 1.377695e+03
9.470000e+02 1.189750e+03
9.480000e+02 1.145868e+03
9.490000e+02 1.516450e+03
9.500000e+02 2.989613e+02
9.510000e+02 1.607543e+03
9.520000e+02 1.692638e+03
9.530000e+02 1.724720e+03
9.540000e+02 1.562794e+03
9.550000e+02 1.874467e+03
9.560000e+02 1.401439e+03
9.570000e+02 1.261139e+03
9.580000e+02 2.003373e+03
9.590000e+02 2.154953e+03
9.600000e+02 4.466122e+02
9.610000e+02 2.302693e+03
9.620000e+02 2.382517e+03
9.630000e+02 2.462534e+03
9.640000e+02 3.502800e+02
9.650000e+02 2.440064e+03
9.660000e+02 2.720456e+03
9.670000e+02 2.789723e+03
9.680000e+02 2.875417e+03
9.690000e+02 2.989542e+03
9.700000e+02 3.098338e+03
9.710000e+02 3.169170e+03
9.720000e+02 3.079609e+03
9.730000e+02 3.122829e+03
9.740000e+02 3.497477e+03
9.750000e+02 3.645889e+03
9.760000e+02 3.777365e+03
9.770000e+02 3.905409e+03
9.780000e+02 4.025877e+03
9.790000e+02 4.169623e+03
9.800000e+02 4.304676e+03
9.810000e+02 4.445441e+03
9.820000e+02 4.575639e+03
9.830000e+02 4.740715e+03
9.840000e+02 2.376156e+03
9.850000e+02 5.049421e+03
9.860000e+02 5.210994e+03
9.870000e+02 5.385577e+03
9.880000e+02 5.475299e+03
9.890000e+02 5.052799e+03
9.900000e+02 1.090384e+03
9.910000e+02 6.040232e+03
9.920000e+02 5.505308e+03
9.930000e+02 6.192567e+03
9.940000e+02 1.221950e+03
9.950000e+02 2.444134e+03
9.960000e+02 6.645492e+03
9.970000e+02 1.722051e+03
9.980000e+02 7.587032e+03
9.990000e+02 7.697395e+03
1.000000e+03 8.088197e+03
1.001000e+03 8.344204e+03
1.002000e+03 8.603054e+03
1.003000e+03 8.628977e+03
1.004000e+03 9.047382e+03
1.005000e+03 9.037855e+03
1.006000e+03 9.723149e+03
1.007000e+03 1.001230e+04
1.008000e+03 1.031713e+04
1.009000e+03 1.054701e+04
1.010000e+03 1.097372e+04
1.011000e+03 1.130909e+04
1.012000e+03 1.165263e+04
1.013000e+03 1.200601e+04
1.014000e+03 1.168710e+04
1.015000e+03 1.245112e+04
1.016000e+03 1.308051e+04
1.017000e+03 1.283248e+04
1.018000e+03 1.387667e+04
1.019000e+03 1.408622e+04
1.020000e+03 1.472368e+04
1.021000e+03 7.782284e+03
1.022000e+03 1.383894e+04
1.023000e+03 1.553702e+04
1.024000e+03 1.469293e+04
1.025000e+03 1.219347e+04
1.026000e+03 6.669394e+03
1.027000e+03 1.577333e+04
1.028000e+03 4.860980e+03
1.029000e+03 1.808639e+04
1.030000e+03 1.945455e+04
1.031000e+03 2.027743e+04
1.032000e+03 2.085929e+04
1.033000e+03 8.999631e+03
1.034000e+03 2.222241e+04
1.035000e+03 5.309549e+03
1.036000e+03 2.089112e+04
1.037000e+03 1.300351e+04
1.038000e+03 2.499101e+04
1.039000e+03 2.557194e+04
1.040000e+03 2.646831e+04
1.041000e+03 2.689904e+04
1.042000e+03 2.797364e+04
1.043000e+03 2.759512e+04
1.044000e+03 2.965794e+04
1.045000e+03 3.049006e+04
1.046000e+03 3.140746e+04
1.047000e+03 3.228067e+04
1.048000e+03 3.291451e+04
1.049000e+03 3.318052e+04
1.050000e+03 3.511610e+04
1.051000e+03 3.609068e+04
1.052000e+03 3.717006e+04
1.053000e+03 3.813072e+04
1.054000e+03 3.718111e+04
1.055000e+03 3.975597e+04
1.056000e+03 4.154175e+04
1.057000e+03 4.268499e+04
1.058000e+03 4.384739e+04
1.059000e+03 4.492321e+04
1.060000e+03 4.598409e+04
1.061000e+03 4.765564e+04
1.062000e+03 4.889674e+04
1.063000e+03 1.737841e+04
1.064000e+03 1.228520e+04
1.065000e+03 5.113638e+04
1.066000e+03 4.078958e+04
1.067000e+03 5.557061e+04
1.068000e+03 5.774788e+04
1.069000e+03 5.765562e+04
1.070000e+03 6.081235e+04
1.071000e+03 6.262564e+04
1.072000e+03 6.432518e+04
1.073000e+03 6.423819e+04
1.074000e+03 6.781502e+04
1.075000e+03 6.961970e+04
1.076000e+03 7.156900e+04
1.077000e+03 7.274779e+04
1.078000e+03 7.534987e+04
1.079000e+03 7.734601e+04
1.080000e+03 7.952432e+04
1.081000e+03 8.167177e+04
1.082000e+03 8.380564e+04
1.083000e+03 8.603917e+04
1.084000e+03 8.835726e+04
1.085000e+03 6.858727e+04
1.086000e+03 9.306774e+04
1.087000e+03 9.504048e+04
1.088000e+03 9.776239e+04
1.089000e+03 1.005606e+05
1.090000e+03 1.030036e+05
1.091000e+03 1.055929e+05
1.092000e+03 1.085957e+05
1.093000e+03 1.113489e+05
1.094000e+03 1.142822e+05
1.095000e+03 1.172225e+05
1.096000e+03 1.201054e+05
1.097000e+03 1.219407e+05
1.098000e+03 1.255307e+05
1.099000e+03 1.296599e+05
1.100000e+03 1.291931e+05
1.101000e+03 1.249420e+05
1.102000e+03 2.692606e+05
1.103000e+03 8.264052e+05
1.104000e+03 3.347834e+05
1.105000e+03 1.397128e+05
1.106000e+03 1.777057e+06
1.107000e+03 1.125526e+06
1.108000e+03 1.852941e+06
1.109000e+03 1.320740e+06
1.110000e+03 6.942539e+05
1.111000e+03 3.166279e+05
1.112000e+03 1.803470e+06
1.113000e+03 2.078610e+06
1.114000e+03 1.221408e+05
1.115000e+03 1.949664e+06
1.116000e+03 1.963499e+06
1.117000e+03 1.338006e+05
1.118000e+03 1.591686e+06
1.119000e+03 2.304736e+06
1.120000e+03 2.130024e+06
1.121000e+03 2.289438e+06
1.122000e+03 5.879338e+04
1.123000e+03 2.982319e+05
1.124000e+03 2.541996e+06
1.125000e+03 1.685596e+06
1.126000e+03 2.652720e+06
1.127000e+03 2.619855e+06
1.128000e+03 1.375235e+06
1.129000e+03 2.733883e+06
1.130000e+03 2.553476e+06
1.131000e+03 2.919032e+06
1.132000e+03 1.711128e+05
1.133000e+03 2.549559e+06
1.134000e+03 2.954717e+06
1.135000e+03 1.079128e+05
1.136000e+03 3.099448e+06
1.137000e+03 3.267156e+06
1.138000e+03 3.300811e+06
1.139000e+03 3.320253e+06
1.140000e+03 1.136818e+05
1.141000e+03 3.527030e+06
1.142000e+03 3.584762e+06
1.143000e+03 3.650596e+06
1.144000e+03 3.735076e+06
1.145000e+03 2.680444e+06
1.146000e+03 3.879810e+06
1.147000e+03 3.900285e+06
1.148000e+03 3.701558e+06
1.149000e+03 4.093244e+06
1.150000e+03 4.136027e+06
1.151000e+03 4.232486e+06
1.152000e+03 4.335442e+06
1.153000e+03 1.907398e+06
1.154000e+03 1.125344e+06
1.155000e+03 4.304807e+06
1.156000e+03 1.386453e+06
1.157000e+03 4.744271e+06
1.158000e+03 1.906565e+05
1.159000e+03 4.262928e+06
1.160000e+03 4.953310e+06
1.161000e+03 5.126201e+06
1.162000e+03 1.896853e+06
1.163000e+03 5.212820e+06
1.164000e+03 2.410445e+05
1.165000e+03 5.522064e+06
1.166000e+03 5.624534e+06
1.167000e+03 5.721844e+06
1.168000e+03 5.892318e+06
1.169000e+03 5.875456e+06
1.170000e+03 6.134271e+06
1.171000e+03 6.270220e+06
1.172000e+03 6.337240e+06
1.173000e+03 6.539780e+06
1.174000e+03 5.985714e+06
1.175000e+03 3.006385e+05
1.176000e+03 2.710130e+05
1.177000e+03 7.088340e+06
1.178000e+03 7.125170e+06
1.179000e+03 7.371178e+06
1.180000e+03 6.230549e+06
1.181000e+03 7.642976e+06
1.182000e+03 7.838563e+06
1.183000e+03 7.968580e+06
1.184000e+03 8.105826e+06
1.185000e+03 8.229770e+06
1.186000e+03 8.172425e+06
1.187000e+03 8.539754e+06
1.188000e+03 8.595955e+06
1.189000e+03 3.733320e+05
1.190000e+03 1.540894e+06
1.191000e+03 8.917392e+06
1.192000e+03 9.034681e+06
1.193000e+03 3.565980e+05
1.194000e+03 4.341680e+05
1.195000e+03 8.003258e+06
1.196000e+03 9.419385e+06
1.197000e+03 1.454918e+07
1.198000e+03 1.426671e+07
1.199000e+03 1.431850e+07
1.200000e+03 1.276844e+07
1.201000e+03 1.352987e+07
1.202000e+03 1.333621e+07
1.203000e+03 1.731100e+07
1.204000e+03 1.529415e+07
1.205000e+03 1.445598e+07
1.206000e+03 1.370625e+07
1.207000e+03 1.977593e+06
1.208000e+03 1.000876e+07
1.209000e+03 7.648138e+06
1.210000e+03 6.306820e+05
1.211000e+03 4.507670e+06
1.212000e+03 2.949441e+06
1.213000e+03 1.872107e+06
1.214000e+03 1.112092e+06
1.215000e+03 7.115909e+05
1.216000e+03 6.488382e+05
1.217000e+03 9.960542e+05
1.218000e+03 1.736583e+06
1.219000e+03 2.987041e+06
1.220000e+03 4.752458e+06
1.221000e+03 6.998369e+06
1.222000e+03 9.611837e+06
1.223000e+03 1.252926e+07
1.224000e+03 1.573236e+07
1.225000e+03 1.849511e+07
1.226000e+03 2.269331e+07
1.227000e+03 2.606983e+07
1.228000e+03 2.969844e+07
1.229000e+03 3.402803e+07
1.230000e+03 3.719568e+07
1.231000e+03 4.039497e+07
1.232000e+03 4.601768e+07
1.233000e+03 4.996051e+07
1.234000e+03 2.940281e+07
1.235000e+03 5.764216e+07
1.236000e+03 5.848404e+07
1.237000e+03 6.516279e+07
1.238000e+03 6.865154e+07
1.239000e+03 7.203396e+07
1.240000e+03 6.733546e+07
1.241000e+03 1.119556e+08
1.242000e+03 6.869326e+07
1.243000e+03 1.010699e+08
1.244000e+03 4.526675e+07
1.245000e+03 6.654013e+07
1.246000e+03 1.716955e+08
1.247000e+03 1.761456e+08
1.248000e+03 4.886411e+07
1.249000e+03 6.282776e+07
1.250000e+03 2.036895e+08
1.251000e+03 2.176382e+08
1.252000e+03 2.226904e+08
1.253000e+03 2.354774e+08
1.254000e+03 2.399238e+08
1.255000e+03 2.469632e+08
1.256000e+03 2.522112e+08
1.257000e+03 2.643047e+08
1.258000e+03 2.561879e+08
1.259000e+03 2.670545e+08
1.260000e+03 2.191849e+08
1.261000e+03 1.728644e+06
1.262000e+03 3.202402e+07
1.263000e+03 2.975068e+08
1.264000e+03 2.654189e+08
1.265000e+03 1.805616e+06
1.266000e+03 3.219532e+08
1.267000e+03 3.302137e+08
