# wavelength_A flux
5.000000e+02 0.000000e+00
5.010000e+02 0.000000e+00
5.020000e+02 1.401298e-45
5.030000e+02 1.401298e-45
5.040000e+02 1.401298e-45
5.050000e+02 1.401298e-45
5.060000e+02 2.802597e-45
5.070000e+02 4.203895e-45
5.080000e+02 4.203895e-45
5.090000e+02 7.006492e-45
5.100000e+02 8.407791e-45
5.110000e+02 1.121039e-44
5.120000e+02 1.541428e-44
5.130000e+02 1.961818e-44
5.140000e+02 2.662467e-44
5.150000e+02 3.503246e-44
5.160000e+02 4.764415e-44
5.170000e+02 6.305843e-44
5.180000e+02 8.267661e-44
5.190000e+02 1.093013e-43
5.200000e+02 1.443337e-43
5.210000e+02 1.905766e-43
5.220000e+02 2.522337e-43
5.230000e+02 3.321077e-43
5.240000e+02 4.358038e-43
5.250000e+02 5.731311e-43
5.260000e+02 7.510960e-43
5.270000e+02 9.851128e-43
5.280000e+02 1.289195e-42
5.290000e+02 1.687163e-42
5.300000e+02 2.204242e-42
5.310000e+02 2.876866e-42
5.320000e+02 3.751276e-42
5.330000e+02 4.886328e-42
5.340000e+02 6.359092e-42
5.350000e+02 8.267661e-42
5.360000e+02 1.073675e-41
5.370000e+02 1.393031e-41
5.380000e+02 1.805573e-41
5.390000e+02 2.338066e-41
5.400000e+02 3.024563e-41
5.410000e+02 3.908782e-41
5.420000e+02 5.046776e-41
5.430000e+02 6.509732e-41
5.440000e+02 8.388873e-41
5.450000e+02 1.080009e-40
5.460000e+02 1.389135e-40
5.470000e+02 1.785072e-40
5.480000e+02 2.291726e-40
5.490000e+02 2.939448e-40
5.500000e+02 3.766774e-40
5.510000e+02 4.822513e-40
5.520000e+02 6.168544e-40
5.530000e+02 7.883117e-40
5.540000e+02 1.006519e-39
5.550000e+02 1.283973e-39
5.560000e+02 1.636450e-39
5.570000e+02 2.083839e-39
5.580000e+02 2.651201e-39
5.590000e+02 3.370077e-39
5.600000e+02 4.280139e-39
5.610000e+02 5.431239e-39
5.620000e+02 6.885969e-39
5.630000e+02 8.722846e-39
5.640000e+02 1.104029e-38
5.650000e+02 1.396154e-38
5.660000e+02 1.764085e-38
5.670000e+02 2.227104e-38
5.680000e+02 2.809302e-38
5.690000e+02 3.540748e-38
5.700000e+02 4.458947e-38
5.710000e+02 5.610637e-38
5.720000e+02 7.054018e-38
5.730000e+02 8.861500e-38
5.740000e+02 1.112311e-37
5.750000e+02 1.395067e-37
5.760000e+02 1.748300e-37
5.770000e+02 2.189226e-37
5.780000e+02 2.739181e-37
5.790000e+02 3.424586e-37
5.800000e+02 4.278136e-37
5.810000e+02 5.340255e-37
5.820000e+02 6.660886e-37
5.830000e+02 8.301688e-37
5.840000e+02 1.033872e-36
5.850000e+02 1.286575e-36
5.860000e+02 1.599827e-36
5.870000e+02 1.987843e-36
5.880000e+02 2.468108e-36
5.890000e+02 3.062110e-36
5.900000e+02 3.796240e-36
5.910000e+02 4.702887e-36
5.920000e+02 5.821769e-36
5.930000e+02 7.201560e-36
5.940000e+02 8.901865e-36
5.950000e+02 1.099562e-35
5.960000e+02 1.357203e-35
5.970000e+02 1.674007e-35
5.980000e+02 2.063284e-35
5.990000e+02 2.541274e-35
6.000000e+02 3.127780e-35
6.010000e+02 3.846935e-35
6.020000e+02 4.728124e-35
6.030000e+02 5.807107e-35
6.040000e+02 7.127369e-35
6.050000e+02 8.741754e-35
6.060000e+02 1.071444e-34
6.070000e+02 1.312330e-34
6.080000e+02 1.606280e-34
6.090000e+02 1.964741e-34
6.100000e+02 2.401577e-34
6.110000e+02 2.933571e-34
6.120000e+02 3.581021e-34
6.130000e+02 4.368464e-34
6.140000e+02 5.325541e-34
6.150000e+02 6.488034e-34
6.160000e+02 7.899114e-34
6.170000e+02 9.610832e-34
6.180000e+02 1.168590e-33
6.190000e+02 1.419983e-33
6.200000e+02 1.724352e-33
6.210000e+02 2.092624e-33
6.220000e+02 2.537935e-33
6.230000e+02 3.076063e-33
6.240000e+02 3.725948e-33
6.250000e+02 4.510309e-33
6.260000e+02 5.456388e-33
6.270000e+02 6.596823e-33
6.280000e+02 7.970698e-33
6.290000e+02 9.624789e-33
6.300000e+02 1.161504e-32
6.310000e+02 1.400831e-32
6.320000e+02 1.688449e-32
6.330000e+02 2.033895e-32
6.340000e+02 2.448548e-32
6.350000e+02 2.945979e-32
6.360000e+02 3.542360e-32
6.370000e+02 4.256953e-32
6.380000e+02 5.112692e-32
6.390000e+02 6.136858e-32
6.400000e+02 7.361891e-32
6.410000e+02 8.826343e-32
6.420000e+02 1.057600e-31
6.430000e+02 1.266521e-31
6.440000e+02 1.515847e-31
6.450000e+02 1.813221e-31
6.460000e+02 2.167705e-31
6.470000e+02 2.590030e-31
6.480000e+02 3.092897e-31
6.490000e+02 3.691336e-31
6.500000e+02 4.403117e-31
6.510000e+02 5.249240e-31
6.520000e+02 6.254512e-31
6.530000e+02 7.448214e-31
6.540000e+02 8.864900e-31
6.550000e+02 1.054532e-30
6.560000e+02 1.253749e-30
6.570000e+02 1.489798e-30
6.580000e+02 1.769342e-30
6.590000e+02 2.100218e-30
6.600000e+02 2.491646e-30
6.610000e+02 2.954465e-30
6.620000e+02 3.501409e-30
6.630000e+02 4.147433e-30
6.640000e+02 4.910089e-30
6.650000e+02 5.809972e-30
6.660000e+02 6.871228e-30
6.670000e+02 8.122155e-30
6.680000e+02 9.595904e-30
6.690000e+02 1.133128e-29
6.700000e+02 1.337371e-29
6.710000e+02 1.577632e-29
6.720000e+02 1.860119e-29
6.730000e+02 2.192091e-29
6.740000e+02 2.582022e-29
6.750000e+02 3.039806e-29
6.760000e+02 3.576986e-29
6.770000e+02 4.207026e-29
6.780000e+02 4.945618e-29
6.790000e+02 5.811046e-29
6.800000e+02 6.824602e-29
6.810000e+02 8.011072e-29
6.820000e+02 9.399291e-29
6.830000e+02 1.102279e-28
6.840000e+02 1.292056e-28
6.850000e+02 1.513787e-28
6.860000e+02 1.772732e-28
6.870000e+02 2.074996e-28
6.880000e+02 2.427661e-28
6.890000e+02 2.838941e-28
6.900000e+02 3.318357e-28
6.910000e+02 3.876941e-28
6.920000e+02 4.527468e-28
6.930000e+02 5.284728e-28
6.940000e+02 6.165834e-28
6.950000e+02 7.190578e-28
6.960000e+02 8.381841e-28
6.970000e+02 9.766063e-28
6.980000e+02 1.137378e-27
6.990000e+02 1.324026e-27
7.000000e+02 1.540619e-27
7.010000e+02 1.791850e-27
7.020000e+02 2.083132e-27
7.030000e+02 2.420703e-27
7.040000e+02 2.811748e-27
7.050000e+02 3.264544e-27
7.060000e+02 3.788615e-27
7.070000e+02 4.394923e-27
7.080000e+02 5.096072e-27
7.090000e+02 5.906554e-27
7.100000e+02 6.843022e-27
7.110000e+02 7.924606e-27
7.120000e+02 9.173267e-27
7.130000e+02 1.061422e-26
7.140000e+02 1.227637e-26
7.150000e+02 1.419290e-26
7.160000e+02 1.640182e-26
7.170000e+02 1.894669e-26
7.180000e+02 2.187742e-26
7.190000e+02 2.525113e-26
7.200000e+02 2.913322e-26
7.210000e+02 3.359847e-26
7.220000e+02 3.873244e-26
7.230000e+02 4.463291e-26
7.240000e+02 5.141163e-26
7.250000e+02 5.919621e-26
7.260000e+02 6.813240e-26
7.270000e+02 7.838652e-26
7.280000e+02 9.014832e-26
7.290000e+02 1.036342e-25
7.300000e+02 1.190910e-25
7.310000e+02 1.367998e-25
7.320000e+02 1.570809e-25
7.330000e+02 1.802990e-25
7.340000e+02 2.068693e-25
7.350000e+02 2.372643e-25
7.360000e+02 2.720214e-25
7.370000e+02 3.117514e-25
7.380000e+02 3.571490e-25
7.390000e+02 4.090032e-25
7.400000e+02 4.682101e-25
7.410000e+02 5.357874e-25
7.420000e+02 6.128898e-25
7.430000e+02 7.008276e-25
7.440000e+02 8.010868e-25
7.450000e+02 9.153520e-25
7.460000e+02 1.045532e-24
7.470000e+02 1.193791e-24
7.480000e+02 1.362578e-24
7.490000e+02 1.554666e-24
7.500000e+02 1.773194e-24
7.510000e+02 2.021713e-24
7.520000e+02 2.304238e-24
7.530000e+02 2.625310e-24
7.540000e+02 2.990058e-24
7.550000e+02 3.404279e-24
7.560000e+02 3.874519e-24
7.570000e+02 4.408169e-24
7.580000e+02 5.013569e-24
7.590000e+02 5.700130e-24
7.600000e+02 6.478464e-24
7.610000e+02 7.360538e-24
7.620000e+02 8.359835e-24
7.630000e+02 9.491553e-24
7.640000e+02 1.077280e-23
7.650000e+02 1.222286e-23
7.660000e+02 1.386340e-23
7.670000e+02 1.571884e-23
7.680000e+02 1.781663e-23
7.690000e+02 2.018764e-23
7.700000e+02 2.286655e-23
7.710000e+02 2.589238e-23
7.720000e+02 2.930891e-23
7.730000e+02 3.316535e-23
7.740000e+02 3.751691e-23
7.750000e+02 4.242557e-23
7.760000e+02 4.796088e-23
7.770000e+02 5.420083e-23
7.780000e+02 6.123286e-23
7.790000e+02 6.915500e-23
7.800000e+02 7.807707e-23
7.810000e+02 8.812212e-23
7.820000e+02 9.942793e-23
7.830000e+02 1.121487e-22
7.840000e+02 1.264572e-22
7.850000e+02 1.425464e-22
7.860000e+02 1.606324e-22
7.870000e+02 1.809566e-22
7.880000e+02 2.037892e-22
7.890000e+02 2.294318e-22
7.900000e+02 2.582213e-22
7.910000e+02 2.905343e-22
7.920000e+02 3.267908e-22
7.930000e+02 3.674600e-22
7.940000e+02 4.130651e-22
7.950000e+02 4.641900e-22
7.960000e+02 5.214855e-22
7.970000e+02 5.856773e-22
7.980000e+02 6.575743e-22
7.990000e+02 7.380775e-22
8.000000e+02 8.281906e-22
8.010000e+02 9.290313e-22
8.020000e+02 1.041844e-21
8.030000e+02 1.168012e-21
8.040000e+02 1.309078e-21
8.050000e+02 1.466753e-21
8.060000e+02 1.642944e-21
8.070000e+02 1.839768e-21
8.080000e+02 2.059579e-21
8.090000e+02 2.304992e-21
8.100000e+02 2.578910e-21
8.110000e+02 2.884559e-21
8.120000e+02 3.225519e-21
8.130000e+02 3.605762e-21
8.140000e+02 4.029696e-21
8.150000e+02 4.502212e-21
8.160000e+02 5.028728e-21
8.170000e+02 5.615256e-21
8.180000e+02 6.268456e-21
8.190000e+02 6.995708e-21
8.200000e+02 7.805186e-21
8.210000e+02 8.705942e-21
8.220000e+02 9.707998e-21
8.230000e+02 1.082245e-20
8.240000e+02 1.206156e-20
8.250000e+02 1.343891e-20
8.260000e+02 1.496951e-20
8.270000e+02 1.666998e-20
8.280000e+02 1.855864e-20
8.290000e+02 2.065579e-20
8.300000e+02 2.298382e-20
8.310000e+02 2.556748e-20
8.320000e+02 2.843408e-20
8.330000e+02 3.161378e-20
8.340000e+02 3.513988e-20
8.350000e+02 3.904910e-20
8.360000e+02 4.338195e-20
8.370000e+02 4.818310e-20
8.380000e+02 5.350182e-20
8.390000e+02 5.939240e-20
8.400000e+02 6.591467e-20
8.410000e+02 7.313456e-20
8.420000e+02 8.112466e-20
8.430000e+02 8.996493e-20
8.440000e+02 9.974339e-20
8.450000e+02 1.105569e-19
8.460000e+02 1.225121e-19
8.470000e+02 1.357262e-19
8.480000e+02 1.503282e-19
8.490000e+02 1.664599e-19
8.500000e+02 1.842773e-19
8.510000e+02 2.039515e-19
8.520000e+02 2.256711e-19
8.530000e+02 2.496426e-19
8.540000e+02 2.760933e-19
8.550000e+02 3.052725e-19
8.560000e+02 3.374541e-19
8.570000e+02 3.729384e-19
8.580000e+02 4.120551e-19
8.590000e+02 4.551660e-19
8.600000e+02 5.026675e-19
8.610000e+02 5.549946e-19
8.620000e+02 6.126240e-19
8.630000e+02 6.760781e-19
8.640000e+02 7.459295e-19
8.650000e+02 8.228051e-19
8.660000e+02 9.073920e-19
8.670000e+02 1.000442e-18
8.680000e+02 1.102779e-18
8.690000e+02 1.215303e-18
8.700000e+02 1.339002e-18
8.710000e+02 1.474952e-18
8.720000e+02 1.624335e-18
8.730000e+02 1.788440e-18
8.740000e+02 1.968678e-18
8.750000e+02 2.166591e-18
8.760000e+02 2.383863e-18
8.770000e+02 2.622335e-18
8.780000e+02 2.884017e-18
8.790000e+02 3.171106e-18
8.800000e+02 3.485999e-18
8.810000e+02 3.831312e-18
8.820000e+02 4.209903e-18
8.830000e+02 4.624886e-18
8.840000e+02 5.079664e-18
8.850000e+02 5.577942e-18
8.860000e+02 6.123765e-18
8.870000e+02 6.721541e-18
8.880000e+02 7.376075e-18
8.890000e+02 8.092604e-18
8.900000e+02 8.876832e-18
8.910000e+02 9.734974e-18
8.920000e+02 1.067380e-17
8.930000e+02 1.170068e-17
8.940000e+02 1.282363e-17
8.950000e+02 1.405139e-17
8.960000e+02 1.539346e-17
8.970000e+02 1.686018e-17
8.980000e+02 1.846280e-17
8.990000e+02 2.021354e-17
9.000000e+02 2.212570e-17
9.010000e+02 2.421374e-17
9.020000e+02 2.649337e-17
9.030000e+02 2.898167e-17
9.040000e+02 3.169718e-17
9.050000e+02 3.466006e-17
9.060000e+02 3.789218e-17
9.070000e+02 4.141731e-17
9.080000e+02 4.526124e-17
9.090000e+02 4.945197e-17
9.100000e+02 5.401987e-17
9.110000e+02 5.899792e-17
9.120000e+02 6.442185e-17
9.130000e+02 7.033046e-17
9.140000e+02 8.557066e-17
9.150000e+02 2.414314e-14
9.160000e+02 2.151644e-13
9.170000e+02 6.727470e-15
9.180000e+02 3.231860e-14
9.190000e+02 7.225795e-13
9.200000e+02 2.452256e-12
9.210000e+02 1.409138e-16
9.220000e+02 2.889832e-12
9.230000e+02 5.290628e-15
9.240000e+02 7.579874e-15
9.250000e+02 4.839317e-13
9.260000e+02 5.313819e-14
9.270000e+02 1.135957e-14
9.280000e+02 2.217102e-11
9.290000e+02 2.082649e-11
9.300000e+02 3.436191e-12
9.310000e+02 1.600375e-14
9.320000e+02 1.607643e-11
9.330000e+02 7.742851e-12
9.340000e+02 1.084251e-12
9.350000e+02 1.311151e-14
9.360000e+02 7.552695e-14
9.370000e+02 4.236459e-15
9.380000e+02 1.167561e-14
9.390000e+02 4.663324e-13
9.400000e+02 4.007997e-11
9.410000e+02 4.316936e-12
9.420000e+02 9.791066e-11
9.430000e+02 9.654638e-13
9.440000e+02 1.144848e-10
9.450000e+02 1.109937e-10
9.460000e+02 2.715416e-11
9.470000e+02 3.053113e-15
9.480000e+02 2.683629e-11
9.490000e+02 1.716344e-12
9.500000e+02 2.235680e-14
9.510000e+02 9.852339e-12
9.520000e+02 4.550723e-11
9.530000e+02 1.289860e-13
9.540000e+02 3.586961e-15
9.550000e+02 1.880440e-12
9.560000e+02 1.851509e-10
9.570000e+02 6.034340e-13
9.580000e+02 3.087808e-15
9.590000e+02 8.808558e-11
9.600000e+02 5.863365e-14
9.610000e+02 7.454987e-11
9.620000e+02 1.931436e-11
9.630000e+02 4.548584e-13
9.640000e+02 1.739824e-13
9.650000e+02 1.547373e-14
9.660000e+02 1.852962e-12
9.670000e+02 1.529332e-13
9.680000e+02 1.036116e-13
9.690000e+02 1.003177e-11
9.700000e+02 4.958266e-11
9.710000e+02 3.471321e-13
9.720000e+02 4.919817e-14
9.730000e+02 3.414172e-13
9.740000e+02 1.486430e-11
9.750000e+02 5.758874e-12
9.760000e+02 3.283363e-10
9.770000e+02 2.641256e-10
9.780000e+02 1.472224e-10
9.790000e+02 1.056733e-09
9.800000e+02 1.047305e-09
9.810000e+02 5.309231e-11
9.820000e+02 4.879319e-12
9.830000e+02 1.321851e-09
9.840000e+02 1.611553e-11
9.850000e+02 1.366145e-11
9.860000e+02 2.518716e-11
9.870000e+02 1.257891e-09
9.880000e+02 8.787415e-14
9.890000e+02 5.239498e-10
9.900000e+02 1.441033e-09
9.910000e+02 7.791779e-12
9.920000e+02 4.142743e-14
9.930000e+02 2.647759e-09
9.940000e+02 7.115836e-14
9.950000e+02 5.140905e-11
9.960000e+02 6.620260e-13
9.970000e+02 1.200840e-10
9.980000e+02 1.897730e-09
9.990000e+02 9.781865e-12
1.000000e+03 5.270149e-09
1.001000e+03 4.280423e-09
1.002000e+03 4.587583e-09
1.003000e+03 8.023693e-12
1.004000e+03 1.469935e-13
1.005000e+03 7.108136e-11
1.006000e+03 4.786203e-09
1.007000e+03 6.384516e-09
1.008000e+03 3.937627e-09
1.009000e+03 1.181834e-11
1.010000e+03 3.035548e-09
1.011000e+03 2.318292e-09
1.012000e+03 5.113301e-09
1.013000e+03 5.390818e-09
1.014000e+03 2.061684e-13
1.015000e+03 4.347633e-13
1.016000e+03 1.210974e-10
1.017000e+03 2.451372e-13
1.018000e+03 1.113620e-11
1.019000e+03 3.814726e-13
1.020000e+03 3.758191e-09
1.021000e+03 6.052470e-11
1.022000e+03 8.034928e-11
1.023000e+03 1.570355e-12
1.024000e+03 1.702700e-10
1.025000e+03 4.274046e-13
1.026000e+03 6.217759e-13
1.027000e+03 6.391199e-11
1.028000e+03 3.618772e-12
1.029000e+03 5.647705e-13
1.030000e+03 3.033516e-10
1.031000e+03 2.797298e-09
1.032000e+03 1.994691e-08
1.033000e+03 4.247980e-11
1.034000e+03 2.700693e-09
1.035000e+03 2.682299e-12
1.036000e+03 9.503509e-13
1.037000e+03 3.708280e-08
1.038000e+03 1.391165e-07
1.039000e+03 6.513049e-08
1.040000e+03 1.807692e-08
1.041000e+03 1.324785e-07
1.042000e+03 1.699777e-07
1.043000e+03 1.458334e-07
1.044000e+03 3.685044e-07
1.045000e+03 2.492744e-12
1.046000e+03 2.881325e-08
1.047000e+03 2.280169e-08
1.048000e+03 4.252598e-11
1.049000e+03 1.169776e-08
1.050000e+03 7.422756e-10
1.051000e+03 3.313119e-10
1.052000e+03 3.289957e-07
1.053000e+03 3.634898e-07
1.054000e+03 3.019807e-12
1.055000e+03 3.881602e-07
1.056000e+03 4.938819e-07
1.057000e+03 8.663295e-08
1.058000e+03 2.451838e-10
1.059000e+03 3.743708e-10
1.060000e+03 6.454570e-11
1.061000e+03 2.701027e-07
1.062000e+03 1.178897e-10
1.063000e+03 3.305327e-08
1.064000e+03 8.185452e-12
1.065000e+03 6.082246e-12
1.066000e+03 3.454879e-07
1.067000e+03 4.379914e-10
1.068000e+03 1.205578e-06
1.069000e+03 5.638350e-11
1.070000e+03 6.571213e-09
1.071000e+03 4.214357e-07
1.072000e+03 1.992022e-06
1.073000e+03 1.102762e-11
1.074000e+03 1.186727e-07
1.075000e+03 5.292213e-08
1.076000e+03 2.047235e-06
1.077000e+03 1.620037e-10
1.078000e+03 4.513367e-10
1.079000e+03 4.152439e-09
1.080000e+03 7.462310e-08
1.081000e+03 1.091318e-06
1.082000e+03 4.850909e-07
1.083000e+03 1.803912e-07
1.084000e+03 4.052353e-06
1.085000e+03 1.368494e-08
1.086000e+03 3.030912e-06
1.087000e+03 1.344688e-09
1.088000e+03 4.460098e-06
1.089000e+03 4.943890e-06
1.090000e+03 9.237872e-09
1.091000e+03 2.471779e-08
1.092000e+03 4.936005e-06
1.093000e+03 6.172519e-06
1.094000e+03 2.375161e-07
1.095000e+03 7.161776e-06
1.096000e+03 8.750914e-08
1.097000e+03 4.919169e-06
1.098000e+03 6.763269e-06
1.099000e+03 4.661979e-08
1.100000e+03 1.380016e-10
1.101000e+03 6.299954e-10
1.102000e+03 4.194961e-08
1.103000e+03 1.089678e-05
1.104000e+03 9.238196e-06
1.105000e+03 1.138891e-05
1.106000e+03 4.877542e-07
1.107000e+03 5.406946e-10
1.108000e+03 6.275934e-06
1.109000e+03 1.824355e-08
1.110000e+03 1.119474e-05
1.111000e+03 1.161747e-05
1.112000e+03 2.716876e-06
1.113000e+03 6.975059e-06
1.114000e+03 1.017362e-06
1.115000e+03 1.359882e-08
1.116000e+03 1.536945e-09
1.117000e+03 1.828131e-05
1.118000e+03 3.691048e-08
1.119000e+03 1.880359e-06
1.120000e+03 5.285983e-09
1.121000e+03 1.487977e-05
1.122000e+03 3.384266e-05
1.123000e+03 3.806821e-05
1.124000e+03 5.546575e-05
1.125000e+03 2.660330e-05
1.126000e+03 5.016437e-05
1.127000e+03 2.068549e-05
1.128000e+03 2.361518e-05
1.129000e+03 8.483061e-06
1.130000e+03 2.607596e-05
1.131000e+03 1.644093e-05
1.132000e+03 1.008038e-08
1.133000e+03 6.805258e-07
1.134000e+03 1.297563e-05
1.135000e+03 1.961321e-05
1.136000e+03 1.218251e-06
1.137000e+03 1.534559e-05
1.138000e+03 8.704963e-06
1.139000e+03 1.719999e-05
1.140000e+03 1.495813e-05
1.141000e+03 1.695841e-05
1.142000e+03 1.624441e-05
1.143000e+03 5.752920e-06
1.144000e+03 1.614931e-05
1.145000e+03 6.754817e-09
1.146000e+03 1.664987e-05
1.147000e+03 1.674030e-05
1.148000e+03 1.300423e-07
1.149000e+03 1.460677e-05
1.150000e+03 1.417973e-05
1.151000e+03 1.542695e-05
1.152000e+03 1.236535e-05
1.153000e+03 1.483266e-05
1.154000e+03 1.460944e-05
1.155000e+03 1.330899e-05
1.156000e+03 9.867089e-06
1.157000e+03 1.270747e-05
1.158000e+03 6.827742e-06
1.159000e+03 1.311386e-05
1.160000e+03 9.568349e-06
1.161000e+03 1.179726e-05
1.162000e+03 8.617881e-07
1.163000e+03 4.789181e-06
1.164000e+03 1.386798e-08
1.165000e+03 5.743584e-06
1.166000e+03 2.722155e-06
1.167000e+03 1.703019e-06
1.168000e+03 1.343344e-05
1.169000e+03 1.390952e-05
1.170000e+03 1.706497e-06
1.171000e+03 5.315943e-06
1.172000e+03 4.047300e-06
1.173000e+03 3.433837e-06
1.174000e+03 5.626771e-08
1.175000e+03 9.511041e-09
1.176000e+03 4.117055e-09
1.177000e+03 1.851650e-05
1.178000e+03 1.722626e-05
1.179000e+03 1.609741e-05
1.180000e+03 1.428590e-05
1.181000e+03 1.419490e-05
1.182000e+03 1.361832e-05
1.183000e+03 1.216139e-05
1.184000e+03 1.151410e-05
1.185000e+03 1.109901e-05
1.186000e+03 4.028377e-07
1.187000e+03 1.091707e-05
1.188000e+03 9.672243e-06
1.189000e+03 1.038171e-05
1.190000e+03 1.005468e-05
1.191000e+03 9.382999e-06
1.192000e+03 8.373992e-06
1.193000e+03 8.282685e-06
1.194000e+03 7.988932e-06
1.195000e+03 7.587543e-06
1.196000e+03 3.208857e-04
1.197000e+03 2.921998e-04
1.198000e+03 2.343659e-06
1.199000e+03 2.177397e-04
1.200000e+03 2.015830e-05
1.201000e+03 1.492074e-04
1.202000e+03 1.064767e-04
1.203000e+03 9.633195e-05
1.204000e+03 2.268625e-05
1.205000e+03 5.553148e-05
1.206000e+03 4.008303e-05
1.207000e+03 3.818566e-06
1.208000e+03 1.681497e-05
1.209000e+03 1.131007e-05
1.210000e+03 2.723573e-08
1.211000e+03 3.523431e-06
1.212000e+03 1.589639e-06
1.213000e+03 6.173915e-07
1.214000e+03 1.632573e-07
1.215000e+03 2.921715e-08
1.216000e+03 2.668604e-08
1.217000e+03 1.024189e-07
1.218000e+03 5.104615e-07
1.219000e+03 1.573853e-06
1.220000e+03 3.440186e-06
1.221000e+03 8.450673e-06
1.222000e+03 1.610435e-05
1.223000e+03 2.637702e-05
1.224000e+03 3.916215e-05
1.225000e+03 4.955065e-06
1.226000e+03 1.029753e-04
1.227000e+03 1.551273e-04
1.228000e+03 1.003661e-04
1.229000e+03 2.872721e-04
1.230000e+03 2.685056e-04
1.231000e+03 4.859231e-05
1.232000e+03 5.928733e-04
1.233000e+03 7.413101e-04
1.234000e+03 8.390781e-04
1.235000e+03 1.051892e-03
1.236000e+03 3.652795e-04
1.237000e+03 1.442798e-03
1.238000e+03 1.647912e-03
1.239000e+03 1.460005e-03
1.240000e+03 3.249432e-04
1.241000e+03 1.787224e-03
1.242000e+03 2.509214e-03
1.243000e+03 2.875976e-03
1.244000e+03 3.166120e-03
1.245000e+03 3.382060e-03
1.246000e+03 3.367541e-03
1.247000e+03 3.789607e-03
1.248000e+03 3.219079e-03
1.249000e+03 4.589689e-03
1.250000e+03 3.370883e-03
1.251000e+03 5.097602e-03
1.252000e+03 4.967722e-03
1.253000e+03 5.406926e-03
1.254000e+03 5.147876e-03
1.255000e+03 5.722406e-04
1.256000e+03 3.593141e-03
1.257000e+03 2.106799e-03
1.258000e+03 4.715363e-03
1.259000e+03 5.353676e-03
1.260000e+03 6.131588e-03
1.261000e+03 3.166590e-05
1.262000e+03 6.276410e-03
1.263000e+03 6.042020e-03
1.264000e+03 4.810511e-03
1.265000e+03 6.348409e-03
1.266000e+03 8.204386e-03
1.267000e+03 8.534678e-03
