# wavelength_A flux
5.000000e+02 1.451365e+02
5.010000e+02 1.566150e+02
5.020000e+02 1.689533e+02
5.030000e+02 1.822183e+02
5.040000e+02 1.964714e+02
5.050000e+02 1.001597e+02
5.060000e+02 1.086423e+02
5.070000e+02 1.178036e+02
5.080000e+02 1.276945e+02
5.090000e+02 1.398170e+02
5.100000e+02 1.496295e+02
5.110000e+02 1.620365e+02
5.120000e+02 1.754136e+02
5.130000e+02 1.898320e+02
5.140000e+02 2.053690e+02
5.150000e+02 2.221094e+02
5.160000e+02 2.401304e+02
5.170000e+02 2.595526e+02
5.180000e+02 2.804188e+02
5.190000e+02 3.028894e+02
5.200000e+02 3.270607e+02
5.210000e+02 3.530729e+02
5.220000e+02 3.822984e+02
5.230000e+02 4.110424e+02
5.240000e+02 4.432151e+02
5.250000e+02 4.778029e+02
5.260000e+02 5.149706e+02
5.270000e+02 5.548629e+02
5.280000e+02 5.976700e+02
5.290000e+02 6.438526e+02
5.300000e+02 6.928491e+02
5.310000e+02 7.456249e+02
5.320000e+02 8.021255e+02
5.330000e+02 8.627513e+02
5.340000e+02 9.277076e+02
5.350000e+02 9.972730e+02
5.360000e+02 1.071971e+03
5.370000e+02 1.876868e+03
5.380000e+02 1.236992e+03
5.390000e+02 1.327920e+03
5.400000e+02 1.425124e+03
5.410000e+02 1.529458e+03
5.420000e+02 1.640631e+03
5.430000e+02 1.759612e+03
5.440000e+02 1.886738e+03
5.450000e+02 2.022487e+03
5.460000e+02 2.168175e+03
5.470000e+02 2.322146e+03
5.480000e+02 2.488842e+03
5.490000e+02 2.663375e+03
5.500000e+02 2.851213e+03
5.510000e+02 3.051489e+03
5.520000e+02 3.265002e+03
5.530000e+02 3.492535e+03
5.540000e+02 3.734556e+03
5.550000e+02 3.992783e+03
5.560000e+02 4.267748e+03
5.570000e+02 4.560444e+03
5.580000e+02 4.872029e+03
5.590000e+02 5.203591e+03
5.600000e+02 5.556364e+03
5.610000e+02 5.931528e+03
5.620000e+02 6.330446e+03
5.630000e+02 6.754561e+03
5.640000e+02 7.205331e+03
5.650000e+02 7.684311e+03
5.660000e+02 8.193122e+03
5.670000e+02 8.733548e+03
5.680000e+02 9.307373e+03
5.690000e+02 9.916618e+03
5.700000e+02 1.056209e+04
5.710000e+02 1.124816e+04
5.720000e+02 1.197761e+04
5.730000e+02 1.274775e+04
5.740000e+02 1.356626e+04
5.750000e+02 1.443041e+04
5.760000e+02 1.537980e+04
5.770000e+02 1.632457e+04
5.780000e+02 1.735693e+04
5.790000e+02 1.845034e+04
5.800000e+02 1.960849e+04
5.810000e+02 2.083506e+04
5.820000e+02 2.213441e+04
5.830000e+02 2.351556e+04
5.840000e+02 2.514755e+04
5.850000e+02 2.654207e+04
5.860000e+02 2.812425e+04
5.870000e+02 2.984005e+04
5.880000e+02 3.165247e+04
5.890000e+02 3.357286e+04
5.900000e+02 3.559856e+04
5.910000e+02 3.774147e+04
5.920000e+02 4.000523e+04
5.930000e+02 4.239596e+04
5.940000e+02 4.492077e+04
5.950000e+02 4.764603e+04
5.960000e+02 5.039766e+04
5.970000e+02 5.336526e+04
5.980000e+02 5.649289e+04
5.990000e+02 5.979503e+04
6.000000e+02 6.327753e+04
6.010000e+02 6.695130e+04
6.020000e+02 7.081980e+04
6.030000e+02 7.489905e+04
6.040000e+02 7.919788e+04
6.050000e+02 8.372636e+04
6.060000e+02 8.849841e+04
6.070000e+02 9.352057e+04
6.080000e+02 9.881048e+04
6.090000e+02 1.043794e+05
6.100000e+02 1.102409e+05
6.110000e+02 1.164093e+05
6.120000e+02 1.228993e+05
6.130000e+02 1.297266e+05
6.140000e+02 1.369090e+05
6.150000e+02 1.444584e+05
6.160000e+02 1.523976e+05
6.170000e+02 1.607434e+05
6.180000e+02 1.695154e+05
6.190000e+02 1.787325e+05
6.200000e+02 1.884158e+05
6.210000e+02 1.985910e+05
6.220000e+02 2.092744e+05
6.230000e+02 2.204927e+05
6.240000e+02 2.322704e+05
6.250000e+02 2.446286e+05
6.260000e+02 2.576038e+05
6.270000e+02 2.712197e+05
6.280000e+02 2.855039e+05
6.290000e+02 3.004883e+05
6.300000e+02 3.162048e+05
6.310000e+02 3.326841e+05
6.320000e+02 3.499443e+05
6.330000e+02 3.680556e+05
6.340000e+02 3.870383e+05
6.350000e+02 4.069320e+05
6.360000e+02 4.454099e+05
6.370000e+02 4.496069e+05
6.380000e+02 4.724757e+05
6.390000e+02 4.964254e+05
6.400000e+02 5.215059e+05
6.410000e+02 5.477619e+05
6.420000e+02 5.752438e+05
6.430000e+02 6.040144e+05
6.440000e+02 6.341097e+05
6.450000e+02 6.656131e+05
6.460000e+02 6.985322e+05
6.470000e+02 7.330148e+05
6.480000e+02 7.690106e+05
6.490000e+02 8.067033e+05
6.500000e+02 8.460486e+05
6.510000e+02 8.872066e+05
6.520000e+02 9.302223e+05
6.530000e+02 9.751714e+05
6.540000e+02 1.022133e+06
6.550000e+02 1.071190e+06
6.560000e+02 1.122430e+06
6.570000e+02 1.176010e+06
6.580000e+02 1.231813e+06
6.590000e+02 1.290143e+06
6.600000e+02 1.351048e+06
6.610000e+02 1.414594e+06
6.620000e+02 1.480911e+06
6.630000e+02 1.550120e+06
6.640000e+02 1.622294e+06
6.650000e+02 1.697634e+06
6.660000e+02 1.776156e+06
6.670000e+02 1.858052e+06
6.680000e+02 1.943436e+06
6.690000e+02 2.032341e+06
6.700000e+02 2.125143e+06
6.710000e+02 2.222722e+06
6.720000e+02 2.497580e+06
6.730000e+02 2.427572e+06
6.740000e+02 2.536944e+06
6.750000e+02 2.650872e+06
6.760000e+02 2.769526e+06
6.770000e+02 2.893088e+06
6.780000e+02 3.021743e+06
6.790000e+02 3.155685e+06
6.800000e+02 3.295210e+06
6.810000e+02 3.440324e+06
6.820000e+02 3.591321e+06
6.830000e+02 3.748440e+06
6.840000e+02 3.911905e+06
6.850000e+02 4.081963e+06
6.860000e+02 4.258827e+06
6.870000e+02 4.443600e+06
6.880000e+02 4.634039e+06
6.890000e+02 4.832939e+06
6.900000e+02 5.039734e+06
6.910000e+02 5.254486e+06
6.920000e+02 5.477799e+06
6.930000e+02 5.709870e+06
6.940000e+02 5.951001e+06
6.950000e+02 6.201516e+06
6.960000e+02 6.461748e+06
6.970000e+02 6.732666e+06
6.980000e+02 7.012740e+06
6.990000e+02 7.304293e+06
7.000000e+02 7.606936e+06
7.010000e+02 7.921103e+06
7.020000e+02 8.247227e+06
7.030000e+02 8.585716e+06
7.040000e+02 8.936497e+06
7.050000e+02 9.301128e+06
7.060000e+02 9.679346e+06
7.070000e+02 1.007157e+07
7.080000e+02 1.047848e+07
7.090000e+02 1.090057e+07
7.100000e+02 1.133820e+07
7.110000e+02 1.179197e+07
7.120000e+02 1.226246e+07
7.130000e+02 1.275021e+07
7.140000e+02 1.325579e+07
7.150000e+02 1.377979e+07
7.160000e+02 1.432282e+07
7.170000e+02 1.488591e+07
7.180000e+02 1.546991e+07
7.190000e+02 1.607256e+07
7.200000e+02 1.669814e+07
7.210000e+02 1.734610e+07
7.220000e+02 1.801714e+07
7.230000e+02 1.871194e+07
7.240000e+02 1.943138e+07
7.250000e+02 2.017633e+07
7.260000e+02 2.094717e+07
7.270000e+02 2.174512e+07
7.280000e+02 2.257099e+07
7.290000e+02 2.342564e+07
7.300000e+02 2.470612e+07
7.310000e+02 2.522483e+07
7.320000e+02 2.631329e+07
7.330000e+02 2.715024e+07
7.340000e+02 2.816279e+07
7.350000e+02 2.922452e+07
7.360000e+02 3.029083e+07
7.370000e+02 3.140980e+07
7.380000e+02 3.256709e+07
7.390000e+02 3.376375e+07
7.400000e+02 3.500027e+07
7.410000e+02 3.627871e+07
7.420000e+02 3.759975e+07
7.430000e+02 3.896411e+07
7.440000e+02 4.037412e+07
7.450000e+02 4.183079e+07
7.460000e+02 4.333551e+07
7.470000e+02 4.489718e+07
7.480000e+02 4.649597e+07
7.490000e+02 4.815346e+07
7.500000e+02 4.987242e+07
7.510000e+02 5.163248e+07
7.520000e+02 5.345698e+07
7.530000e+02 5.534029e+07
7.540000e+02 5.728427e+07
7.550000e+02 5.929139e+07
7.560000e+02 6.136112e+07
7.570000e+02 6.350091e+07
7.580000e+02 6.570202e+07
7.590000e+02 6.797772e+07
7.600000e+02 7.032246e+07
7.610000e+02 7.274198e+07
7.620000e+02 7.523975e+07
7.630000e+02 7.781386e+07
7.640000e+02 8.046949e+07
7.650000e+02 8.320045e+07
7.660000e+02 8.602337e+07
7.670000e+02 8.893059e+07
7.680000e+02 9.193186e+07
7.690000e+02 9.501942e+07
7.700000e+02 9.820451e+07
7.710000e+02 1.014870e+08
7.720000e+02 1.048699e+08
7.730000e+02 1.083548e+08
7.740000e+02 1.119479e+08
7.750000e+02 1.156468e+08
7.760000e+02 1.194933e+08
7.770000e+02 1.233815e+08
7.780000e+02 1.274229e+08
7.790000e+02 1.315850e+08
7.800000e+02 1.358708e+08
7.810000e+02 1.402833e+08
7.820000e+02 1.448309e+08
7.830000e+02 1.495090e+08
7.840000e+02 1.543218e+08
7.850000e+02 1.592768e+08
7.860000e+02 1.643767e+08
7.870000e+02 1.696233e+08
7.880000e+02 1.750236e+08
7.890000e+02 1.805802e+08
7.900000e+02 1.863012e+08
7.910000e+02 1.921778e+08
7.920000e+02 1.982267e+08
7.930000e+02 2.044369e+08
7.940000e+02 2.108420e+08
7.950000e+02 2.174170e+08
7.960000e+02 2.241844e+08
7.970000e+02 2.311428e+08
7.980000e+02 2.382983e+08
7.990000e+02 2.456521e+08
8.000000e+02 2.532131e+08
8.010000e+02 2.609862e+08
8.020000e+02 2.689730e+08
8.030000e+02 2.771852e+08
8.040000e+02 2.856193e+08
8.050000e+02 2.942924e+08
8.060000e+02 3.032040e+08
8.070000e+02 3.123561e+08
8.080000e+02 3.217591e+08
8.090000e+02 3.314167e+08
8.100000e+02 3.413382e+08
8.110000e+02 3.515300e+08
8.120000e+02 3.619969e+08
8.130000e+02 3.727396e+08
8.140000e+02 3.837750e+08
8.150000e+02 3.951181e+08
8.160000e+02 4.067394e+08
8.170000e+02 4.186865e+08
8.180000e+02 4.309429e+08
8.190000e+02 4.435018e+08
8.200000e+02 4.564189e+08
8.210000e+02 4.696734e+08
8.220000e+02 4.832772e+08
8.230000e+02 4.972341e+08
8.240000e+02 5.115507e+08
8.250000e+02 5.262468e+08
8.260000e+02 5.413251e+08
8.270000e+02 5.567921e+08
8.280000e+02 5.726586e+08
8.290000e+02 5.889332e+08
8.300000e+02 6.056249e+08
8.310000e+02 6.227638e+08
8.320000e+02 6.403198e+08
8.330000e+02 6.583309e+08
8.340000e+02 6.767841e+08
8.350000e+02 6.959395e+08
8.360000e+02 7.151564e+08
8.370000e+02 7.350166e+08
8.380000e+02 7.554059e+08
8.390000e+02 7.763023e+08
8.400000e+02 7.977167e+08
8.410000e+02 8.196715e+08
8.420000e+02 8.427050e+08
8.430000e+02 8.652093e+08
8.440000e+02 8.887732e+08
8.450000e+02 9.129693e+08
8.460000e+02 9.377652e+08
8.470000e+02 9.631533e+08
8.480000e+02 9.892364e+08
8.490000e+02 1.015813e+09
8.500000e+02 1.043102e+09
8.510000e+02 1.071058e+09
8.520000e+02 1.099701e+09
8.530000e+02 1.129013e+09
8.540000e+02 1.158992e+09
8.550000e+02 1.189720e+09
8.560000e+02 1.221181e+09
8.570000e+02 1.253390e+09
8.580000e+02 1.286369e+09
8.590000e+02 1.320112e+09
8.600000e+02 1.354656e+09
8.610000e+02 1.390012e+09
8.620000e+02 1.426199e+09
8.630000e+02 1.463308e+09
8.640000e+02 1.501163e+09
8.650000e+02 1.539937e+09
8.660000e+02 1.579601e+09
8.670000e+02 1.620187e+09
8.680000e+02 1.661606e+09
8.690000e+02 1.704079e+09
8.700000e+02 1.747573e+09
8.710000e+02 1.791963e+09
8.720000e+02 1.837414e+09
8.730000e+02 1.883905e+09
8.740000e+02 1.931434e+09
8.750000e+02 1.980044e+09
8.760000e+02 2.029754e+09
8.770000e+02 2.080580e+09
8.780000e+02 2.132533e+09
8.790000e+02 2.185654e+09
8.800000e+02 2.239974e+09
8.810000e+02 2.295473e+09
8.820000e+02 2.352220e+09
8.830000e+02 2.410212e+09
8.840000e+02 2.469488e+09
8.850000e+02 2.530067e+09
8.860000e+02 2.592210e+09
8.870000e+02 2.655240e+09
8.880000e+02 2.719880e+09
8.890000e+02 2.785925e+09
8.900000e+02 2.853491e+09
8.910000e+02 2.922344e+09
8.920000e+02 3.039118e+09
8.930000e+02 3.064701e+09
8.940000e+02 3.138271e+09
8.950000e+02 3.213313e+09
8.960000e+02 3.289883e+09
8.970000e+02 3.368166e+09
8.980000e+02 3.448037e+09
8.990000e+02 3.529672e+09
9.000000e+02 3.613031e+09
9.010000e+02 3.698142e+09
9.020000e+02 3.785042e+09
9.030000e+02 3.873766e+09
9.040000e+02 3.965595e+09
9.050000e+02 4.056805e+09
9.060000e+02 4.151161e+09
9.070000e+02 4.248119e+09
9.080000e+02 4.345812e+09
9.090000e+02 4.446154e+09
9.100000e+02 4.548561e+09
9.110000e+02 4.653037e+09
9.120000e+02 4.759498e+09
9.130000e+02 4.972585e+09
9.140000e+02 4.957444e+09
9.150000e+02 5.647512e+09
9.160000e+02 7.948466e+09
9.170000e+02 8.647880e+09
9.180000e+02 7.561845e+09
9.190000e+02 1.420435e+10
9.200000e+02 2.284527e+10
9.210000e+02 6.726747e+09
9.220000e+02 3.333088e+10
9.230000e+02 9.008106e+09
9.240000e+02 3.053729e+10
9.250000e+02 4.486224e+10
9.260000e+02 1.210749e+10
9.270000e+02 3.520188e+10
9.280000e+02 6.295242e+10
9.290000e+02 5.360158e+10
9.300000e+02 3.601442e+10
9.310000e+02 1.436440e+10
9.320000e+02 5.810955e+10
9.330000e+02 8.190157e+10
9.340000e+02 9.203949e+10
9.350000e+02 4.517213e+10
9.360000e+02 7.873050e+10
9.370000e+02 2.645127e+10
9.380000e+02 1.379216e+10
9.390000e+02 6.372237e+10
9.400000e+02 9.495514e+10
9.410000e+02 8.035004e+10
9.420000e+02 1.179320e+11
9.430000e+02 1.225800e+11
9.440000e+02 6.648250e+10
9.450000e+02 1.254875e+11
9.460000e+02 1.237929e+11
9.470000e+02 9.059720e+10
9.480000e+02 9.388120e+10
9.490000e+02 4.962483e+10
9.500000e+02 1.930644e+10
9.510000e+02 7.712642e+10
9.520000e+02 1.174077e+11
9.530000e+02 1.354275e+11
9.540000e+02 1.194214e+11
9.550000e+02 1.534484e+11
9.560000e+02 1.530953e+11
9.570000e+02 1.387492e+11
9.580000e+02 1.645102e+11
9.590000e+02 1.693540e+11
9.600000e+02 4.698687e+10
9.610000e+02 1.755345e+11
9.620000e+02 1.737159e+11
9.630000e+02 1.806981e+11
9.640000e+02 1.401228e+10
9.650000e+02 1.657402e+11
9.660000e+02 1.860949e+11
9.670000e+02 1.854160e+11
9.680000e+02 1.803088e+11
9.690000e+02 1.771633e+11
9.700000e+02 1.622530e+11
9.710000e+02 1.258653e+11
9.720000e+02 5.309229e+10
9.730000e+02 4.776386e+10
9.740000e+02 1.275774e+11
9.750000e+02 1.733446e+11
9.760000e+02 1.974407e+11
9.770000e+02 2.106803e+11
9.780000e+02 2.194931e+11
9.790000e+02 2.264202e+11
9.800000e+02 2.319727e+11
9.810000e+02 2.366638e+11
9.820000e+02 2.351940e+11
9.830000e+02 2.451019e+11
9.840000e+02 8.125855e+10
9.850000e+02 2.533314e+11
9.860000e+02 2.571846e+11
9.870000e+02 2.597728e+11
9.880000e+02 2.549616e+11
9.890000e+02 1.429981e+11
9.900000e+02 2.623762e+10
9.910000e+02 2.737814e+11
9.920000e+02 2.568728e+11
9.930000e+02 2.682778e+11
9.940000e+02 4.544039e+10
9.950000e+02 5.407578e+10
9.960000e+02 4.265560e+10
9.970000e+02 6.060235e+10
9.980000e+02 3.047366e+11
9.990000e+02 2.997078e+11
1.000000e+03 3.141339e+11
1.001000e+03 3.188359e+11
1.002000e+03 3.226529e+11
1.003000e+03 2.347317e+11
1.004000e+03 3.321284e+11
1.005000e+03 2.640636e+11
1.006000e+03 3.410919e+11
1.007000e+03 3.456151e+11
1.008000e+03 3.498030e+11
1.009000e+03 3.163012e+11
1.010000e+03 3.593116e+11
1.011000e+03 3.639467e+11
1.012000e+03 3.678233e+11
1.013000e+03 3.727680e+11
1.014000e+03 3.773370e+11
1.015000e+03 3.676140e+11
1.016000e+03 3.842561e+11
1.017000e+03 3.887147e+11
1.018000e+03 3.910225e+11
1.019000e+03 3.925359e+11
1.020000e+03 3.911039e+11
1.021000e+03 3.220989e+11
1.022000e+03 3.670927e+11
1.023000e+03 3.427019e+11
1.024000e+03 2.703435e+11
1.025000e+03 1.368129e+11
1.026000e+03 6.925392e+10
1.027000e+03 2.274650e+11
1.028000e+03 1.454424e+11
1.029000e+03 3.988675e+11
1.030000e+03 4.174248e+11
1.031000e+03 4.549658e+11
1.032000e+03 4.530361e+11
1.033000e+03 3.035400e+11
1.034000e+03 4.931023e+11
1.035000e+03 1.208252e+11
1.036000e+03 5.001592e+11
1.037000e+03 5.593907e+10
1.038000e+03 5.260148e+11
1.039000e+03 5.184925e+11
1.040000e+03 5.414550e+11
1.041000e+03 5.464718e+11
1.042000e+03 4.724745e+11
1.043000e+03 5.563434e+11
1.044000e+03 5.582522e+11
1.045000e+03 5.770522e+11
1.046000e+03 5.848796e+11
1.047000e+03 5.915798e+11
1.048000e+03 5.677718e+11
1.049000e+03 6.003980e+11
1.050000e+03 6.169354e+11
1.051000e+03 6.247179e+11
1.052000e+03 6.324155e+11
1.053000e+03 5.824661e+11
1.054000e+03 6.475455e+11
1.055000e+03 6.559102e+11
1.056000e+03 6.646335e+11
1.057000e+03 6.706640e+11
1.058000e+03 6.799768e+11
1.059000e+03 6.889237e+11
1.060000e+03 6.977745e+11
1.061000e+03 7.063918e+11
1.062000e+03 7.148174e+11
1.063000e+03 4.420811e+11
1.064000e+03 1.508120e+11
1.065000e+03 7.773509e+11
1.066000e+03 7.526214e+11
1.067000e+03 6.280865e+11
1.068000e+03 8.077113e+11
1.069000e+03 8.177478e+11
1.070000e+03 7.428299e+11
1.071000e+03 8.390018e+11
1.072000e+03 8.481142e+11
1.073000e+03 8.590884e+11
1.074000e+03 8.682454e+11
1.075000e+03 8.753648e+11
1.076000e+03 8.892460e+11
1.077000e+03 8.947024e+11
1.078000e+03 9.083761e+11
1.079000e+03 9.111274e+11
1.080000e+03 9.249435e+11
1.081000e+03 9.427497e+11
1.082000e+03 9.532574e+11
1.083000e+03 9.612292e+11
1.084000e+03 4.023646e+11
1.085000e+03 7.884298e+11
1.086000e+03 9.985819e+11
1.087000e+03 1.007544e+12
1.088000e+03 1.017154e+12
1.089000e+03 1.029154e+12
1.090000e+03 1.037018e+12
1.091000e+03 1.056321e+12
1.092000e+03 1.068468e+12
1.093000e+03 1.079443e+12
1.094000e+03 1.092898e+12
1.095000e+03 1.097679e+12
1.096000e+03 1.116028e+12
1.097000e+03 1.119546e+12
1.098000e+03 1.062412e+12
1.099000e+03 1.147751e+12
1.100000e+03 1.148991e+12
1.101000e+03 1.103447e+12
1.102000e+03 1.861462e+12
1.103000e+03 3.428930e+12
1.104000e+03 2.039567e+12
1.105000e+03 1.151973e+12
1.106000e+03 5.259649e+12
1.107000e+03 5.126228e+12
1.108000e+03 5.376334e+12
1.109000e+03 3.115513e+12
1.110000e+03 1.070959e+12
1.111000e+03 2.012627e+12
1.112000e+03 4.978873e+12
1.113000e+03 5.621005e+12
1.114000e+03 9.078574e+11
1.115000e+03 5.567843e+12
1.116000e+03 5.700187e+12
1.117000e+03 1.012327e+12
1.118000e+03 4.922961e+12
1.119000e+03 5.803592e+12
1.120000e+03 5.903031e+12
1.121000e+03 4.137167e+12
1.122000e+03 2.186289e+11
1.123000e+03 1.585692e+12
1.124000e+03 6.017387e+12
1.125000e+03 2.549243e+12
1.126000e+03 6.176246e+12
1.127000e+03 6.051038e+12
1.128000e+03 3.461116e+12
1.129000e+03 6.182728e+12
1.130000e+03 3.945782e+12
1.131000e+03 6.522735e+12
1.132000e+03 5.652118e+11
1.133000e+03 6.130363e+12
1.134000e+03 6.595925e+12
1.135000e+03 3.010294e+11
1.136000e+03 6.400211e+12
1.137000e+03 6.903432e+12
1.138000e+03 7.005126e+12
1.139000e+03 6.832548e+12
1.140000e+03 4.253182e+11
1.141000e+03 7.177167e+12
1.142000e+03 5.910758e+12
1.143000e+03 7.244282e+12
1.144000e+03 7.328607e+12
1.145000e+03 6.477561e+12
1.146000e+03 7.347165e+12
1.147000e+03 7.449522e+12
1.148000e+03 7.532017e+12
1.149000e+03 7.652972e+12
1.150000e+03 7.050955e+12
1.151000e+03 7.736108e+12
1.152000e+03 7.568200e+12
1.153000e+03 2.315406e+12
1.154000e+03 7.376580e+11
1.155000e+03 6.661794e+12
1.156000e+03 3.514850e+12
1.157000e+03 8.124168e+12
1.158000e+03 5.448305e+11
1.159000e+03 7.143466e+12
1.160000e+03 7.946784e+12
1.161000e+03 8.430382e+12
1.162000e+03 1.532124e+12
1.163000e+03 7.510094e+12
1.164000e+03 9.606471e+11
1.165000e+03 8.681726e+12
1.166000e+03 8.407948e+12
1.167000e+03 7.218122e+12
1.168000e+03 8.865783e+12
1.169000e+03 8.570919e+12
1.170000e+03 9.027647e+12
1.171000e+03 9.090037e+12
1.172000e+03 7.920878e+12
1.173000e+03 9.130135e+12
1.174000e+03 8.734463e+12
1.175000e+03 9.713652e+11
1.176000e+03 6.770136e+11
1.177000e+03 8.983732e+12
1.178000e+03 7.788884e+12
1.179000e+03 9.461876e+12
1.180000e+03 7.059400e+12
1.181000e+03 9.208290e+12
1.182000e+03 9.682472e+12
1.183000e+03 9.702294e+12
1.184000e+03 9.760543e+12
1.185000e+03 8.724856e+12
1.186000e+03 9.799652e+12
1.187000e+03 9.834690e+12
1.188000e+03 8.526544e+12
1.189000e+03 7.043660e+11
1.190000e+03 3.112972e+12
1.191000e+03 9.519921e+12
1.192000e+03 9.671583e+12
1.193000e+03 5.243981e+11
1.194000e+03 8.078948e+11
1.195000e+03 4.778765e+12
1.196000e+03 9.482606e+12
1.197000e+03 9.562061e+12
1.198000e+03 9.720186e+12
1.199000e+03 9.541873e+12
1.200000e+03 8.943406e+12
1.201000e+03 9.051895e+12
1.202000e+03 8.881713e+12
1.203000e+03 8.792513e+12
1.204000e+03 8.215158e+12
1.205000e+03 7.887145e+12
1.206000e+03 5.441122e+12
1.207000e+03 4.856067e+12
1.208000e+03 6.075560e+12
1.209000e+03 4.811885e+12
1.210000e+03 1.095358e+12
1.211000e+03 3.603103e+12
1.212000e+03 2.702472e+12
1.213000e+03 1.882658e+12
1.214000e+03 1.195591e+12
1.215000e+03 7.546023e+11
1.216000e+03 6.783255e+11
1.217000e+03 1.043501e+12
1.218000e+03 1.708779e+12
1.219000e+03 2.594384e+12
1.220000e+03 3.600047e+12
1.221000e+03 4.644310e+12
1.222000e+03 5.686708e+12
1.223000e+03 6.691039e+12
1.224000e+03 7.638644e+12
1.225000e+03 8.504662e+12
1.226000e+03 9.202567e+12
1.227000e+03 1.006433e+13
1.228000e+03 1.090563e+13
1.229000e+03 1.142195e+13
1.230000e+03 1.211333e+13
1.231000e+03 1.282468e+13
1.232000e+03 1.341465e+13
1.233000e+03 1.395675e+13
1.234000e+03 1.147222e+13
1.235000e+03 1.481574e+13
1.236000e+03 1.540429e+13
1.237000e+03 1.574459e+13
1.238000e+03 1.623634e+13
1.239000e+03 1.665930e+13
1.240000e+03 1.603905e+13
1.241000e+03 2.256715e+13
1.242000e+03 1.597906e+13
1.243000e+03 1.993327e+13
1.244000e+03 1.150450e+13
1.245000e+03 1.516094e+13
1.246000e+03 2.798583e+13
1.247000e+03 3.027862e+13
1.248000e+03 1.230239e+13
1.249000e+03 1.411000e+13
1.250000e+03 3.394700e+13
1.251000e+03 3.390958e+13
1.252000e+03 3.301189e+13
1.253000e+03 3.820550e+13
1.254000e+03 3.921890e+13
1.255000e+03 3.886789e+13
1.256000e+03 3.900201e+13
1.257000e+03 4.331863e+13
1.258000e+03 4.372727e+13
1.259000e+03 4.283454e+13
1.260000e+03 3.860753e+13
1.261000e+03 1.241347e+12
1.262000e+03 8.576815e+12
1.263000e+03 5.047365e+13
1.264000e+03 4.656562e+13
1.265000e+03 1.179222e+12
1.266000e+03 5.441352e+13
1.267000e+03 5.892123e+13
