# wavelength_A flux
5.000000e+02 2.949614e-25
5.010000e+02 3.617715e-25
5.020000e+02 4.433455e-25
5.030000e+02 5.428639e-25
5.040000e+02 6.641751e-25
5.050000e+02 8.207744e-25
5.060000e+02 1.002330e-24
5.070000e+02 1.222914e-24
5.080000e+02 1.491092e-24
5.090000e+02 1.816482e-24
5.100000e+02 2.186582e-24
5.110000e+02 2.689440e-24
5.120000e+02 3.268288e-24
5.130000e+02 3.969535e-24
5.140000e+02 4.817001e-24
5.150000e+02 5.840900e-24
5.160000e+02 7.077034e-24
5.170000e+02 8.568449e-24
5.180000e+02 1.036627e-23
5.190000e+02 1.253193e-23
5.200000e+02 1.513876e-23
5.210000e+02 1.827433e-23
5.220000e+02 2.204173e-23
5.230000e+02 2.656978e-23
5.240000e+02 3.200289e-23
5.250000e+02 3.851903e-23
5.260000e+02 4.632862e-23
5.270000e+02 5.568177e-23
5.280000e+02 6.687566e-23
5.290000e+02 8.026289e-23
5.300000e+02 9.626306e-23
5.310000e+02 1.153718e-22
5.320000e+02 1.381776e-22
5.330000e+02 1.653772e-22
5.340000e+02 1.977950e-22
5.350000e+02 2.364058e-22
5.360000e+02 2.823609e-22
5.370000e+02 3.357911e-22
5.380000e+02 4.019959e-22
5.390000e+02 4.791771e-22
5.400000e+02 5.707952e-22
5.410000e+02 6.794731e-22
5.420000e+02 8.083300e-22
5.430000e+02 9.609843e-22
5.440000e+02 1.141725e-21
5.450000e+02 1.355582e-21
5.460000e+02 1.608460e-21
5.470000e+02 1.907297e-21
5.480000e+02 2.260213e-21
5.490000e+02 2.676738e-21
5.500000e+02 3.168027e-21
5.510000e+02 3.747142e-21
5.520000e+02 4.429362e-21
5.530000e+02 5.232549e-21
5.540000e+02 6.177574e-21
5.550000e+02 7.288811e-21
5.560000e+02 8.594702e-21
5.570000e+02 1.012842e-20
5.580000e+02 1.192865e-20
5.590000e+02 1.404042e-20
5.600000e+02 1.651620e-20
5.610000e+02 1.941702e-20
5.620000e+02 2.281386e-20
5.630000e+02 2.678923e-20
5.640000e+02 3.143896e-20
5.650000e+02 3.687431e-20
5.660000e+02 4.322439e-20
5.670000e+02 5.063891e-20
5.680000e+02 5.929140e-20
5.690000e+02 6.938285e-20
5.700000e+02 8.114598e-20
5.710000e+02 9.485005e-20
5.720000e+02 1.108065e-19
5.730000e+02 1.293752e-19
5.740000e+02 1.509720e-19
5.750000e+02 1.760769e-19
5.760000e+02 2.052436e-19
5.770000e+02 2.391133e-19
5.780000e+02 2.784194e-19
5.790000e+02 3.240119e-19
5.800000e+02 3.768681e-19
5.810000e+02 4.381127e-19
5.820000e+02 5.090396e-19
5.830000e+02 5.911354e-19
5.840000e+02 6.860790e-19
5.850000e+02 7.959245e-19
5.860000e+02 9.228508e-19
5.870000e+02 1.069454e-18
5.880000e+02 1.238707e-18
5.890000e+02 1.434012e-18
5.900000e+02 1.659263e-18
5.910000e+02 1.918922e-18
5.920000e+02 2.218097e-18
5.930000e+02 2.562627e-18
5.940000e+02 2.959194e-18
5.950000e+02 3.415432e-18
5.960000e+02 3.940062e-18
5.970000e+02 4.543043e-18
5.980000e+02 5.235739e-18
5.990000e+02 6.031114e-18
6.000000e+02 6.943951e-18
6.010000e+02 7.991096e-18
6.020000e+02 9.191738e-18
6.030000e+02 1.056773e-17
6.040000e+02 1.214393e-17
6.050000e+02 1.394863e-17
6.060000e+02 1.601400e-17
6.070000e+02 1.837658e-17
6.080000e+02 2.107790e-17
6.090000e+02 2.416510e-17
6.100000e+02 2.769171e-17
6.110000e+02 3.171843e-17
6.120000e+02 3.631410e-17
6.130000e+02 4.155675e-17
6.140000e+02 4.753479e-17
6.150000e+02 5.434832e-17
6.160000e+02 6.211069e-17
6.170000e+02 7.095011e-17
6.180000e+02 8.101161e-17
6.190000e+02 9.245914e-17
6.200000e+02 1.054780e-16
6.210000e+02 1.202774e-16
6.220000e+02 1.370937e-16
6.230000e+02 1.561935e-16
6.240000e+02 1.778777e-16
6.250000e+02 2.024855e-16
6.260000e+02 2.303994e-16
6.270000e+02 2.620501e-16
6.280000e+02 2.979228e-16
6.290000e+02 3.385641e-16
6.300000e+02 3.845885e-16
6.310000e+02 4.366712e-16
6.320000e+02 4.956391e-16
6.330000e+02 5.623169e-16
6.340000e+02 6.377032e-16
6.350000e+02 7.229000e-16
6.360000e+02 8.191476e-16
6.370000e+02 9.278334e-16
6.380000e+02 1.050517e-15
6.390000e+02 1.188946e-15
6.400000e+02 1.345079e-15
6.410000e+02 1.521112e-15
6.420000e+02 1.719503e-15
6.430000e+02 1.943005e-15
6.440000e+02 2.194699e-15
6.450000e+02 2.478032e-15
6.460000e+02 2.796858e-15
6.470000e+02 3.155486e-15
6.480000e+02 3.558733e-15
6.490000e+02 4.011977e-15
6.500000e+02 4.521226e-15
6.510000e+02 5.093186e-15
6.520000e+02 5.735339e-15
6.530000e+02 6.456032e-15
6.540000e+02 7.264572e-15
6.550000e+02 8.171334e-15
6.560000e+02 9.187876e-15
6.570000e+02 1.032707e-14
6.580000e+02 1.160327e-14
6.590000e+02 1.303241e-14
6.600000e+02 1.463226e-14
6.610000e+02 1.642256e-14
6.620000e+02 1.842528e-14
6.630000e+02 2.066482e-14
6.640000e+02 2.316830e-14
6.650000e+02 2.596585e-14
6.660000e+02 2.909092e-14
6.670000e+02 3.258063e-14
6.680000e+02 3.647618e-14
6.690000e+02 4.082327e-14
6.700000e+02 4.567257e-14
6.710000e+02 5.108025e-14
6.720000e+02 5.710856e-14
6.730000e+02 6.382645e-14
6.740000e+02 7.131026e-14
6.750000e+02 7.964454e-14
6.760000e+02 8.892281e-14
6.770000e+02 9.924859e-14
6.780000e+02 1.107363e-13
6.790000e+02 1.235125e-13
6.800000e+02 1.377171e-13
6.810000e+02 1.535044e-13
6.820000e+02 1.710454e-13
6.830000e+02 1.905283e-13
6.840000e+02 2.121613e-13
6.850000e+02 2.361738e-13
6.860000e+02 2.628191e-13
6.870000e+02 2.923765e-13
6.880000e+02 3.251538e-13
6.890000e+02 3.614904e-13
6.900000e+02 4.017600e-13
6.910000e+02 4.463745e-13
6.920000e+02 4.957873e-13
6.930000e+02 5.504974e-13
6.940000e+02 6.110542e-13
6.950000e+02 6.780617e-13
6.960000e+02 7.521845e-13
6.970000e+02 8.341532e-13
6.980000e+02 9.247707e-13
6.990000e+02 1.024920e-12
7.000000e+02 1.135569e-12
7.010000e+02 1.257783e-12
7.020000e+02 1.392730e-12
7.030000e+02 1.541694e-12
7.040000e+02 1.706080e-12
7.050000e+02 1.887433e-12
7.060000e+02 2.087444e-12
7.070000e+02 2.307972e-12
7.080000e+02 2.551047e-12
7.090000e+02 2.818899e-12
7.100000e+02 3.113966e-12
7.110000e+02 3.438923e-12
7.120000e+02 3.796695e-12
7.130000e+02 4.190483e-12
7.140000e+02 4.623790e-12
7.150000e+02 5.100449e-12
7.160000e+02 5.624650e-12
7.170000e+02 6.200972e-12
7.180000e+02 6.834423e-12
7.190000e+02 7.530474e-12
7.200000e+02 8.295097e-12
7.210000e+02 9.134821e-12
7.220000e+02 1.005677e-11
7.230000e+02 1.106871e-11
7.240000e+02 1.217914e-11
7.250000e+02 1.339731e-11
7.260000e+02 1.473331e-11
7.270000e+02 1.619814e-11
7.280000e+02 1.780382e-11
7.290000e+02 1.956340e-11
7.300000e+02 2.149113e-11
7.310000e+02 2.360252e-11
7.320000e+02 2.591447e-11
7.330000e+02 2.844537e-11
7.340000e+02 3.121522e-11
7.350000e+02 3.424581e-11
7.360000e+02 3.756083e-11
7.370000e+02 4.118603e-11
7.380000e+02 4.514944e-11
7.390000e+02 4.948148e-11
7.400000e+02 5.421527e-11
7.410000e+02 5.938674e-11
7.420000e+02 6.503494e-11
7.430000e+02 7.120227e-11
7.440000e+02 7.793477e-11
7.450000e+02 8.528241e-11
7.460000e+02 9.329939e-11
7.470000e+02 1.020445e-10
7.480000e+02 1.115817e-10
7.490000e+02 1.219800e-10
7.500000e+02 1.333144e-10
7.510000e+02 1.456663e-10
7.520000e+02 1.591236e-10
7.530000e+02 1.737820e-10
7.540000e+02 1.897446e-10
7.550000e+02 2.071234e-10
7.560000e+02 2.260395e-10
7.570000e+02 2.466241e-10
7.580000e+02 2.690191e-10
7.590000e+02 2.933779e-10
7.600000e+02 3.198665e-10
7.610000e+02 3.486646e-10
7.620000e+02 3.799662e-10
7.630000e+02 4.139810e-10
7.640000e+02 4.509357e-10
7.650000e+02 4.910753e-10
7.660000e+02 5.346642e-10
7.670000e+02 5.819882e-10
7.680000e+02 6.333556e-10
7.690000e+02 6.890994e-10
7.700000e+02 7.495788e-10
7.710000e+02 8.151815e-10
7.720000e+02 8.863255e-10
7.730000e+02 9.634619e-10
7.740000e+02 1.047077e-09
7.750000e+02 1.137695e-09
7.760000e+02 1.235880e-09
7.770000e+02 1.342242e-09
7.780000e+02 1.457436e-09
7.790000e+02 1.582169e-09
7.800000e+02 1.717201e-09
7.810000e+02 1.863352e-09
7.820000e+02 2.021502e-09
7.830000e+02 2.192601e-09
7.840000e+02 2.377670e-09
7.850000e+02 2.577807e-09
7.860000e+02 2.794192e-09
7.870000e+02 3.028096e-09
7.880000e+02 3.280885e-09
7.890000e+02 3.554026e-09
7.900000e+02 3.849096e-09
7.910000e+02 4.167790e-09
7.920000e+02 4.511929e-09
7.930000e+02 4.883467e-09
7.940000e+02 5.284505e-09
7.950000e+02 5.717296e-09
7.960000e+02 6.184259e-09
7.970000e+02 6.687992e-09
7.980000e+02 7.231280e-09
7.990000e+02 7.817111e-09
8.000000e+02 8.448690e-09
8.010000e+02 9.129455e-09
8.020000e+02 9.863091e-09
8.030000e+02 1.065355e-08
8.040000e+02 1.150506e-08
8.050000e+02 1.242215e-08
8.060000e+02 1.340970e-08
8.070000e+02 1.447291e-08
8.080000e+02 1.561734e-08
8.090000e+02 1.684896e-08
8.100000e+02 1.817417e-08
8.110000e+02 1.959980e-08
8.120000e+02 2.113317e-08
8.130000e+02 2.278211e-08
8.140000e+02 2.455498e-08
8.150000e+02 2.646076e-08
8.160000e+02 2.850901e-08
8.170000e+02 3.070997e-08
8.180000e+02 3.307459e-08
8.190000e+02 3.561456e-08
8.200000e+02 3.834239e-08
8.210000e+02 4.127142e-08
8.220000e+02 4.441592e-08
8.230000e+02 4.779112e-08
8.240000e+02 5.141328e-08
8.250000e+02 5.529977e-08
8.260000e+02 5.946912e-08
8.270000e+02 6.394112e-08
8.280000e+02 6.873685e-08
8.290000e+02 7.387886e-08
8.300000e+02 7.939114e-08
8.310000e+02 8.529931e-08
8.320000e+02 9.163069e-08
8.330000e+02 9.841438e-08
8.340000e+02 1.056814e-07
8.350000e+02 1.134649e-07
8.360000e+02 1.218001e-07
8.370000e+02 1.307244e-07
8.380000e+02 1.402780e-07
8.390000e+02 1.505035e-07
8.400000e+02 1.614461e-07
8.410000e+02 1.731541e-07
8.420000e+02 1.856791e-07
8.430000e+02 1.990756e-07
8.440000e+02 2.134019e-07
8.450000e+02 2.287201e-07
8.460000e+02 2.450958e-07
8.470000e+02 2.625993e-07
8.480000e+02 2.813051e-07
8.490000e+02 3.012925e-07
8.500000e+02 3.226456e-07
8.510000e+02 3.454541e-07
8.520000e+02 3.698131e-07
8.530000e+02 3.958237e-07
8.540000e+02 4.235935e-07
8.550000e+02 4.532365e-07
8.560000e+02 4.848740e-07
8.570000e+02 5.186346e-07
8.580000e+02 5.546552e-07
8.590000e+02 5.930807e-07
8.600000e+02 6.340652e-07
8.610000e+02 6.777721e-07
8.620000e+02 7.243749e-07
8.630000e+02 7.740575e-07
8.640000e+02 8.270152e-07
8.650000e+02 8.834548e-07
8.660000e+02 9.435961e-07
8.670000e+02 1.007672e-06
8.680000e+02 1.075928e-06
8.690000e+02 1.148627e-06
8.700000e+02 1.226046e-06
8.710000e+02 1.308479e-06
8.720000e+02 1.396236e-06
8.730000e+02 1.489648e-06
8.740000e+02 1.589063e-06
8.750000e+02 1.694851e-06
8.760000e+02 1.807405e-06
8.770000e+02 1.927137e-06
8.780000e+02 2.054488e-06
8.790000e+02 2.189922e-06
8.800000e+02 2.333930e-06
8.810000e+02 2.487032e-06
8.820000e+02 2.649778e-06
8.830000e+02 2.822751e-06
8.840000e+02 3.006566e-06
8.850000e+02 3.201873e-06
8.860000e+02 3.409362e-06
8.870000e+02 3.629759e-06
8.880000e+02 3.863835e-06
8.890000e+02 4.112400e-06
8.900000e+02 4.376316e-06
8.910000e+02 4.656489e-06
8.920000e+02 4.953878e-06
8.930000e+02 5.269497e-06
8.940000e+02 5.604415e-06
8.950000e+02 5.959761e-06
8.960000e+02 6.336728e-06
8.970000e+02 6.736577e-06
8.980000e+02 7.160635e-06
8.990000e+02 7.610307e-06
9.000000e+02 8.087072e-06
9.010000e+02 8.592494e-06
9.020000e+02 9.128220e-06
9.030000e+02 9.695989e-06
9.040000e+02 1.029763e-05
9.050000e+02 1.093509e-05
9.060000e+02 1.161040e-05
9.070000e+02 1.232571e-05
9.080000e+02 1.308328e-05
9.090000e+02 1.388551e-05
9.100000e+02 1.473492e-05
9.110000e+02 1.563415e-05
9.120000e+02 1.658601e-05
9.130000e+02 1.759343e-05
9.140000e+02 1.886045e-05
9.150000e+02 2.896413e-03
9.160000e+02 1.326985e-02
9.170000e+02 6.532530e-04
9.180000e+02 3.752462e-03
9.190000e+02 3.398842e-02
9.200000e+02 8.135733e-02
9.210000e+02 2.806244e-05
9.220000e+02 2.922538e-02
9.230000e+02 6.576968e-04
9.240000e+02 1.274668e-03
9.250000e+02 6.474924e-03
9.260000e+02 5.037193e-03
9.270000e+02 9.464427e-04
9.280000e+02 3.074207e-01
9.290000e+02 3.422123e-01
9.300000e+02 9.794825e-02
9.310000e+02 8.848074e-04
9.320000e+02 2.879367e-01
9.330000e+02 2.916181e-02
9.340000e+02 1.039189e-02
9.350000e+02 1.757866e-03
9.360000e+02 2.063083e-03
9.370000e+02 4.610711e-04
9.380000e+02 1.229932e-03
9.390000e+02 4.458918e-03
9.400000e+02 2.099722e-01
9.410000e+02 3.638986e-02
9.420000e+02 9.052675e-01
9.430000e+02 6.634444e-03
9.440000e+02 1.018299e+00
9.450000e+02 8.990621e-01
9.460000e+02 8.383814e-02
9.470000e+02 5.044658e-04
9.480000e+02 3.480822e-01
9.490000e+02 5.650696e-02
9.500000e+02 1.779669e-03
9.510000e+02 5.834596e-02
9.520000e+02 1.184878e-01
9.530000e+02 1.760158e-03
9.540000e+02 5.865616e-04
9.550000e+02 1.754975e-02
9.560000e+02 1.196539e+00
9.570000e+02 9.002872e-03
9.580000e+02 3.289431e-04
9.590000e+02 7.059605e-01
9.600000e+02 3.265094e-03
9.610000e+02 9.984094e-02
9.620000e+02 4.003619e-02
9.630000e+02 1.428753e-02
9.640000e+02 1.489636e-03
9.650000e+02 1.372218e-03
9.660000e+02 1.918757e-02
9.670000e+02 4.552692e-03
9.680000e+02 2.993226e-03
9.690000e+02 9.224230e-02
9.700000e+02 7.877115e-02
9.710000e+02 5.665321e-03
9.720000e+02 3.590953e-03
9.730000e+02 1.442203e-02
9.740000e+02 9.005228e-02
9.750000e+02 3.335663e-02
9.760000e+02 6.306962e-01
9.770000e+02 3.487200e-01
9.780000e+02 1.299206e-01
9.790000e+02 3.473087e+00
9.800000e+02 3.434713e+00
9.810000e+02 1.105947e-01
9.820000e+02 2.378142e-02
9.830000e+02 2.033346e+00
9.840000e+02 2.077466e-01
9.850000e+02 5.939786e-02
9.860000e+02 8.388289e-02
9.870000e+02 2.469983e+00
9.880000e+02 3.424644e-03
9.890000e+02 4.096392e-01
9.900000e+02 5.818777e-01
9.910000e+02 2.049210e-02
9.920000e+02 1.661055e-03
9.930000e+02 6.536899e+00
9.940000e+02 2.503633e-03
9.950000e+02 4.893872e-01
9.960000e+02 9.396315e-03
9.970000e+02 4.370084e-01
9.980000e+02 1.172124e+00
9.990000e+02 3.917290e-02
1.000000e+03 9.734572e+00
1.001000e+03 8.419025e+00
1.002000e+03 5.767471e+00
1.003000e+03 4.591894e-02
1.004000e+03 6.146908e-03
1.005000e+03 1.192207e-01
1.006000e+03 3.997968e+00
1.007000e+03 7.186856e+00
1.008000e+03 2.051636e+00
1.009000e+03 7.083379e-02
1.010000e+03 2.253831e+00
1.011000e+03 4.296341e+00
1.012000e+03 2.648053e+00
1.013000e+03 2.291172e+00
1.014000e+03 4.543066e-03
1.015000e+03 9.160280e-03
1.016000e+03 1.360328e-01
1.017000e+03 4.789829e-03
1.018000e+03 7.149220e-02
1.019000e+03 9.406090e-03
1.020000e+03 6.075485e+00
1.021000e+03 8.881950e-02
1.022000e+03 1.336532e-01
1.023000e+03 1.596117e-02
1.024000e+03 1.116137e+00
1.025000e+03 6.448925e-03
1.026000e+03 1.079404e-02
1.027000e+03 3.320941e-01
1.028000e+03 5.325150e-02
1.029000e+03 8.656263e-03
1.030000e+03 6.071711e-01
1.031000e+03 6.836572e-01
1.032000e+03 6.901307e+00
1.033000e+03 4.052434e-01
1.034000e+03 1.123798e+00
1.035000e+03 3.640795e-02
1.036000e+03 1.304030e-02
1.037000e+03 5.937011e+00
1.038000e+03 3.137903e+01
1.039000e+03 6.441319e+00
1.040000e+03 8.015144e+00
1.041000e+03 4.789000e+01
1.042000e+03 2.137880e+01
1.043000e+03 2.064754e+01
1.044000e+03 8.492035e+01
1.045000e+03 3.242144e-02
1.046000e+03 9.116192e+00
1.047000e+03 2.136494e+00
1.048000e+03 9.665537e-02
1.049000e+03 2.653798e+00
1.050000e+03 1.051913e+00
1.051000e+03 6.024494e-01
1.052000e+03 2.286639e+01
1.053000e+03 5.273156e+01
1.054000e+03 2.595520e-02
1.055000e+03 6.786065e+01
1.056000e+03 6.941772e+01
1.057000e+03 5.578307e+00
1.058000e+03 6.971321e-01
1.059000e+03 3.407593e-01
1.060000e+03 1.501846e-01
1.061000e+03 8.300644e+00
1.062000e+03 3.940220e-01
1.063000e+03 7.032566e+00
1.064000e+03 5.964661e-02
1.065000e+03 4.230118e-02
1.066000e+03 1.154777e+01
1.067000e+03 3.352996e-01
1.068000e+03 1.496350e+02
1.069000e+03 1.211836e-01
1.070000e+03 4.516754e+00
1.071000e+03 5.834110e+01
1.072000e+03 9.387897e+01
1.073000e+03 6.974792e-02
1.074000e+03 5.815578e+00
1.075000e+03 3.578690e+00
1.076000e+03 1.097119e+02
1.077000e+03 4.307795e-01
1.078000e+03 8.842087e-01
1.079000e+03 3.239769e+00
1.080000e+03 8.572228e+00
1.081000e+03 2.708350e+01
1.082000e+03 1.783965e+01
1.083000e+03 1.031957e+01
1.084000e+03 2.596967e+02
1.085000e+03 3.300804e+00
1.086000e+03 2.023652e+02
1.087000e+03 8.103790e-01
1.088000e+03 3.486915e+02
1.089000e+03 3.429382e+02
1.090000e+03 2.673920e+00
1.091000e+03 3.371521e+00
1.092000e+03 2.470548e+02
1.093000e+03 2.837100e+02
1.094000e+03 2.789024e+01
1.095000e+03 4.125753e+02
1.096000e+03 5.563119e+01
1.097000e+03 7.403874e+01
1.098000e+03 3.865127e+02
1.099000e+03 9.519714e+00
1.100000e+03 3.996239e-01
1.101000e+03 8.458591e-01
1.102000e+03 5.377536e+00
1.103000e+03 3.281464e+02
1.104000e+03 5.394193e+02
1.105000e+03 4.265398e+02
1.106000e+03 2.268459e+01
1.107000e+03 5.135193e-01
1.108000e+03 1.086337e+02
1.109000e+03 3.351944e+00
1.110000e+03 6.352877e+02
1.111000e+03 2.855645e+02
1.112000e+03 5.598444e+01
1.113000e+03 4.423248e+02
1.114000e+03 3.622636e+01
1.115000e+03 4.900045e+00
1.116000e+03 2.796017e+00
1.117000e+03 2.826615e+02
1.118000e+03 5.259865e+00
1.119000e+03 7.695033e+01
1.120000e+03 3.151550e+00
1.121000e+03 2.293430e+02
1.122000e+03 5.950796e+02
1.123000e+03 4.120233e+02
1.124000e+03 4.575516e+02
1.125000e+03 2.238731e+02
1.126000e+03 1.232238e+03
1.127000e+03 3.645957e+02
1.128000e+03 6.916216e+02
1.129000e+03 1.576992e+02
1.130000e+03 6.018182e+02
1.131000e+03 8.198354e+02
1.132000e+03 5.572701e+00
1.133000e+03 1.924609e+01
1.134000e+03 1.649075e+02
1.135000e+03 4.906658e+02
1.136000e+03 4.252014e+01
1.137000e+03 5.191674e+02
1.138000e+03 1.451678e+02
1.139000e+03 8.824159e+02
1.140000e+03 9.527506e+02
1.141000e+03 7.406873e+02
1.142000e+03 1.042591e+03
1.143000e+03 2.558165e+02
1.144000e+03 1.018637e+03
1.145000e+03 3.143921e+00
1.146000e+03 1.153649e+03
1.147000e+03 9.105514e+02
1.148000e+03 1.502313e+01
1.149000e+03 5.910205e+02
1.150000e+03 3.759445e+02
1.151000e+03 1.145793e+03
1.152000e+03 8.211274e+02
1.153000e+03 9.384473e+02
1.154000e+03 1.188579e+03
1.155000e+03 5.005258e+02
1.156000e+03 1.028651e+03
1.157000e+03 1.139884e+03
1.158000e+03 2.659034e+02
1.159000e+03 1.054746e+03
1.160000e+03 2.668024e+02
1.161000e+03 9.650576e+02
1.162000e+03 5.326526e+01
1.163000e+03 1.384580e+02
1.164000e+03 1.077853e+01
1.165000e+03 6.130438e+02
1.166000e+03 3.664156e+02
1.167000e+03 3.132563e+02
1.168000e+03 1.257438e+03
1.169000e+03 1.315433e+03
1.170000e+03 2.758768e+02
1.171000e+03 7.040074e+02
1.172000e+03 3.226016e+02
1.173000e+03 6.356133e+02
1.174000e+03 1.515771e+01
1.175000e+03 7.423767e+00
1.176000e+03 3.386353e+00
1.177000e+03 1.591653e+03
1.178000e+03 1.558793e+03
1.179000e+03 1.367991e+03
1.180000e+03 6.659399e+02
1.181000e+03 1.443346e+03
1.182000e+03 1.260963e+03
1.183000e+03 7.418101e+02
1.184000e+03 6.235787e+02
1.185000e+03 8.046907e+02
1.186000e+03 6.353169e+01
1.187000e+03 1.015964e+03
1.188000e+03 4.626621e+02
1.189000e+03 1.253960e+03
1.190000e+03 1.216372e+03
1.191000e+03 9.218707e+02
1.192000e+03 1.059670e+03
1.193000e+03 7.816187e+02
1.194000e+03 1.021073e+03
1.195000e+03 9.892401e+02
1.196000e+03 3.411118e+03
1.197000e+03 5.148576e+03
1.198000e+03 1.666527e+02
1.199000e+03 4.895015e+03
1.200000e+03 3.860833e+02
1.201000e+03 4.222235e+03
1.202000e+03 1.395286e+03
1.203000e+03 3.214495e+03
1.204000e+03 3.514295e+02
1.205000e+03 2.440211e+03
1.206000e+03 2.429901e+03
1.207000e+03 7.020527e+02
1.208000e+03 1.529186e+03
1.209000e+03 1.372332e+03
1.210000e+03 1.288654e+01
1.211000e+03 6.496256e+02
1.212000e+03 3.171623e+02
1.213000e+03 1.880535e+02
1.214000e+03 6.366410e+01
1.215000e+03 1.279314e+01
1.216000e+03 9.737267e+00
1.217000e+03 4.158982e+01
1.218000e+03 1.570591e+02
1.219000e+03 3.690865e+02
1.220000e+03 3.058071e+02
1.221000e+03 1.145523e+03
1.222000e+03 1.438393e+03
1.223000e+03 1.607686e+03
1.224000e+03 2.886557e+03
1.225000e+03 2.350625e+02
1.226000e+03 4.751535e+03
1.227000e+03 5.305853e+03
1.228000e+03 1.120185e+03
1.229000e+03 5.133767e+03
1.230000e+03 3.930054e+03
1.231000e+03 7.756455e+02
1.232000e+03 9.880545e+03
1.233000e+03 1.090267e+04
1.234000e+03 9.773921e+03
1.235000e+03 1.041923e+04
1.236000e+03 1.636812e+03
1.237000e+03 1.313022e+04
1.238000e+03 1.186029e+04
1.239000e+03 7.583861e+03
1.240000e+03 8.677637e+03
1.241000e+03 7.270310e+03
1.242000e+03 1.216635e+04
1.243000e+03 1.669440e+04
1.244000e+03 1.803103e+04
1.245000e+03 1.663312e+04
1.246000e+03 1.240900e+04
1.247000e+03 1.522194e+04
1.248000e+03 1.725885e+04
1.249000e+03 2.134916e+04
1.250000e+03 1.529390e+04
1.251000e+03 2.159387e+04
1.252000e+03 1.774089e+04
1.253000e+03 2.287128e+04
1.254000e+03 1.918510e+04
1.255000e+03 1.251834e+04
1.256000e+03 1.695533e+04
1.257000e+03 1.886166e+04
1.258000e+03 1.038040e+04
1.259000e+03 1.543848e+04
1.260000e+03 2.502788e+04
1.261000e+03 2.394117e+03
1.262000e+03 2.713446e+04
1.263000e+03 2.369491e+04
1.264000e+03 1.335387e+04
1.265000e+03 2.157432e+03
1.266000e+03 2.789659e+04
1.267000e+03 1.790251e+04
