# wavelength_A flux
5.000000e+02 3.014239e-12
5.010000e+02 3.480929e-12
5.020000e+02 4.017493e-12
5.030000e+02 4.634034e-12
5.040000e+02 5.342067e-12
5.050000e+02 6.417850e-12
5.060000e+02 7.388271e-12
5.070000e+02 8.500549e-12
5.080000e+02 9.774714e-12
5.090000e+02 1.123419e-11
5.100000e+02 1.290353e-11
5.110000e+02 1.481245e-11
5.120000e+02 1.699471e-11
5.130000e+02 1.948749e-11
5.140000e+02 2.233363e-11
5.150000e+02 2.558119e-11
5.160000e+02 2.928568e-11
5.170000e+02 3.350622e-11
5.180000e+02 3.831892e-11
5.190000e+02 4.379692e-11
5.200000e+02 5.003150e-11
5.210000e+02 5.712323e-11
5.220000e+02 6.517432e-11
5.230000e+02 7.434803e-11
5.240000e+02 8.475475e-11
5.250000e+02 9.656827e-11
5.260000e+02 1.099714e-10
5.270000e+02 1.251710e-10
5.280000e+02 1.423990e-10
5.290000e+02 1.618608e-10
5.300000e+02 1.840175e-10
5.310000e+02 2.090313e-10
5.320000e+02 2.373288e-10
5.330000e+02 2.693224e-10
5.340000e+02 3.054784e-10
5.350000e+02 3.463212e-10
5.360000e+02 3.924293e-10
5.370000e+02 4.328796e-10
5.380000e+02 5.031641e-10
5.390000e+02 5.692836e-10
5.400000e+02 6.439353e-10
5.410000e+02 7.278831e-10
5.420000e+02 8.225248e-10
5.430000e+02 9.289630e-10
5.440000e+02 1.048689e-09
5.450000e+02 1.183301e-09
5.460000e+02 1.334324e-09
5.470000e+02 1.504517e-09
5.480000e+02 1.695317e-09
5.490000e+02 1.909466e-09
5.500000e+02 2.149692e-09
5.510000e+02 2.419077e-09
5.520000e+02 2.721005e-09
5.530000e+02 3.059272e-09
5.540000e+02 3.438085e-09
5.550000e+02 3.862121e-09
5.560000e+02 4.336576e-09
5.570000e+02 4.867221e-09
5.580000e+02 5.460459e-09
5.590000e+02 6.123392e-09
5.600000e+02 6.863898e-09
5.610000e+02 7.690715e-09
5.620000e+02 8.613516e-09
5.630000e+02 9.643021e-09
5.640000e+02 1.079110e-08
5.650000e+02 1.207087e-08
5.660000e+02 1.349689e-08
5.670000e+02 1.508521e-08
5.680000e+02 1.685361e-08
5.690000e+02 1.882170e-08
5.700000e+02 2.101114e-08
5.710000e+02 2.344599e-08
5.720000e+02 2.615255e-08
5.730000e+02 2.916002e-08
5.740000e+02 3.250056e-08
5.750000e+02 3.621063e-08
5.760000e+02 4.031589e-08
5.770000e+02 4.489471e-08
5.780000e+02 4.996016e-08
5.790000e+02 5.557582e-08
5.800000e+02 6.179912e-08
5.810000e+02 6.869318e-08
5.820000e+02 7.632725e-08
5.830000e+02 8.477645e-08
5.840000e+02 9.407999e-08
5.850000e+02 1.044616e-07
5.860000e+02 1.159120e-07
5.870000e+02 1.285568e-07
5.880000e+02 1.425284e-07
5.890000e+02 1.579554e-07
5.900000e+02 1.749995e-07
5.910000e+02 1.938022e-07
5.920000e+02 2.145587e-07
5.930000e+02 2.374480e-07
5.940000e+02 2.626859e-07
5.950000e+02 2.904492e-07
5.960000e+02 3.211546e-07
5.970000e+02 3.549158e-07
5.980000e+02 3.920899e-07
5.990000e+02 4.330078e-07
6.000000e+02 4.780318e-07
6.010000e+02 5.271067e-07
6.020000e+02 5.820145e-07
6.030000e+02 6.418705e-07
6.040000e+02 7.076561e-07
6.050000e+02 7.799162e-07
6.060000e+02 8.592683e-07
6.070000e+02 9.463799e-07
6.080000e+02 1.041979e-06
6.090000e+02 1.146858e-06
6.100000e+02 1.261874e-06
6.110000e+02 1.387987e-06
6.120000e+02 1.526203e-06
6.130000e+02 1.677640e-06
6.140000e+02 1.843514e-06
6.150000e+02 2.025143e-06
6.160000e+02 2.223961e-06
6.170000e+02 2.441524e-06
6.180000e+02 2.679531e-06
6.190000e+02 2.939820e-06
6.200000e+02 3.224390e-06
6.210000e+02 3.535411e-06
6.220000e+02 3.875238e-06
6.230000e+02 4.246428e-06
6.240000e+02 4.651753e-06
6.250000e+02 5.094219e-06
6.260000e+02 5.577086e-06
6.270000e+02 6.103871e-06
6.280000e+02 6.678449e-06
6.290000e+02 7.304917e-06
6.300000e+02 7.987776e-06
6.310000e+02 8.731792e-06
6.320000e+02 9.542538e-06
6.330000e+02 1.042539e-05
6.340000e+02 1.138663e-05
6.350000e+02 1.243288e-05
6.360000e+02 1.353609e-05
6.370000e+02 1.480985e-05
6.380000e+02 1.615675e-05
6.390000e+02 1.762114e-05
6.400000e+02 1.921282e-05
6.410000e+02 2.094238e-05
6.420000e+02 2.282127e-05
6.430000e+02 2.486179e-05
6.440000e+02 2.707725e-05
6.450000e+02 2.948196e-05
6.460000e+02 3.209146e-05
6.470000e+02 3.492235e-05
6.480000e+02 3.799253e-05
6.490000e+02 4.132173e-05
6.500000e+02 4.493037e-05
6.510000e+02 4.884107e-05
6.520000e+02 5.307797e-05
6.530000e+02 5.766695e-05
6.540000e+02 6.263638e-05
6.550000e+02 6.801601e-05
6.560000e+02 7.383831e-05
6.570000e+02 8.013565e-05
6.580000e+02 8.695279e-05
6.590000e+02 9.432260e-05
6.600000e+02 1.022896e-04
6.610000e+02 1.109036e-04
6.620000e+02 1.202109e-04
6.630000e+02 1.302663e-04
6.640000e+02 1.411273e-04
6.650000e+02 1.528543e-04
6.660000e+02 1.655165e-04
6.670000e+02 1.791814e-04
6.680000e+02 1.939272e-04
6.690000e+02 2.098343e-04
6.700000e+02 2.269901e-04
6.710000e+02 2.454887e-04
6.720000e+02 2.654293e-04
6.730000e+02 2.869220e-04
6.740000e+02 3.100792e-04
6.750000e+02 3.350249e-04
6.760000e+02 3.618909e-04
6.770000e+02 3.908179e-04
6.780000e+02 4.219575e-04
6.790000e+02 4.554704e-04
6.800000e+02 4.915299e-04
6.810000e+02 5.303200e-04
6.820000e+02 5.720381e-04
6.830000e+02 6.168951e-04
6.840000e+02 6.651159e-04
6.850000e+02 7.169265e-04
6.860000e+02 7.726280e-04
6.870000e+02 8.324396e-04
6.880000e+02 8.967015e-04
6.890000e+02 9.656938e-04
6.900000e+02 1.039760e-03
6.910000e+02 1.119258e-03
6.920000e+02 1.204564e-03
6.930000e+02 1.296084e-03
6.940000e+02 1.394251e-03
6.950000e+02 1.499523e-03
6.960000e+02 1.612391e-03
6.970000e+02 1.733334e-03
6.980000e+02 1.863035e-03
6.990000e+02 2.001960e-03
7.000000e+02 2.150782e-03
7.010000e+02 2.310173e-03
7.020000e+02 2.480847e-03
7.030000e+02 2.663564e-03
7.040000e+02 2.859135e-03
7.050000e+02 3.068420e-03
7.060000e+02 3.292306e-03
7.070000e+02 3.531846e-03
7.080000e+02 3.787999e-03
7.090000e+02 4.061823e-03
7.100000e+02 4.354687e-03
7.110000e+02 4.667633e-03
7.120000e+02 5.002047e-03
7.130000e+02 5.359329e-03
7.140000e+02 5.740960e-03
7.150000e+02 6.148514e-03
7.160000e+02 6.583728e-03
7.170000e+02 7.048276e-03
7.180000e+02 7.544051e-03
7.190000e+02 8.073320e-03
7.200000e+02 8.637864e-03
7.210000e+02 9.240093e-03
7.220000e+02 9.882365e-03
7.230000e+02 1.056722e-02
7.240000e+02 1.129735e-02
7.250000e+02 1.207556e-02
7.260000e+02 1.290421e-02
7.270000e+02 1.378863e-02
7.280000e+02 1.473001e-02
7.290000e+02 1.573267e-02
7.300000e+02 1.680040e-02
7.310000e+02 1.793721e-02
7.320000e+02 1.914735e-02
7.330000e+02 2.043533e-02
7.340000e+02 2.180587e-02
7.350000e+02 2.326402e-02
7.360000e+02 2.481504e-02
7.370000e+02 2.646463e-02
7.380000e+02 2.821880e-02
7.390000e+02 3.008369e-02
7.400000e+02 3.206569e-02
7.410000e+02 3.417274e-02
7.420000e+02 3.641089e-02
7.430000e+02 3.878958e-02
7.440000e+02 4.131583e-02
7.450000e+02 4.399877e-02
7.460000e+02 4.684763e-02
7.470000e+02 4.987216e-02
7.480000e+02 5.308257e-02
7.490000e+02 5.648986e-02
7.500000e+02 6.010532e-02
7.510000e+02 6.394109e-02
7.520000e+02 6.800986e-02
7.530000e+02 7.232503e-02
7.540000e+02 7.690086e-02
7.550000e+02 8.175226e-02
7.560000e+02 8.689494e-02
7.570000e+02 9.233887e-02
7.580000e+02 9.812109e-02
7.590000e+02 1.042401e-01
7.600000e+02 1.107236e-01
7.610000e+02 1.175898e-01
7.620000e+02 1.248613e-01
7.630000e+02 1.325601e-01
7.640000e+02 1.407106e-01
7.650000e+02 1.493360e-01
7.660000e+02 1.584679e-01
7.670000e+02 1.681289e-01
7.680000e+02 1.783486e-01
7.690000e+02 1.891619e-01
7.700000e+02 2.005971e-01
7.710000e+02 2.126893e-01
7.720000e+02 2.254746e-01
7.730000e+02 2.389903e-01
7.740000e+02 2.532761e-01
7.750000e+02 2.683735e-01
7.760000e+02 2.842369e-01
7.770000e+02 3.011800e-01
7.780000e+02 3.189833e-01
7.790000e+02 3.377862e-01
7.800000e+02 3.576423e-01
7.810000e+02 3.786074e-01
7.820000e+02 4.007398e-01
7.830000e+02 4.241003e-01
7.840000e+02 4.487557e-01
7.850000e+02 4.747719e-01
7.860000e+02 5.022171e-01
7.870000e+02 5.311787e-01
7.880000e+02 5.617189e-01
7.890000e+02 5.939270e-01
7.900000e+02 6.278886e-01
7.910000e+02 6.636937e-01
7.920000e+02 7.014371e-01
7.930000e+02 7.412178e-01
7.940000e+02 7.831398e-01
7.950000e+02 8.273122e-01
7.960000e+02 8.738490e-01
7.970000e+02 9.228697e-01
7.980000e+02 9.744991e-01
7.990000e+02 1.028864e+00
8.000000e+02 1.086119e+00
8.010000e+02 1.146381e+00
8.020000e+02 1.209833e+00
8.030000e+02 1.276606e+00
8.040000e+02 1.346876e+00
8.050000e+02 1.420814e+00
8.060000e+02 1.498600e+00
8.070000e+02 1.580426e+00
8.080000e+02 1.666487e+00
8.090000e+02 1.756992e+00
8.100000e+02 1.852156e+00
8.110000e+02 1.952208e+00
8.120000e+02 2.057376e+00
8.130000e+02 2.167927e+00
8.140000e+02 2.284101e+00
8.150000e+02 2.406176e+00
8.160000e+02 2.534433e+00
8.170000e+02 2.669123e+00
8.180000e+02 2.810690e+00
8.190000e+02 2.959322e+00
8.200000e+02 3.115396e+00
8.210000e+02 3.279266e+00
8.220000e+02 3.451306e+00
8.230000e+02 3.631897e+00
8.240000e+02 3.821437e+00
8.250000e+02 4.020344e+00
8.260000e+02 4.229054e+00
8.270000e+02 4.448024e+00
8.280000e+02 4.677729e+00
8.290000e+02 4.918657e+00
8.300000e+02 5.171343e+00
8.310000e+02 5.436315e+00
8.320000e+02 5.714137e+00
8.330000e+02 6.005397e+00
8.340000e+02 6.310709e+00
8.350000e+02 6.630060e+00
8.360000e+02 6.966030e+00
8.370000e+02 7.317467e+00
8.380000e+02 7.685035e+00
8.390000e+02 8.071270e+00
8.400000e+02 8.475343e+00
8.410000e+02 8.898481e+00
8.420000e+02 9.341424e+00
8.430000e+02 9.805594e+00
8.440000e+02 1.029138e+01
8.450000e+02 1.079992e+01
8.460000e+02 1.133223e+01
8.470000e+02 1.188934e+01
8.480000e+02 1.247235e+01
8.490000e+02 1.308238e+01
8.500000e+02 1.372062e+01
8.510000e+02 1.438829e+01
8.520000e+02 1.508660e+01
8.530000e+02 1.581706e+01
8.540000e+02 1.658103e+01
8.550000e+02 1.737970e+01
8.560000e+02 1.821462e+01
8.570000e+02 1.908770e+01
8.580000e+02 2.000014e+01
8.590000e+02 2.095386e+01
8.600000e+02 2.195049e+01
8.610000e+02 2.299191e+01
8.620000e+02 2.407998e+01
8.630000e+02 2.521653e+01
8.640000e+02 2.640405e+01
8.650000e+02 2.764399e+01
8.660000e+02 2.893938e+01
8.670000e+02 3.029184e+01
8.680000e+02 3.170395e+01
8.690000e+02 3.317821e+01
8.700000e+02 3.471716e+01
8.710000e+02 3.632352e+01
8.720000e+02 3.799998e+01
8.730000e+02 3.974943e+01
8.740000e+02 4.157498e+01
8.750000e+02 4.347958e+01
8.760000e+02 4.546651e+01
8.770000e+02 4.753854e+01
8.780000e+02 4.970081e+01
8.790000e+02 5.195524e+01
8.800000e+02 5.430611e+01
8.810000e+02 5.675725e+01
8.820000e+02 5.931277e+01
8.830000e+02 6.197674e+01
8.840000e+02 6.475359e+01
8.850000e+02 6.764775e+01
8.860000e+02 7.066375e+01
8.870000e+02 7.380661e+01
8.880000e+02 7.708110e+01
8.890000e+02 8.049294e+01
8.900000e+02 8.404683e+01
8.910000e+02 8.774858e+01
8.920000e+02 9.146966e+01
8.930000e+02 9.561897e+01
8.940000e+02 9.979977e+01
8.950000e+02 1.041527e+02
8.960000e+02 1.086847e+02
8.970000e+02 1.134023e+02
8.980000e+02 1.183128e+02
8.990000e+02 1.234236e+02
9.000000e+02 1.287423e+02
9.010000e+02 1.342768e+02
9.020000e+02 1.400353e+02
9.030000e+02 1.460261e+02
9.040000e+02 1.522542e+02
9.050000e+02 1.587398e+02
9.060000e+02 1.654841e+02
9.070000e+02 1.724897e+02
9.080000e+02 1.797879e+02
9.090000e+02 1.873698e+02
9.100000e+02 1.952526e+02
9.110000e+02 2.034489e+02
9.120000e+02 2.119767e+02
9.130000e+02 2.154092e+02
9.140000e+02 2.362550e+02
9.150000e+02 7.773196e+02
9.160000e+02 2.066689e+03
9.170000e+02 2.146809e+03
9.180000e+02 2.222402e+03
9.190000e+02 2.305527e+03
9.200000e+02 2.387215e+03
9.210000e+02 2.905002e+02
9.220000e+02 2.546643e+03
9.230000e+02 2.645664e+03
9.240000e+02 2.680342e+03
9.250000e+02 2.794836e+03
9.260000e+02 2.936892e+03
9.270000e+02 3.029514e+03
9.280000e+02 3.154872e+03
9.290000e+02 2.550797e+03
9.300000e+02 2.808861e+03
9.310000e+02 3.477900e+03
9.320000e+02 3.622362e+03
9.330000e+02 3.735918e+03
9.340000e+02 3.797970e+03
9.350000e+02 1.909700e+03
9.360000e+02 4.073752e+03
9.370000e+02 1.461138e+03
9.380000e+02 1.121379e+03
9.390000e+02 4.593719e+03
9.400000e+02 4.752908e+03
9.410000e+02 2.656951e+03
9.420000e+02 5.084620e+03
9.430000e+02 4.794739e+03
9.440000e+02 4.466417e+03
9.450000e+02 5.596298e+03
9.460000e+02 5.810078e+03
9.470000e+02 1.460107e+03
9.480000e+02 4.518893e+03
9.490000e+02 6.372348e+03
9.500000e+02 1.970307e+03
9.510000e+02 6.773694e+03
9.520000e+02 7.085613e+03
9.530000e+02 7.246066e+03
9.540000e+02 3.372442e+03
9.550000e+02 7.822135e+03
9.560000e+02 4.356076e+03
9.570000e+02 7.114597e+03
9.580000e+02 8.596801e+03
9.590000e+02 8.938424e+03
9.600000e+02 3.369003e+03
9.610000e+02 9.244204e+03
9.620000e+02 9.732457e+03
9.630000e+02 1.017745e+04
9.640000e+02 1.720208e+03
9.650000e+02 9.899537e+03
9.660000e+02 1.120349e+04
9.670000e+02 1.141876e+04
9.680000e+02 1.191425e+04
9.690000e+02 1.227387e+04
9.700000e+02 1.267388e+04
9.710000e+02 1.300573e+04
9.720000e+02 1.261986e+04
9.730000e+02 1.275654e+04
9.740000e+02 1.416310e+04
9.750000e+02 1.485745e+04
9.760000e+02 1.533595e+04
9.770000e+02 1.585648e+04
9.780000e+02 1.631702e+04
9.790000e+02 1.688982e+04
9.800000e+02 1.741871e+04
9.810000e+02 1.797615e+04
9.820000e+02 1.851793e+04
9.830000e+02 1.908926e+04
9.840000e+02 1.207573e+04
9.850000e+02 2.033363e+04
9.860000e+02 2.096355e+04
9.870000e+02 2.161825e+04
9.880000e+02 2.223571e+04
9.890000e+02 2.114761e+04
9.900000e+02 5.713468e+03
9.910000e+02 2.413561e+04
9.920000e+02 2.195757e+04
9.930000e+02 2.469882e+04
9.940000e+02 7.543215e+03
9.950000e+02 1.300659e+04
9.960000e+02 1.894772e+04
9.970000e+02 9.297471e+03
9.980000e+02 3.011228e+04
9.990000e+02 3.036758e+04
1.000000e+03 3.201104e+04
1.001000e+03 3.282419e+04
1.002000e+03 3.396541e+04
1.003000e+03 3.434983e+04
1.004000e+03 3.601350e+04
1.005000e+03 3.586113e+04
1.006000e+03 3.821879e+04
1.007000e+03 3.854371e+04
1.008000e+03 4.014816e+04
1.009000e+03 4.112762e+04
1.010000e+03 4.295858e+04
1.011000e+03 4.422095e+04
1.012000e+03 4.549212e+04
1.013000e+03 4.685735e+04
1.014000e+03 4.804491e+04
1.015000e+03 4.940099e+04
1.016000e+03 5.102070e+04
1.017000e+03 5.237479e+04
1.018000e+03 5.399039e+04
1.019000e+03 5.548300e+04
1.020000e+03 5.705484e+04
1.021000e+03 3.892389e+04
1.022000e+03 5.743304e+04
1.023000e+03 6.094527e+04
1.024000e+03 4.722362e+04
1.025000e+03 4.993016e+04
1.026000e+03 2.864941e+04
1.027000e+03 5.614013e+04
1.028000e+03 3.174405e+04
1.029000e+03 7.263848e+04
1.030000e+03 7.271028e+04
1.031000e+03 7.744697e+04
1.032000e+03 7.806130e+04
1.033000e+03 5.755984e+04
1.034000e+03 8.494505e+04
1.035000e+03 3.186270e+04
1.036000e+03 8.245172e+04
1.037000e+03 2.020100e+04
1.038000e+03 9.504870e+04
1.039000e+03 9.704420e+04
1.040000e+03 1.004703e+05
1.041000e+03 1.019374e+05
1.042000e+03 1.060110e+05
1.043000e+03 1.068644e+05
1.044000e+03 1.120387e+05
1.045000e+03 1.150607e+05
1.046000e+03 1.184702e+05
1.047000e+03 1.216988e+05
1.048000e+03 1.248801e+05
1.049000e+03 1.218705e+05
1.050000e+03 1.319931e+05
1.051000e+03 1.356270e+05
1.052000e+03 1.393438e+05
1.053000e+03 1.422578e+05
1.054000e+03 1.425937e+05
1.055000e+03 1.185376e+05
1.056000e+03 1.550689e+05
1.057000e+03 1.592686e+05
1.058000e+03 1.635110e+05
1.059000e+03 1.679139e+05
1.060000e+03 1.723631e+05
1.061000e+03 1.770763e+05
1.062000e+03 1.818048e+05
1.063000e+03 7.666882e+04
1.064000e+03 6.181631e+04
1.065000e+03 1.966595e+05
1.066000e+03 1.287669e+05
1.067000e+03 2.063535e+05
1.068000e+03 2.131542e+05
1.069000e+03 2.000132e+05
1.070000e+03 2.238742e+05
1.071000e+03 2.304669e+05
1.072000e+03 2.364929e+05
1.073000e+03 2.423056e+05
1.074000e+03 2.490004e+05
1.075000e+03 2.554699e+05
1.076000e+03 2.620918e+05
1.077000e+03 2.686739e+05
1.078000e+03 2.758438e+05
1.079000e+03 2.827146e+05
1.080000e+03 2.902828e+05
1.081000e+03 2.977463e+05
1.082000e+03 3.052399e+05
1.083000e+03 3.129196e+05
1.084000e+03 3.208653e+05
1.085000e+03 2.414133e+05
1.086000e+03 3.377844e+05
1.087000e+03 3.462156e+05
1.088000e+03 3.541044e+05
1.089000e+03 3.640706e+05
1.090000e+03 3.731085e+05
1.091000e+03 3.742270e+05
1.092000e+03 3.922067e+05
1.093000e+03 4.018070e+05
1.094000e+03 4.121182e+05
1.095000e+03 4.223188e+05
1.096000e+03 4.328856e+05
1.097000e+03 3.453648e+05
1.098000e+03 4.017315e+05
1.099000e+03 4.656662e+05
1.100000e+03 3.023254e+05
1.101000e+03 4.569533e+05
1.102000e+03 8.404474e+05
1.103000e+03 1.623625e+06
1.104000e+03 1.301582e+06
1.105000e+03 5.005220e+05
1.106000e+03 6.346119e+06
1.107000e+03 5.943368e+06
1.108000e+03 5.324912e+06
1.109000e+03 1.931476e+06
1.110000e+03 2.371708e+06
1.111000e+03 1.069986e+06
1.112000e+03 3.354508e+06
1.113000e+03 7.313034e+06
1.114000e+03 4.686018e+05
1.115000e+03 7.005402e+06
1.116000e+03 7.458300e+06
1.117000e+03 6.380155e+05
1.118000e+03 3.689810e+06
1.119000e+03 8.127922e+06
1.120000e+03 8.191644e+06
1.121000e+03 7.984817e+06
1.122000e+03 2.478000e+05
1.123000e+03 6.579430e+05
1.124000e+03 8.908364e+06
1.125000e+03 5.469752e+06
1.126000e+03 9.282052e+06
1.127000e+03 8.675354e+06
1.128000e+03 6.254479e+06
1.129000e+03 8.585474e+06
1.130000e+03 4.307516e+06
1.131000e+03 1.021506e+07
1.132000e+03 6.464590e+05
1.133000e+03 7.728256e+06
1.134000e+03 5.884180e+06
1.135000e+03 3.517705e+05
1.136000e+03 1.109845e+07
1.137000e+03 1.141409e+07
1.138000e+03 1.160620e+07
1.139000e+03 1.149427e+07
1.140000e+03 4.879790e+05
1.141000e+03 1.230112e+07
1.142000e+03 1.243221e+07
1.143000e+03 1.273787e+07
1.144000e+03 1.299637e+07
1.145000e+03 1.043625e+07
1.146000e+03 1.346566e+07
1.147000e+03 1.346474e+07
1.148000e+03 1.369110e+07
1.149000e+03 1.419003e+07
1.150000e+03 1.437472e+07
1.151000e+03 1.464584e+07
1.152000e+03 1.502012e+07
1.153000e+03 5.857262e+06
1.154000e+03 1.447349e+06
1.155000e+03 6.951409e+06
1.156000e+03 1.250485e+06
1.157000e+03 1.516060e+07
1.158000e+03 6.707152e+05
1.159000e+03 3.926646e+06
1.160000e+03 1.671009e+07
1.161000e+03 1.769492e+07
1.162000e+03 4.691624e+06
1.163000e+03 1.821127e+07
1.164000e+03 1.322579e+06
1.165000e+03 1.900632e+07
1.166000e+03 1.913487e+07
1.167000e+03 1.961476e+07
1.168000e+03 1.994582e+07
1.169000e+03 1.050835e+07
1.170000e+03 2.072312e+07
1.171000e+03 2.136993e+07
1.172000e+03 2.170617e+07
1.173000e+03 2.213826e+07
1.174000e+03 2.212717e+07
1.175000e+03 1.629490e+06
1.176000e+03 1.305090e+06
1.177000e+03 2.383262e+07
1.178000e+03 2.377011e+07
1.179000e+03 2.471826e+07
1.180000e+03 2.223710e+07
1.181000e+03 2.552414e+07
1.182000e+03 2.604431e+07
1.183000e+03 2.645785e+07
1.184000e+03 2.684597e+07
1.185000e+03 2.687949e+07
1.186000e+03 2.755348e+07
1.187000e+03 2.802219e+07
1.188000e+03 2.828744e+07
1.189000e+03 1.485558e+06
1.190000e+03 2.412294e+06
1.191000e+03 2.873698e+07
1.192000e+03 2.794991e+07
1.193000e+03 1.347874e+06
1.194000e+03 1.762992e+06
1.195000e+03 2.511583e+07
1.196000e+03 2.975341e+07
1.197000e+03 3.924650e+07
1.198000e+03 3.941984e+07
1.199000e+03 3.840696e+07
1.200000e+03 3.435401e+07
1.201000e+03 3.596307e+07
1.202000e+03 3.558139e+07
1.203000e+03 4.024680e+07
1.204000e+03 3.686366e+07
1.205000e+03 3.399585e+07
1.206000e+03 3.133050e+07
1.207000e+03 7.091046e+06
1.208000e+03 2.347814e+07
1.209000e+03 1.854687e+07
1.210000e+03 2.966118e+06
1.211000e+03 1.151166e+07
1.212000e+03 7.576317e+06
1.213000e+03 5.598649e+06
1.214000e+03 3.733508e+06
1.215000e+03 2.583196e+06
1.216000e+03 2.348338e+06
1.217000e+03 3.454652e+06
1.218000e+03 5.380430e+06
1.219000e+03 8.320966e+06
1.220000e+03 1.231438e+07
1.221000e+03 1.726099e+07
1.222000e+03 2.299239e+07
1.223000e+03 2.921600e+07
1.224000e+03 3.618718e+07
1.225000e+03 4.296616e+07
1.226000e+03 5.067962e+07
1.227000e+03 4.623075e+07
1.228000e+03 6.615227e+07
1.229000e+03 7.398706e+07
1.230000e+03 7.860516e+07
1.231000e+03 8.948703e+07
1.232000e+03 9.698676e+07
1.233000e+03 1.052397e+08
1.234000e+03 7.406714e+07
1.235000e+03 1.203698e+08
1.236000e+03 1.274918e+08
1.237000e+03 1.351996e+08
1.238000e+03 1.422444e+08
1.239000e+03 1.494686e+08
1.240000e+03 1.436092e+08
1.241000e+03 2.472278e+08
1.242000e+03 1.566080e+08
1.243000e+03 2.035315e+08
1.244000e+03 1.072808e+08
1.245000e+03 1.474429e+08
1.246000e+03 3.737066e+08
1.247000e+03 3.461023e+08
1.248000e+03 1.122550e+08
1.249000e+03 1.341548e+08
1.250000e+03 4.848171e+08
1.251000e+03 5.062851e+08
1.252000e+03 5.273645e+08
1.253000e+03 5.621037e+08
1.254000e+03 5.798613e+08
1.255000e+03 5.776359e+08
1.256000e+03 6.252850e+08
1.257000e+03 6.609411e+08
1.258000e+03 6.702973e+08
1.259000e+03 6.667540e+08
1.260000e+03 4.445693e+08
1.261000e+03 6.266974e+06
1.262000e+03 8.101954e+07
1.263000e+03 7.469074e+08
1.264000e+03 6.479428e+08
1.265000e+03 6.214896e+06
1.266000e+03 8.189855e+08
1.267000e+03 9.013340e+08
