# wavelength_A flux
5.000000e+02 8.853211e-37
5.010000e+02 1.144963e-36
5.020000e+02 1.479205e-36
5.030000e+02 1.909038e-36
5.040000e+02 2.461233e-36
5.050000e+02 3.174598e-36
5.060000e+02 4.084301e-36
5.070000e+02 5.249250e-36
5.080000e+02 6.739895e-36
5.090000e+02 8.645054e-36
5.100000e+02 1.106357e-35
5.110000e+02 1.418094e-35
5.120000e+02 1.813526e-35
5.130000e+02 2.317052e-35
5.140000e+02 2.957452e-35
5.150000e+02 3.771205e-35
5.160000e+02 4.804251e-35
5.170000e+02 6.114464e-35
5.180000e+02 7.774605e-35
5.190000e+02 9.876175e-35
5.200000e+02 1.253407e-34
5.210000e+02 1.589244e-34
5.220000e+02 2.013178e-34
5.230000e+02 2.547899e-34
5.240000e+02 3.221665e-34
5.250000e+02 4.069891e-34
5.260000e+02 5.136789e-34
5.270000e+02 6.477532e-34
5.280000e+02 8.160909e-34
5.290000e+02 1.027261e-33
5.300000e+02 1.291929e-33
5.310000e+02 1.623357e-33
5.320000e+02 2.038024e-33
5.330000e+02 2.556387e-33
5.340000e+02 3.203818e-33
5.350000e+02 4.011763e-33
5.360000e+02 5.019159e-33
5.370000e+02 6.271982e-33
5.380000e+02 7.836385e-33
5.390000e+02 9.779331e-33
5.400000e+02 1.219379e-32
5.410000e+02 1.519171e-32
5.420000e+02 1.891106e-32
5.430000e+02 2.352162e-32
5.440000e+02 2.923231e-32
5.450000e+02 3.629990e-32
5.460000e+02 4.503977e-32
5.470000e+02 5.583896e-32
5.480000e+02 6.917206e-32
5.490000e+02 8.562060e-32
5.500000e+02 1.058966e-31
5.510000e+02 1.308711e-31
5.520000e+02 1.616088e-31
5.530000e+02 1.994106e-31
5.540000e+02 2.458640e-31
5.550000e+02 3.029054e-31
5.560000e+02 3.728946e-31
5.570000e+02 4.587059e-31
5.580000e+02 5.638365e-31
5.590000e+02 6.925395e-31
5.600000e+02 8.499830e-31
5.610000e+02 1.042442e-30
5.620000e+02 1.277531e-30
5.630000e+02 1.564482e-30
5.640000e+02 1.914480e-30
5.650000e+02 2.341067e-30
5.660000e+02 2.860629e-30
5.670000e+02 3.492975e-30
5.680000e+02 4.262039e-30
5.690000e+02 5.196716e-30
5.700000e+02 6.331866e-30
5.710000e+02 7.709521e-30
5.720000e+02 9.380317e-30
5.730000e+02 1.140522e-29
5.740000e+02 1.385759e-29
5.750000e+02 1.682561e-29
5.760000e+02 2.041526e-29
5.770000e+02 2.475378e-29
5.780000e+02 2.999383e-29
5.790000e+02 3.631850e-29
5.800000e+02 4.394717e-29
5.810000e+02 5.314256e-29
5.820000e+02 6.421908e-29
5.830000e+02 7.755276e-29
5.840000e+02 9.359278e-29
5.850000e+02 1.128767e-28
5.860000e+02 1.360446e-28
5.870000e+02 1.638611e-28
5.880000e+02 1.972373e-28
5.890000e+02 2.372591e-28
5.900000e+02 2.852189e-28
5.910000e+02 3.426550e-28
5.920000e+02 4.113964e-28
5.930000e+02 4.936167e-28
5.940000e+02 5.918978e-28
5.950000e+02 7.093039e-28
5.960000e+02 8.494704e-28
5.970000e+02 1.016707e-27
5.980000e+02 1.216119e-27
5.990000e+02 1.453753e-27
6.000000e+02 1.736764e-27
6.010000e+02 2.073614e-27
6.020000e+02 2.474305e-27
6.030000e+02 2.950654e-27
6.040000e+02 3.516608e-27
6.050000e+02 4.188630e-27
6.060000e+02 4.986127e-27
6.070000e+02 5.931977e-27
6.080000e+02 7.053124e-27
6.090000e+02 8.381290e-27
6.100000e+02 9.953796e-27
6.110000e+02 1.181453e-26
6.120000e+02 1.401506e-26
6.130000e+02 1.661597e-26
6.140000e+02 1.968837e-26
6.150000e+02 2.331571e-26
6.160000e+02 2.759582e-26
6.170000e+02 3.264338e-26
6.180000e+02 3.859269e-26
6.190000e+02 4.560100e-26
6.200000e+02 5.385230e-26
6.210000e+02 6.356177e-26
6.220000e+02 7.498088e-26
6.230000e+02 8.840344e-26
6.240000e+02 1.041725e-25
6.250000e+02 1.226883e-25
6.260000e+02 1.444178e-25
6.270000e+02 1.699053e-25
6.280000e+02 1.997850e-25
6.290000e+02 2.347954e-25
6.300000e+02 2.757961e-25
6.310000e+02 3.237869e-25
6.320000e+02 3.799316e-25
6.330000e+02 4.455806e-25
6.340000e+02 5.223040e-25
6.350000e+02 6.119243e-25
6.360000e+02 7.165564e-25
6.370000e+02 8.386534e-25
6.380000e+02 9.810590e-25
6.390000e+02 1.147068e-24
6.400000e+02 1.340497e-24
6.410000e+02 1.565763e-24
6.420000e+02 1.827977e-24
6.430000e+02 2.133050e-24
6.440000e+02 2.487814e-24
6.450000e+02 2.900163e-24
6.460000e+02 3.379212e-24
6.470000e+02 3.935483e-24
6.480000e+02 4.581116e-24
6.490000e+02 5.330108e-24
6.500000e+02 6.198594e-24
6.510000e+02 7.205165e-24
6.520000e+02 8.371226e-24
6.530000e+02 9.721417e-24
6.540000e+02 1.128409e-23
6.550000e+02 1.309183e-23
6.560000e+02 1.518213e-23
6.570000e+02 1.759804e-23
6.580000e+02 2.038899e-23
6.590000e+02 2.361174e-23
6.600000e+02 2.733143e-23
6.610000e+02 3.162274e-23
6.620000e+02 3.657129e-23
6.630000e+02 4.227520e-23
6.640000e+02 4.884684e-23
6.650000e+02 5.641488e-23
6.660000e+02 6.512656e-23
6.670000e+02 7.515030e-23
6.680000e+02 8.667867e-23
6.690000e+02 9.993178e-23
6.700000e+02 1.151611e-22
6.710000e+02 1.326537e-22
6.720000e+02 1.527374e-22
6.730000e+02 1.757862e-22
6.740000e+02 2.022265e-22
6.750000e+02 2.325447e-22
6.760000e+02 2.672948e-22
6.770000e+02 3.071080e-22
6.780000e+02 3.527030e-22
6.790000e+02 4.048977e-22
6.800000e+02 4.646229e-22
6.810000e+02 5.329368e-22
6.820000e+02 6.110424e-22
6.830000e+02 7.003070e-22
6.840000e+02 8.022833e-22
6.850000e+02 9.187345e-22
6.860000e+02 1.051662e-21
6.870000e+02 1.203335e-21
6.880000e+02 1.376330e-21
6.890000e+02 1.573565e-21
6.900000e+02 1.798347e-21
6.910000e+02 2.054423e-21
6.920000e+02 2.346036e-21
6.930000e+02 2.677988e-21
6.940000e+02 3.055712e-21
6.950000e+02 3.485353e-21
6.960000e+02 3.973860e-21
6.970000e+02 4.529083e-21
6.980000e+02 5.159895e-21
6.990000e+02 5.876314e-21
7.000000e+02 6.689648e-21
7.010000e+02 7.612662e-21
7.020000e+02 8.659752e-21
7.030000e+02 9.847155e-21
7.040000e+02 1.119317e-20
7.050000e+02 1.271842e-20
7.060000e+02 1.444614e-20
7.070000e+02 1.640249e-20
7.080000e+02 1.861690e-20
7.090000e+02 2.112251e-20
7.100000e+02 2.395659e-20
7.110000e+02 2.716103e-20
7.120000e+02 3.078294e-20
7.130000e+02 3.487523e-20
7.140000e+02 3.949735e-20
7.150000e+02 4.471606e-20
7.160000e+02 5.060626e-20
7.170000e+02 5.725202e-20
7.180000e+02 6.474764e-20
7.190000e+02 7.319884e-20
7.200000e+02 8.272414e-20
7.210000e+02 9.345635e-20
7.220000e+02 1.055442e-19
7.230000e+02 1.191543e-19
7.240000e+02 1.344731e-19
7.250000e+02 1.517092e-19
7.260000e+02 1.710961e-19
7.270000e+02 1.928948e-19
7.280000e+02 2.173971e-19
7.290000e+02 2.449291e-19
7.300000e+02 2.758551e-19
7.310000e+02 3.105821e-19
7.320000e+02 3.495642e-19
7.330000e+02 3.933086e-19
7.340000e+02 4.423808e-19
7.350000e+02 4.974118e-19
7.360000e+02 5.591053e-19
7.370000e+02 6.282454e-19
7.380000e+02 7.057060e-19
7.390000e+02 7.924605e-19
7.400000e+02 8.895931e-19
7.410000e+02 9.983107e-19
7.420000e+02 1.119956e-18
7.430000e+02 1.256025e-18
7.440000e+02 1.408177e-18
7.450000e+02 1.578263e-18
7.460000e+02 1.768336e-18
7.470000e+02 1.980678e-18
7.480000e+02 2.217826e-18
7.490000e+02 2.482596e-18
7.500000e+02 2.778115e-18
7.510000e+02 3.107853e-18
7.520000e+02 3.475660e-18
7.530000e+02 3.885807e-18
7.540000e+02 4.343030e-18
7.550000e+02 4.852580e-18
7.560000e+02 5.420275e-18
7.570000e+02 6.052560e-18
7.580000e+02 6.756577e-18
7.590000e+02 7.540231e-18
7.600000e+02 8.412274e-18
7.610000e+02 9.382390e-18
7.620000e+02 1.046129e-17
7.630000e+02 1.166084e-17
7.640000e+02 1.299412e-17
7.650000e+02 1.447562e-17
7.660000e+02 1.612136e-17
7.670000e+02 1.794901e-17
7.680000e+02 1.997809e-17
7.690000e+02 2.223018e-17
7.700000e+02 2.472907e-17
7.710000e+02 2.750102e-17
7.720000e+02 3.057502e-17
7.730000e+02 3.398302e-17
7.740000e+02 3.776026e-17
7.750000e+02 4.194559e-17
7.760000e+02 4.658180e-17
7.770000e+02 5.171606e-17
7.780000e+02 5.740032e-17
7.790000e+02 6.369178e-17
7.800000e+02 7.065338e-17
7.810000e+02 7.835445e-17
7.820000e+02 8.687121e-17
7.830000e+02 9.628754e-17
7.840000e+02 1.066957e-16
7.850000e+02 1.181970e-16
7.860000e+02 1.309029e-16
7.870000e+02 1.449359e-16
7.880000e+02 1.604305e-16
7.890000e+02 1.775344e-16
7.900000e+02 1.964099e-16
7.910000e+02 2.172350e-16
7.920000e+02 2.402050e-16
7.930000e+02 2.655345e-16
7.940000e+02 2.934585e-16
7.950000e+02 3.242348e-16
7.960000e+02 3.581463e-16
7.970000e+02 3.955026e-16
7.980000e+02 4.366434e-16
7.990000e+02 4.819405e-16
8.000000e+02 5.318013e-16
8.010000e+02 5.866719e-16
8.020000e+02 6.470403e-16
8.030000e+02 7.134411e-16
8.040000e+02 7.864589e-16
8.050000e+02 8.667332e-16
8.060000e+02 9.549634e-16
8.070000e+02 1.051914e-15
8.080000e+02 1.158422e-15
8.090000e+02 1.275399e-15
8.100000e+02 1.403845e-15
8.110000e+02 1.544849e-15
8.120000e+02 1.699603e-15
8.130000e+02 1.869405e-15
8.140000e+02 2.055675e-15
8.150000e+02 2.259961e-15
8.160000e+02 2.483954e-15
8.170000e+02 2.729494e-15
8.180000e+02 2.998594e-15
8.190000e+02 3.293442e-15
8.200000e+02 3.616428e-15
8.210000e+02 3.970156e-15
8.220000e+02 4.357459e-15
8.230000e+02 4.781429e-15
8.240000e+02 5.245429e-15
8.250000e+02 5.753122e-15
8.260000e+02 6.308496e-15
8.270000e+02 6.915891e-15
8.280000e+02 7.580028e-15
8.290000e+02 8.306045e-15
8.300000e+02 9.099527e-15
8.310000e+02 9.966550e-15
8.320000e+02 1.091372e-14
8.330000e+02 1.194821e-14
8.340000e+02 1.307783e-14
8.350000e+02 1.431104e-14
8.360000e+02 1.565705e-14
8.370000e+02 1.712586e-14
8.380000e+02 1.872832e-14
8.390000e+02 2.047621e-14
8.400000e+02 2.238231e-14
8.410000e+02 2.446050e-14
8.420000e+02 2.672582e-14
8.430000e+02 2.919459e-14
8.440000e+02 3.188452e-14
8.450000e+02 3.481478e-14
8.460000e+02 3.800617e-14
8.470000e+02 4.148122e-14
8.480000e+02 4.526436e-14
8.490000e+02 4.938203e-14
8.500000e+02 5.386287e-14
8.510000e+02 5.873790e-14
8.520000e+02 6.404069e-14
8.530000e+02 6.980758e-14
8.540000e+02 7.607790e-14
8.550000e+02 8.289419e-14
8.560000e+02 9.030247e-14
8.570000e+02 9.835250e-14
8.580000e+02 1.070981e-13
8.590000e+02 1.165975e-13
8.600000e+02 1.269135e-13
8.610000e+02 1.381140e-13
8.620000e+02 1.502726e-13
8.630000e+02 1.634684e-13
8.640000e+02 1.777872e-13
8.650000e+02 1.933213e-13
8.660000e+02 2.101707e-13
8.670000e+02 2.284431e-13
8.680000e+02 2.482547e-13
8.690000e+02 2.697311e-13
8.700000e+02 2.930076e-13
8.710000e+02 3.182301e-13
8.720000e+02 3.455561e-13
8.730000e+02 3.751552e-13
8.740000e+02 4.072105e-13
8.750000e+02 4.419190e-13
8.760000e+02 4.794932e-13
8.770000e+02 5.201619e-13
8.780000e+02 5.641718e-13
8.790000e+02 6.117881e-13
8.800000e+02 6.632969e-13
8.810000e+02 7.190057e-13
8.820000e+02 7.792460e-13
8.830000e+02 8.443740e-13
8.840000e+02 9.147732e-13
8.850000e+02 9.908564e-13
8.860000e+02 1.073067e-12
8.870000e+02 1.161883e-12
8.880000e+02 1.257816e-12
8.890000e+02 1.361418e-12
8.900000e+02 1.473283e-12
8.910000e+02 1.594046e-12
8.920000e+02 1.724393e-12
8.930000e+02 1.865059e-12
8.940000e+02 2.016832e-12
8.950000e+02 2.180562e-12
8.960000e+02 2.357158e-12
8.970000e+02 2.547598e-12
8.980000e+02 2.752930e-12
8.990000e+02 2.974281e-12
9.000000e+02 3.212857e-12
9.010000e+02 3.469955e-12
9.020000e+02 3.746962e-12
9.030000e+02 4.045371e-12
9.040000e+02 4.366778e-12
9.050000e+02 4.712895e-12
9.060000e+02 5.085559e-12
9.070000e+02 5.486737e-12
9.080000e+02 5.918536e-12
9.090000e+02 6.383213e-12
9.100000e+02 6.883189e-12
9.110000e+02 7.421053e-12
9.120000e+02 7.999578e-12
9.130000e+02 8.621734e-12
9.140000e+02 9.736129e-12
9.150000e+02 1.778526e-09
9.160000e+02 9.365098e-09
9.170000e+02 7.883202e-11
9.180000e+02 2.306690e-09
9.190000e+02 2.613084e-08
9.200000e+02 6.636324e-08
9.210000e+02 1.560196e-11
9.220000e+02 1.557773e-08
9.230000e+02 1.160914e-10
9.240000e+02 1.048761e-10
9.250000e+02 1.684403e-09
9.260000e+02 3.356273e-09
9.270000e+02 1.167209e-10
9.280000e+02 3.279171e-07
9.290000e+02 3.468971e-07
9.300000e+02 9.155396e-08
9.310000e+02 2.230421e-10
9.320000e+02 2.978464e-07
9.330000e+02 1.221056e-08
9.340000e+02 2.721094e-09
9.350000e+02 9.741964e-10
9.360000e+02 4.386710e-10
9.370000e+02 1.244231e-10
9.380000e+02 7.541196e-10
9.390000e+02 1.678578e-09
9.400000e+02 1.605900e-07
9.410000e+02 2.372360e-08
9.420000e+02 1.159109e-06
9.430000e+02 2.507008e-09
9.440000e+02 1.301289e-06
9.450000e+02 1.071709e-06
9.460000e+02 4.271919e-08
9.470000e+02 1.066143e-10
9.480000e+02 2.795098e-07
9.490000e+02 5.642549e-08
9.500000e+02 1.838003e-09
9.510000e+02 4.888960e-08
9.520000e+02 1.127644e-07
9.530000e+02 6.217697e-10
9.540000e+02 1.647539e-10
9.550000e+02 5.842651e-09
9.560000e+02 8.776733e-07
9.570000e+02 3.247528e-09
9.580000e+02 2.120952e-10
9.590000e+02 1.893489e-07
9.600000e+02 3.677650e-09
9.610000e+02 7.397540e-08
9.620000e+02 2.510204e-08
9.630000e+02 2.873890e-09
9.640000e+02 9.707257e-10
9.650000e+02 3.747118e-10
9.660000e+02 6.399603e-09
9.670000e+02 1.110834e-09
9.680000e+02 8.482743e-10
9.690000e+02 3.490172e-08
9.700000e+02 8.726066e-08
9.710000e+02 2.017134e-09
9.720000e+02 8.802346e-10
9.730000e+02 1.748040e-08
9.740000e+02 7.729068e-08
9.750000e+02 1.631998e-08
9.760000e+02 1.000364e-06
9.770000e+02 3.615243e-07
9.780000e+02 1.480370e-07
9.790000e+02 6.915357e-06
9.800000e+02 4.229518e-06
9.810000e+02 7.213703e-08
9.820000e+02 1.305261e-08
9.830000e+02 3.261090e-06
9.840000e+02 3.102164e-07
9.850000e+02 3.080073e-08
9.860000e+02 5.592296e-08
9.870000e+02 2.570675e-06
9.880000e+02 1.634703e-09
9.890000e+02 4.885876e-07
9.900000e+02 2.011237e-06
9.910000e+02 1.739705e-08
9.920000e+02 1.952864e-09
9.930000e+02 1.165157e-05
9.940000e+02 3.986813e-09
9.950000e+02 4.093284e-07
9.960000e+02 4.456183e-09
9.970000e+02 1.578263e-06
9.980000e+02 2.263955e-06
9.990000e+02 2.741057e-08
1.000000e+03 2.614744e-05
1.001000e+03 1.904978e-05
1.002000e+03 1.091868e-05
1.003000e+03 2.608067e-08
1.004000e+03 4.172762e-09
1.005000e+03 1.136577e-07
1.006000e+03 7.437544e-06
1.007000e+03 1.541601e-05
1.008000e+03 3.872967e-06
1.009000e+03 4.211973e-08
1.010000e+03 3.411203e-06
1.011000e+03 3.436056e-06
1.012000e+03 6.017231e-06
1.013000e+03 5.983588e-06
1.014000e+03 7.563813e-09
1.015000e+03 8.229563e-09
1.016000e+03 1.831304e-07
1.017000e+03 9.054929e-09
1.018000e+03 4.132835e-08
1.019000e+03 1.024273e-08
1.020000e+03 1.008246e-05
1.021000e+03 1.221151e-07
1.022000e+03 1.658336e-07
1.023000e+03 1.444278e-08
1.024000e+03 2.976876e-06
1.025000e+03 1.455219e-08
1.026000e+03 2.271709e-08
1.027000e+03 6.419629e-07
1.028000e+03 1.255380e-07
1.029000e+03 1.839499e-08
1.030000e+03 5.543334e-07
1.031000e+03 1.882682e-06
1.032000e+03 2.982033e-05
1.033000e+03 9.088408e-07
1.034000e+03 2.007960e-06
1.035000e+03 1.052449e-07
1.036000e+03 2.759589e-08
1.037000e+03 1.723004e-05
1.038000e+03 1.297549e-04
1.039000e+03 2.076753e-05
1.040000e+03 1.135074e-05
1.041000e+03 9.201598e-05
1.042000e+03 7.376353e-05
1.043000e+03 1.011743e-04
1.044000e+03 4.521333e-04
1.045000e+03 7.650539e-08
1.046000e+03 1.292238e-05
1.047000e+03 7.335868e-06
1.048000e+03 1.194367e-07
1.049000e+03 5.636545e-06
1.050000e+03 1.230372e-06
1.051000e+03 6.996270e-07
1.052000e+03 1.143893e-04
1.053000e+03 1.653200e-04
1.054000e+03 7.630661e-08
1.055000e+03 2.054589e-04
1.056000e+03 2.505880e-04
1.057000e+03 2.390721e-05
1.058000e+03 6.191690e-07
1.059000e+03 9.300566e-07
1.060000e+03 2.017186e-07
1.061000e+03 4.962215e-05
1.062000e+03 3.622295e-07
1.063000e+03 3.946788e-05
1.064000e+03 2.008164e-07
1.065000e+03 1.395892e-07
1.066000e+03 7.763565e-05
1.067000e+03 6.848052e-07
1.068000e+03 6.579959e-04
1.069000e+03 2.182328e-07
1.070000e+03 6.696442e-06
1.071000e+03 1.345495e-04
1.072000e+03 9.948829e-04
1.073000e+03 2.148445e-07
1.074000e+03 2.942986e-05
1.075000e+03 1.632411e-05
1.076000e+03 1.079454e-03
1.077000e+03 7.236995e-07
1.078000e+03 1.077191e-06
1.079000e+03 5.171817e-06
1.080000e+03 3.059053e-05
1.081000e+03 2.075577e-04
1.082000e+03 9.826489e-05
1.083000e+03 4.675076e-05
1.084000e+03 3.147912e-03
1.085000e+03 9.782729e-06
1.086000e+03 1.268198e-03
1.087000e+03 1.972076e-06
1.088000e+03 3.071642e-03
1.089000e+03 3.679694e-03
1.090000e+03 7.803137e-06
1.091000e+03 1.340918e-05
1.092000e+03 2.842691e-03
1.093000e+03 4.570118e-03
1.094000e+03 9.952486e-05
1.095000e+03 6.352996e-03
1.096000e+03 6.269224e-04
1.097000e+03 1.118507e-03
1.098000e+03 4.634349e-03
1.099000e+03 2.958020e-05
1.100000e+03 9.287905e-07
1.101000e+03 1.647051e-06
1.102000e+03 2.335817e-05
1.103000e+03 6.698167e-03
1.104000e+03 6.074663e-03
1.105000e+03 7.302515e-03
1.106000e+03 1.253828e-04
1.107000e+03 1.529115e-06
1.108000e+03 1.188754e-03
1.109000e+03 1.410232e-05
1.110000e+03 6.626952e-03
1.111000e+03 4.609806e-03
1.112000e+03 4.520556e-04
1.113000e+03 7.873276e-03
1.114000e+03 2.382924e-04
1.115000e+03 1.539521e-05
1.116000e+03 4.508649e-06
1.117000e+03 6.108517e-03
1.118000e+03 2.522295e-05
1.119000e+03 4.235628e-04
1.120000e+03 8.154660e-06
1.121000e+03 3.130741e-03
1.122000e+03 2.365902e-02
1.123000e+03 8.494068e-03
1.124000e+03 1.042865e-02
1.125000e+03 4.038962e-03
1.126000e+03 4.435616e-02
1.127000e+03 3.996712e-03
1.128000e+03 1.933306e-02
1.129000e+03 1.733188e-03
1.130000e+03 1.639629e-02
1.131000e+03 2.177836e-02
1.132000e+03 1.549948e-05
1.133000e+03 1.860224e-04
1.134000e+03 2.945745e-03
1.135000e+03 2.160241e-02
1.136000e+03 3.577266e-04
1.137000e+03 1.035536e-02
1.138000e+03 2.141599e-03
1.139000e+03 2.139012e-02
1.140000e+03 1.543148e-02
1.141000e+03 2.238497e-02
1.142000e+03 2.539900e-02
1.143000e+03 2.010416e-03
1.144000e+03 2.630090e-02
1.145000e+03 1.216587e-05
1.146000e+03 2.679729e-02
1.147000e+03 2.346826e-02
1.148000e+03 8.761790e-05
1.149000e+03 1.150251e-02
1.150000e+03 9.001388e-03
1.151000e+03 2.449662e-02
1.152000e+03 1.109386e-02
1.153000e+03 2.484547e-02
1.154000e+03 3.109738e-02
1.155000e+03 1.226762e-02
1.156000e+03 2.319305e-02
1.157000e+03 2.744718e-02
1.158000e+03 2.862997e-03
1.159000e+03 2.606061e-02
1.160000e+03 4.875618e-03
1.161000e+03 2.334085e-02
1.162000e+03 4.373910e-04
1.163000e+03 2.003398e-03
1.164000e+03 1.354483e-04
1.165000e+03 1.040060e-02
1.166000e+03 6.219524e-03
1.167000e+03 5.280017e-03
1.168000e+03 2.928458e-02
1.169000e+03 3.334101e-02
1.170000e+03 3.503361e-03
1.171000e+03 1.544528e-02
1.172000e+03 7.511009e-03
1.173000e+03 1.197840e-02
1.174000e+03 7.180334e-05
1.175000e+03 8.489355e-05
1.176000e+03 3.863801e-05
1.177000e+03 4.300573e-02
1.178000e+03 4.151793e-02
1.179000e+03 3.701447e-02
1.180000e+03 1.815431e-02
1.181000e+03 3.648534e-02
1.182000e+03 3.261638e-02
1.183000e+03 1.668764e-02
1.184000e+03 1.374054e-02
1.185000e+03 1.598488e-02
1.186000e+03 3.664309e-04
1.187000e+03 2.623590e-02
1.188000e+03 1.118610e-02
1.189000e+03 3.015607e-02
1.190000e+03 2.914022e-02
1.191000e+03 2.398571e-02
1.192000e+03 2.505462e-02
1.193000e+03 2.059817e-02
1.194000e+03 2.441558e-02
1.195000e+03 2.312448e-02
1.196000e+03 1.967700e-01
1.197000e+03 3.610465e-01
1.198000e+03 1.232684e-03
1.199000e+03 3.033236e-01
1.200000e+03 5.253185e-03
1.201000e+03 2.113668e-01
1.202000e+03 5.339287e-02
1.203000e+03 1.453785e-01
1.204000e+03 6.694943e-03
1.205000e+03 9.513145e-02
1.206000e+03 8.117128e-02
1.207000e+03 1.558261e-02
1.208000e+03 4.508233e-02
1.209000e+03 3.670054e-02
1.210000e+03 2.016276e-04
1.211000e+03 1.465285e-02
1.212000e+03 6.417196e-03
1.213000e+03 3.581973e-03
1.214000e+03 1.152304e-03
1.215000e+03 2.163665e-04
1.216000e+03 1.765542e-04
1.217000e+03 7.587392e-04
1.218000e+03 3.056493e-03
1.219000e+03 7.773133e-03
1.220000e+03 5.856674e-03
1.221000e+03 2.991058e-02
1.222000e+03 4.151116e-02
1.223000e+03 3.947642e-02
1.224000e+03 9.773568e-02
1.225000e+03 2.690434e-03
1.226000e+03 2.080998e-01
1.227000e+03 2.665724e-01
1.228000e+03 2.737181e-02
1.229000e+03 3.188655e-01
1.230000e+03 2.334392e-01
1.231000e+03 1.269829e-02
1.232000e+03 7.521281e-01
1.233000e+03 9.007484e-01
1.234000e+03 9.782636e-01
1.235000e+03 8.614620e-01
1.236000e+03 4.940131e-02
1.237000e+03 1.367511e+00
1.238000e+03 1.281618e+00
1.239000e+03 3.586866e-01
1.240000e+03 7.383351e-01
1.241000e+03 5.276915e-01
1.242000e+03 1.249254e+00
1.243000e+03 2.179157e+00
1.244000e+03 2.414351e+00
1.245000e+03 2.339581e+00
1.246000e+03 1.054379e+00
1.247000e+03 1.698365e+00
1.248000e+03 2.404573e+00
1.249000e+03 3.356705e+00
1.250000e+03 2.053257e+00
1.251000e+03 3.327887e+00
1.252000e+03 2.313516e+00
1.253000e+03 3.745355e+00
1.254000e+03 2.535247e+00
1.255000e+03 7.965388e-01
1.256000e+03 1.794919e+00
1.257000e+03 1.973242e+00
1.258000e+03 8.267355e-01
1.259000e+03 1.323960e+00
1.260000e+03 3.919554e+00
1.261000e+03 8.755827e-02
1.262000e+03 4.253066e+00
1.263000e+03 3.271340e+00
1.264000e+03 1.092014e+00
1.265000e+03 1.936310e+00
1.266000e+03 4.796725e+00
1.267000e+03 2.094881e+00
