# wavelength_A flux
5.000000e+02 5.893930e-26
5.010000e+02 7.250141e-26
5.020000e+02 8.910944e-26
5.030000e+02 1.094306e-25
5.040000e+02 1.342746e-25
5.050000e+02 1.737527e-25
5.060000e+02 2.126521e-25
5.070000e+02 2.599129e-25
5.080000e+02 3.176507e-25
5.090000e+02 3.877622e-25
5.100000e+02 4.445577e-25
5.110000e+02 5.764855e-25
5.120000e+02 7.017427e-25
5.130000e+02 8.544169e-25
5.140000e+02 1.039000e-24
5.150000e+02 1.262478e-24
5.160000e+02 1.532848e-24
5.170000e+02 1.859884e-24
5.180000e+02 2.254909e-24
5.190000e+02 2.731803e-24
5.200000e+02 3.307114e-24
5.210000e+02 4.000632e-24
5.220000e+02 4.834623e-24
5.230000e+02 5.841714e-24
5.240000e+02 7.051578e-24
5.250000e+02 8.505778e-24
5.260000e+02 1.025253e-23
5.270000e+02 1.234923e-23
5.280000e+02 1.486422e-23
5.290000e+02 1.787872e-23
5.300000e+02 2.148983e-23
5.310000e+02 2.581220e-23
5.320000e+02 3.098252e-23
5.330000e+02 3.716290e-23
5.340000e+02 4.454564e-23
5.350000e+02 5.335858e-23
5.360000e+02 6.387091e-23
5.370000e+02 7.490079e-23
5.380000e+02 9.133554e-23
5.390000e+02 1.091145e-22
5.400000e+02 1.302658e-22
5.410000e+02 1.554054e-22
5.420000e+02 1.852958e-22
5.430000e+02 2.207787e-22
5.440000e+02 2.628856e-22
5.450000e+02 3.128210e-22
5.460000e+02 3.720017e-22
5.470000e+02 4.420979e-22
5.480000e+02 5.250671e-22
5.490000e+02 6.232130e-22
5.500000e+02 7.392391e-22
5.510000e+02 8.763175e-22
5.520000e+02 1.038168e-21
5.530000e+02 1.229149e-21
5.540000e+02 1.454367e-21
5.550000e+02 1.719796e-21
5.560000e+02 2.032428e-21
5.570000e+02 2.400434e-21
5.580000e+02 2.833362e-21
5.590000e+02 3.342362e-21
5.600000e+02 3.940447e-21
5.610000e+02 4.642793e-21
5.620000e+02 5.467090e-21
5.630000e+02 6.433948e-21
5.640000e+02 7.567363e-21
5.650000e+02 8.895261e-21
5.660000e+02 1.045012e-20
5.670000e+02 1.226968e-20
5.680000e+02 1.439780e-20
5.690000e+02 1.688540e-20
5.700000e+02 1.979155e-20
5.710000e+02 2.318477e-20
5.720000e+02 2.714450e-20
5.730000e+02 3.176275e-20
5.740000e+02 3.714605e-20
5.750000e+02 4.341769e-20
5.760000e+02 5.071985e-20
5.770000e+02 5.922010e-20
5.780000e+02 6.910491e-20
5.790000e+02 8.059592e-20
5.800000e+02 9.394693e-20
5.810000e+02 1.094507e-19
5.820000e+02 1.274447e-19
5.830000e+02 1.483164e-19
5.840000e+02 1.724658e-19
5.850000e+02 2.005501e-19
5.860000e+02 2.330450e-19
5.870000e+02 2.706478e-19
5.880000e+02 3.141533e-19
5.890000e+02 3.644636e-19
5.900000e+02 4.226137e-19
5.910000e+02 4.897911e-19
5.920000e+02 5.673582e-19
5.930000e+02 6.568771e-19
5.940000e+02 7.601377e-19
5.950000e+02 8.791903e-19
5.960000e+02 1.016382e-18
5.970000e+02 1.174399e-18
5.980000e+02 1.356314e-18
5.990000e+02 1.565638e-18
6.000000e+02 1.806384e-18
6.010000e+02 2.083137e-18
6.020000e+02 2.401128e-18
6.030000e+02 2.766328e-18
6.040000e+02 3.185546e-18
6.050000e+02 3.666545e-18
6.060000e+02 4.218170e-18
6.070000e+02 4.850495e-18
6.080000e+02 5.574987e-18
6.090000e+02 6.404697e-18
6.100000e+02 7.354467e-18
6.110000e+02 8.441171e-18
6.120000e+02 9.683981e-18
6.130000e+02 1.110468e-17
6.140000e+02 1.272799e-17
6.150000e+02 1.458197e-17
6.160000e+02 1.669846e-17
6.170000e+02 1.911354e-17
6.180000e+02 2.186812e-17
6.190000e+02 2.500853e-17
6.200000e+02 2.858724e-17
6.210000e+02 3.266365e-17
6.220000e+02 3.730494e-17
6.230000e+02 4.258710e-17
6.240000e+02 4.859604e-17
6.250000e+02 5.542881e-17
6.260000e+02 6.319506e-17
6.270000e+02 7.201855e-17
6.280000e+02 8.203898e-17
6.290000e+02 9.341391e-17
6.300000e+02 1.063210e-16
6.310000e+02 1.209226e-16
6.320000e+02 1.375583e-16
6.330000e+02 1.563683e-16
6.340000e+02 1.776766e-16
6.350000e+02 2.018036e-16
6.360000e+02 2.291164e-16
6.370000e+02 2.600173e-16
6.380000e+02 2.949655e-16
6.390000e+02 3.344754e-16
6.400000e+02 3.791246e-16
6.410000e+02 4.295614e-16
6.420000e+02 4.865136e-16
6.430000e+02 5.507974e-16
6.440000e+02 6.233283e-16
6.450000e+02 7.051321e-16
6.460000e+02 7.973588e-16
6.470000e+02 9.012958e-16
6.480000e+02 1.018385e-15
6.490000e+02 1.150241e-15
6.500000e+02 1.298668e-15
6.510000e+02 1.465687e-15
6.520000e+02 1.653554e-15
6.530000e+02 1.864792e-15
6.540000e+02 2.102220e-15
6.550000e+02 2.368987e-15
6.560000e+02 2.668604e-15
6.570000e+02 3.004995e-15
6.580000e+02 3.382533e-15
6.590000e+02 3.806097e-15
6.600000e+02 4.281123e-15
6.610000e+02 4.813673e-15
6.620000e+02 5.410495e-15
6.630000e+02 6.079108e-15
6.640000e+02 6.827877e-15
6.650000e+02 7.666114e-15
6.660000e+02 8.604194e-15
6.670000e+02 9.653602e-15
6.680000e+02 1.082716e-14
6.690000e+02 1.213909e-14
6.700000e+02 1.360520e-14
6.710000e+02 1.524304e-14
6.720000e+02 1.707210e-14
6.730000e+02 1.911400e-14
6.740000e+02 2.139273e-14
6.750000e+02 2.393489e-14
6.760000e+02 2.676997e-14
6.770000e+02 2.993066e-14
6.780000e+02 3.345317e-14
6.790000e+02 3.737761e-14
6.800000e+02 4.174838e-14
6.810000e+02 4.661464e-14
6.820000e+02 5.203076e-14
6.830000e+02 5.805690e-14
6.840000e+02 6.475957e-14
6.850000e+02 7.221230e-14
6.860000e+02 8.049633e-14
6.870000e+02 8.970142e-14
6.880000e+02 9.992669e-14
6.890000e+02 1.112816e-13
6.900000e+02 1.238868e-13
6.910000e+02 1.378757e-13
6.920000e+02 1.533953e-13
6.930000e+02 1.706075e-13
6.940000e+02 1.896910e-13
6.950000e+02 2.108428e-13
6.960000e+02 2.342795e-13
6.970000e+02 2.602402e-13
6.980000e+02 2.889877e-13
6.990000e+02 3.208115e-13
7.000000e+02 3.560300e-13
7.010000e+02 3.949935e-13
7.020000e+02 4.380871e-13
7.030000e+02 4.857345e-13
7.040000e+02 5.384009e-13
7.050000e+02 5.965977e-13
7.060000e+02 6.608816e-13
7.070000e+02 7.318840e-13
7.080000e+02 8.102673e-13
7.090000e+02 8.967791e-13
7.100000e+02 9.922347e-13
7.110000e+02 1.097528e-12
7.120000e+02 1.213639e-12
7.130000e+02 1.341643e-12
7.140000e+02 1.482717e-12
7.150000e+02 1.638151e-12
7.160000e+02 1.809358e-12
7.170000e+02 1.997886e-12
7.180000e+02 2.205427e-12
7.190000e+02 2.433837e-12
7.200000e+02 2.685141e-12
7.210000e+02 2.961558e-12
7.220000e+02 3.265514e-12
7.230000e+02 3.599659e-12
7.240000e+02 3.966891e-12
7.250000e+02 4.370376e-12
7.260000e+02 4.813572e-12
7.270000e+02 5.300253e-12
7.280000e+02 5.834544e-12
7.290000e+02 6.420941e-12
7.300000e+02 7.064357e-12
7.310000e+02 7.770144e-12
7.320000e+02 8.544144e-12
7.330000e+02 9.392727e-12
7.340000e+02 1.032283e-11
7.350000e+02 1.134201e-11
7.360000e+02 1.245852e-11
7.370000e+02 1.368133e-11
7.380000e+02 1.502022e-11
7.390000e+02 1.648581e-11
7.400000e+02 1.808969e-11
7.410000e+02 1.984446e-11
7.420000e+02 2.176383e-11
7.430000e+02 2.386269e-11
7.440000e+02 2.615726e-11
7.450000e+02 2.866514e-11
7.460000e+02 3.140549e-11
7.470000e+02 3.439910e-11
7.480000e+02 3.766856e-11
7.490000e+02 4.123839e-11
7.500000e+02 4.513525e-11
7.510000e+02 4.938804e-11
7.520000e+02 5.402813e-11
7.530000e+02 5.908955e-11
7.540000e+02 6.460922e-11
7.550000e+02 7.062717e-11
7.560000e+02 7.718681e-11
7.570000e+02 8.433515e-11
7.580000e+02 9.212320e-11
7.590000e+02 1.006062e-10
7.600000e+02 1.098438e-10
7.610000e+02 1.199010e-10
7.620000e+02 1.308478e-10
7.630000e+02 1.427602e-10
7.640000e+02 1.557201e-10
7.650000e+02 1.698166e-10
7.660000e+02 1.851457e-10
7.670000e+02 2.018114e-10
7.680000e+02 2.199259e-10
7.690000e+02 2.396106e-10
7.700000e+02 2.609975e-10
7.710000e+02 2.842275e-10
7.720000e+02 3.094542e-10
7.730000e+02 3.368430e-10
7.740000e+02 3.665725e-10
7.750000e+02 3.988355e-10
7.760000e+02 4.338402e-10
7.770000e+02 4.718111e-10
7.780000e+02 5.129905e-10
7.790000e+02 5.576396e-10
7.800000e+02 6.060402e-10
7.810000e+02 6.584959e-10
7.820000e+02 7.153343e-10
7.830000e+02 7.769081e-10
7.840000e+02 8.435975e-10
7.850000e+02 9.158118e-10
7.860000e+02 9.939922e-10
7.870000e+02 1.078613e-09
7.880000e+02 1.170187e-09
7.890000e+02 1.269262e-09
7.900000e+02 1.376431e-09
7.910000e+02 1.492332e-09
7.920000e+02 1.617647e-09
7.930000e+02 1.753117e-09
7.940000e+02 1.899532e-09
7.950000e+02 2.057743e-09
7.960000e+02 2.228665e-09
7.970000e+02 2.413283e-09
7.980000e+02 2.612653e-09
7.990000e+02 2.827909e-09
8.000000e+02 3.060271e-09
8.010000e+02 3.311046e-09
8.020000e+02 3.581640e-09
8.030000e+02 3.873561e-09
8.040000e+02 4.188425e-09
8.050000e+02 4.527834e-09
8.060000e+02 4.894054e-09
8.070000e+02 5.288680e-09
8.080000e+02 5.713984e-09
8.090000e+02 6.172262e-09
8.100000e+02 6.665975e-09
8.110000e+02 7.197760e-09
8.120000e+02 7.770439e-09
8.130000e+02 8.387041e-09
8.140000e+02 9.050805e-09
8.150000e+02 9.765201e-09
8.160000e+02 1.053395e-08
8.170000e+02 1.136101e-08
8.180000e+02 1.225067e-08
8.190000e+02 1.320745e-08
8.200000e+02 1.423625e-08
8.210000e+02 1.534226e-08
8.220000e+02 1.653108e-08
8.230000e+02 1.780864e-08
8.240000e+02 1.918134e-08
8.250000e+02 2.065597e-08
8.260000e+02 2.223981e-08
8.270000e+02 2.394065e-08
8.280000e+02 2.576679e-08
8.290000e+02 2.772710e-08
8.300000e+02 2.983107e-08
8.310000e+02 3.208881e-08
8.320000e+02 3.451111e-08
8.330000e+02 3.710953e-08
8.340000e+02 3.989635e-08
8.350000e+02 4.288466e-08
8.360000e+02 4.608860e-08
8.370000e+02 4.952297e-08
8.380000e+02 5.320377e-08
8.390000e+02 5.714796e-08
8.400000e+02 6.137367e-08
8.410000e+02 6.590020e-08
8.420000e+02 7.074811e-08
8.430000e+02 7.593933e-08
8.440000e+02 8.149721e-08
8.450000e+02 8.744664e-08
8.460000e+02 9.381410e-08
8.470000e+02 1.006278e-07
8.480000e+02 1.079178e-07
8.490000e+02 1.157160e-07
8.500000e+02 1.240566e-07
8.510000e+02 1.329756e-07
8.520000e+02 1.425116e-07
8.530000e+02 1.527057e-07
8.540000e+02 1.636013e-07
8.550000e+02 1.752449e-07
8.560000e+02 1.876858e-07
8.570000e+02 2.009763e-07
8.580000e+02 2.151720e-07
8.590000e+02 2.303326e-07
8.600000e+02 2.465204e-07
8.610000e+02 2.638026e-07
8.620000e+02 2.822501e-07
8.630000e+02 3.019382e-07
8.640000e+02 3.229470e-07
8.650000e+02 3.453617e-07
8.660000e+02 3.692724e-07
8.670000e+02 3.947749e-07
8.680000e+02 4.219710e-07
8.690000e+02 4.509684e-07
8.700000e+02 4.818814e-07
8.710000e+02 5.148322e-07
8.720000e+02 5.499488e-07
8.730000e+02 5.873681e-07
8.740000e+02 6.272349e-07
8.750000e+02 6.697026e-07
8.760000e+02 7.149341e-07
8.770000e+02 7.631018e-07
8.780000e+02 8.143880e-07
8.790000e+02 8.689876e-07
8.800000e+02 9.271046e-07
8.810000e+02 9.889568e-07
8.820000e+02 1.054774e-06
8.830000e+02 1.124801e-06
8.840000e+02 1.199294e-06
8.850000e+02 1.278527e-06
8.860000e+02 1.362790e-06
8.870000e+02 1.452387e-06
8.880000e+02 1.547644e-06
8.890000e+02 1.648902e-06
8.900000e+02 1.756523e-06
8.910000e+02 1.870892e-06
8.920000e+02 1.992413e-06
8.930000e+02 2.121515e-06
8.940000e+02 2.258650e-06
8.950000e+02 2.404299e-06
8.960000e+02 2.558967e-06
8.970000e+02 2.723189e-06
8.980000e+02 2.897531e-06
8.990000e+02 3.082590e-06
9.000000e+02 3.278996e-06
9.010000e+02 3.487417e-06
9.020000e+02 3.708555e-06
9.030000e+02 3.943150e-06
9.040000e+02 4.192001e-06
9.050000e+02 4.455923e-06
9.060000e+02 4.735793e-06
9.070000e+02 5.032533e-06
9.080000e+02 5.347120e-06
9.090000e+02 5.680578e-06
9.100000e+02 6.033994e-06
9.110000e+02 6.408508e-06
9.120000e+02 6.805330e-06
9.130000e+02 7.225711e-06
9.140000e+02 8.090923e-06
9.150000e+02 2.037118e-03
9.160000e+02 7.469233e-03
9.170000e+02 1.639063e-04
9.180000e+02 2.734454e-03
9.190000e+02 2.073238e-02
9.200000e+02 5.066057e-02
9.210000e+02 1.161481e-05
9.220000e+02 8.554874e-03
9.230000e+02 2.210941e-04
9.240000e+02 2.893060e-04
9.250000e+02 1.619368e-03
9.260000e+02 3.499354e-03
9.270000e+02 2.215015e-04
9.280000e+02 1.647293e-01
9.290000e+02 2.341210e-01
9.300000e+02 6.092946e-02
9.310000e+02 2.704333e-04
9.320000e+02 1.936669e-01
9.330000e+02 7.067323e-03
9.340000e+02 2.480924e-03
9.350000e+02 1.391083e-03
9.360000e+02 5.024886e-04
9.370000e+02 1.819614e-04
9.380000e+02 7.962963e-04
9.390000e+02 1.165107e-03
9.400000e+02 6.119958e-02
9.410000e+02 1.185484e-02
9.420000e+02 6.413943e-01
9.430000e+02 1.673833e-03
9.440000e+02 7.698623e-01
9.450000e+02 5.236293e-01
9.460000e+02 2.064256e-02
9.470000e+02 1.277402e-04
9.480000e+02 1.717086e-01
9.490000e+02 3.706819e-02
9.500000e+02 1.514968e-03
9.510000e+02 1.811489e-02
9.520000e+02 3.294241e-02
9.530000e+02 4.534323e-04
9.540000e+02 1.534059e-04
9.550000e+02 4.377782e-03
9.560000e+02 5.450013e-01
9.570000e+02 2.473012e-03
9.580000e+02 1.080162e-04
9.590000e+02 1.802358e-01
9.600000e+02 2.733304e-03
9.610000e+02 2.539274e-02
9.620000e+02 1.036401e-02
9.630000e+02 3.422886e-03
9.640000e+02 6.630113e-04
9.650000e+02 3.558695e-04
9.660000e+02 4.783481e-03
9.670000e+02 1.126811e-03
9.680000e+02 7.685572e-04
9.690000e+02 2.444516e-02
9.700000e+02 2.266972e-02
9.710000e+02 1.493199e-03
9.720000e+02 1.080140e-03
9.730000e+02 1.160096e-02
9.740000e+02 2.969177e-02
9.750000e+02 8.852430e-03
9.760000e+02 1.934896e-01
9.770000e+02 9.458340e-02
9.780000e+02 3.573946e-02
9.790000e+02 2.005226e+00
9.800000e+02 1.679885e+00
9.810000e+02 2.869886e-02
9.820000e+02 6.226107e-03
9.830000e+02 6.437014e-01
9.840000e+02 1.473698e-01
9.850000e+02 1.533762e-02
9.860000e+02 2.262866e-02
9.870000e+02 7.805844e-01
9.880000e+02 9.567142e-04
9.890000e+02 1.104976e-01
9.900000e+02 3.037966e-01
9.910000e+02 5.683590e-03
9.920000e+02 6.005854e-04
9.930000e+02 4.079458e+00
9.940000e+02 1.774471e-03
9.950000e+02 2.239452e-01
9.960000e+02 2.552509e-03
9.970000e+02 2.271230e-01
9.980000e+02 3.382361e-01
9.990000e+02 1.106855e-02
1.000000e+03 6.991103e+00
1.001000e+03 5.092067e+00
1.002000e+03 2.131655e+00
1.003000e+03 1.213574e-02
1.004000e+03 1.775742e-03
1.005000e+03 3.293180e-02
1.006000e+03 1.224361e+00
1.007000e+03 2.726074e+00
1.008000e+03 5.775260e-01
1.009000e+03 1.898190e-02
1.010000e+03 6.360265e-01
1.011000e+03 1.242734e+00
1.012000e+03 7.807929e-01
1.013000e+03 6.778378e-01
1.014000e+03 1.730859e-03
1.015000e+03 2.795100e-03
1.016000e+03 3.926420e-02
1.017000e+03 1.928091e-03
1.018000e+03 1.906085e-02
1.019000e+03 2.961159e-03
1.020000e+03 2.313727e+00
1.021000e+03 2.624905e-02
1.022000e+03 3.917217e-02
1.023000e+03 4.828930e-03
1.024000e+03 8.332990e-01
1.025000e+03 2.767112e-03
1.026000e+03 6.882705e-03
1.027000e+03 1.525677e-01
1.028000e+03 4.456937e-02
1.029000e+03 3.440380e-03
1.030000e+03 1.696129e-01
1.031000e+03 2.086403e-01
1.032000e+03 2.264964e+00
1.033000e+03 3.117254e-01
1.034000e+03 3.222348e-01
1.035000e+03 3.072476e-02
1.036000e+03 4.949689e-03
1.037000e+03 1.701749e+00
1.038000e+03 1.109630e+01
1.039000e+03 1.787926e+00
1.040000e+03 2.152098e+00
1.041000e+03 1.776962e+01
1.042000e+03 6.153811e+00
1.043000e+03 6.436981e+00
1.044000e+03 5.139099e+01
1.045000e+03 2.285373e-02
1.046000e+03 2.307145e+00
1.047000e+03 6.371880e-01
1.048000e+03 2.846313e-02
1.049000e+03 7.500581e-01
1.050000e+03 2.949421e-01
1.051000e+03 1.704569e-01
1.052000e+03 6.794988e+00
1.053000e+03 1.686708e+01
1.054000e+03 1.065254e-02
1.055000e+03 2.399918e+01
1.056000e+03 2.428030e+01
1.057000e+03 1.671696e+00
1.058000e+03 1.900735e-01
1.059000e+03 1.201019e-01
1.060000e+03 4.486609e-02
1.061000e+03 2.489960e+00
1.062000e+03 1.090350e-01
1.063000e+03 2.513911e+00
1.064000e+03 4.026794e-02
1.065000e+03 1.732635e-02
1.066000e+03 3.527926e+00
1.067000e+03 1.008366e-01
1.068000e+03 6.820277e+01
1.069000e+03 3.888595e-02
1.070000e+03 1.262321e+00
1.071000e+03 1.610150e+01
1.072000e+03 3.323865e+01
1.073000e+03 2.640152e-02
1.074000e+03 1.802339e+00
1.075000e+03 1.111954e+00
1.076000e+03 3.932514e+01
1.077000e+03 1.539712e-01
1.078000e+03 2.503662e-01
1.079000e+03 9.255260e-01
1.080000e+03 2.592488e+00
1.081000e+03 8.310132e+00
1.082000e+03 5.372147e+00
1.083000e+03 3.129711e+00
1.084000e+03 1.360007e+02
1.085000e+03 1.002838e+00
1.086000e+03 8.006092e+01
1.087000e+03 2.477722e-01
1.088000e+03 2.309148e+02
1.089000e+03 2.130528e+02
1.090000e+03 8.134577e-01
1.091000e+03 1.051010e+00
1.092000e+03 1.070501e+02
1.093000e+03 1.351510e+02
1.094000e+03 8.365585e+00
1.095000e+03 2.722210e+02
1.096000e+03 4.526730e+01
1.097000e+03 2.426917e+01
1.098000e+03 2.154212e+02
1.099000e+03 2.885895e+00
1.100000e+03 1.299915e-01
1.101000e+03 2.595559e-01
1.102000e+03 1.699185e+00
1.103000e+03 1.429395e+02
1.104000e+03 3.624221e+02
1.105000e+03 2.144365e+02
1.106000e+03 7.080726e+00
1.107000e+03 1.732025e-01
1.108000e+03 3.468971e+01
1.109000e+03 1.062492e+00
1.110000e+03 4.527976e+02
1.111000e+03 1.067840e+02
1.112000e+03 1.758066e+01
1.113000e+03 2.411168e+02
1.114000e+03 1.152178e+01
1.115000e+03 1.532217e+00
1.116000e+03 8.323112e-01
1.117000e+03 1.035379e+02
1.118000e+03 1.685770e+00
1.119000e+03 2.347429e+01
1.120000e+03 9.656754e-01
1.121000e+03 7.654867e+01
1.122000e+03 4.736404e+02
1.123000e+03 1.510549e+02
1.124000e+03 1.683926e+02
1.125000e+03 7.497843e+01
1.126000e+03 1.164174e+03
1.127000e+03 1.227514e+02
1.128000e+03 5.668530e+02
1.129000e+03 5.250668e+01
1.130000e+03 2.689780e+02
1.131000e+03 5.294959e+02
1.132000e+03 1.725821e+00
1.133000e+03 6.561401e+00
1.134000e+03 5.708093e+01
1.135000e+03 3.794523e+02
1.136000e+03 1.431522e+01
1.137000e+03 2.168859e+02
1.138000e+03 5.040686e+01
1.139000e+03 5.387410e+02
1.140000e+03 6.694647e+02
1.141000e+03 3.885715e+02
1.142000e+03 8.131050e+02
1.143000e+03 8.653583e+01
1.144000e+03 7.467883e+02
1.145000e+03 1.046906e+00
1.146000e+03 9.941504e+02
1.147000e+03 5.342196e+02
1.148000e+03 4.932465e+00
1.149000e+03 2.531815e+02
1.150000e+03 1.482671e+02
1.151000e+03 9.078270e+02
1.152000e+03 4.164707e+02
1.153000e+03 5.646515e+02
1.154000e+03 1.049036e+03
1.155000e+03 2.104526e+02
1.156000e+03 9.037963e+02
1.157000e+03 1.037474e+03
1.158000e+03 9.502618e+01
1.159000e+03 7.298958e+02
1.160000e+03 1.014018e+02
1.161000e+03 6.143494e+02
1.162000e+03 1.841077e+01
1.163000e+03 5.114734e+01
1.164000e+03 9.472763e+00
1.165000e+03 3.267673e+02
1.166000e+03 1.868843e+02
1.167000e+03 1.759445e+02
1.168000e+03 1.035311e+03
1.169000e+03 1.170222e+03
1.170000e+03 1.357391e+02
1.171000e+03 4.612600e+02
1.172000e+03 1.483314e+02
1.173000e+03 5.067334e+02
1.174000e+03 5.009071e+00
1.175000e+03 5.986923e+00
1.176000e+03 2.208702e+00
1.177000e+03 1.436666e+03
1.178000e+03 1.427578e+03
1.179000e+03 9.934886e+02
1.180000e+03 3.044103e+02
1.181000e+03 1.296735e+03
1.182000e+03 8.896092e+02
1.183000e+03 3.508885e+02
1.184000e+03 2.788653e+02
1.185000e+03 3.938727e+02
1.186000e+03 2.146407e+01
1.187000e+03 6.146774e+02
1.188000e+03 2.025704e+02
1.189000e+03 1.092797e+03
1.190000e+03 9.936547e+02
1.191000e+03 5.479590e+02
1.192000e+03 7.929780e+02
1.193000e+03 4.716922e+02
1.194000e+03 7.509291e+02
1.195000e+03 7.160403e+02
1.196000e+03 1.783630e+03
1.197000e+03 4.754657e+03
1.198000e+03 5.587823e+01
1.199000e+03 4.605953e+03
1.200000e+03 1.378551e+02
1.201000e+03 3.484252e+03
1.202000e+03 5.864417e+02
1.203000e+03 2.119734e+03
1.204000e+03 1.322982e+02
1.205000e+03 1.496466e+03
1.206000e+03 1.742503e+03
1.207000e+03 5.940594e+02
1.208000e+03 1.054139e+03
1.209000e+03 1.160071e+03
1.210000e+03 9.284424e+00
1.211000e+03 5.253841e+02
1.212000e+03 2.077516e+02
1.213000e+03 1.633538e+02
1.214000e+03 5.611981e+01
1.215000e+03 8.777452e+00
1.216000e+03 5.160459e+00
1.217000e+03 3.603044e+01
1.218000e+03 1.377340e+02
1.219000e+03 3.163731e+02
1.220000e+03 1.439780e+02
1.221000e+03 9.338738e+02
1.222000e+03 9.243186e+02
1.223000e+03 8.556731e+02
1.224000e+03 2.526931e+03
1.225000e+03 8.454053e+01
1.226000e+03 4.362792e+03
1.227000e+03 4.134796e+03
1.228000e+03 4.344884e+02
1.229000e+03 2.921667e+03
1.230000e+03 1.957026e+03
1.231000e+03 2.839067e+02
1.232000e+03 9.719103e+03
1.233000e+03 1.120738e+04
1.234000e+03 1.052496e+04
1.235000e+03 7.446205e+03
1.236000e+03 6.213774e+02
1.237000e+03 1.200232e+04
1.238000e+03 8.434881e+03
1.239000e+03 3.490320e+03
1.240000e+03 8.465384e+03
1.241000e+03 3.360073e+03
1.242000e+03 7.460904e+03
1.243000e+03 1.562905e+04
1.244000e+03 1.860751e+04
1.245000e+03 1.350062e+04
1.246000e+03 6.719164e+03
1.247000e+03 9.999306e+03
1.248000e+03 1.871285e+04
1.249000e+03 2.363354e+04
1.250000e+03 1.370646e+04
1.251000e+03 2.122193e+04
1.252000e+03 1.228374e+04
1.253000e+03 2.359173e+04
1.254000e+03 1.367737e+04
1.255000e+03 1.151533e+04
1.256000e+03 1.102615e+04
1.257000e+03 1.715588e+04
1.258000e+03 4.650068e+03
1.259000e+03 8.284764e+03
1.260000e+03 2.322237e+04
1.261000e+03 2.042043e+03
1.262000e+03 2.842281e+04
1.263000e+03 1.802931e+04
1.264000e+03 6.326867e+03
1.265000e+03 4.799582e+03
1.266000e+03 2.405179e+04
1.267000e+03 9.288197e+03
