# wavelength_A flux
5.000000e+02 1.181036e-18
5.010000e+02 1.406971e-18
5.020000e+02 1.674924e-18
5.030000e+02 1.992485e-18
5.040000e+02 2.368568e-18
5.050000e+02 2.499170e-18
5.060000e+02 2.968498e-18
5.070000e+02 3.523490e-18
5.080000e+02 4.179328e-18
5.090000e+02 4.953803e-18
5.100000e+02 5.867751e-18
5.110000e+02 6.945558e-18
5.120000e+02 8.215742e-18
5.130000e+02 9.711637e-18
5.140000e+02 1.147218e-17
5.150000e+02 1.354318e-17
5.160000e+02 1.597653e-17
5.170000e+02 1.883847e-17
5.180000e+02 2.219068e-17
5.190000e+02 2.612693e-17
5.200000e+02 3.074146e-17
5.210000e+02 3.614798e-17
5.220000e+02 4.249999e-17
5.230000e+02 4.988470e-17
5.240000e+02 5.854408e-17
5.250000e+02 6.866287e-17
5.260000e+02 8.048165e-17
5.270000e+02 9.427599e-17
5.280000e+02 1.103662e-16
5.290000e+02 1.292571e-16
5.300000e+02 1.509746e-16
5.310000e+02 1.764167e-16
5.320000e+02 2.060214e-16
5.330000e+02 2.404492e-16
5.340000e+02 2.804624e-16
5.350000e+02 3.269407e-16
5.360000e+02 3.809077e-16
5.370000e+02 4.710995e-16
5.380000e+02 5.161231e-16
5.390000e+02 6.001684e-16
5.400000e+02 6.975698e-16
5.410000e+02 8.106489e-16
5.420000e+02 9.407944e-16
5.430000e+02 1.091549e-15
5.440000e+02 1.265808e-15
5.450000e+02 1.467060e-15
5.460000e+02 1.700523e-15
5.470000e+02 1.967338e-15
5.480000e+02 2.276319e-15
5.490000e+02 2.632371e-15
5.500000e+02 3.042448e-15
5.510000e+02 3.514492e-15
5.520000e+02 4.057574e-15
5.530000e+02 4.682050e-15
5.540000e+02 5.399739e-15
5.550000e+02 6.224117e-15
5.560000e+02 7.170547e-15
5.570000e+02 8.256533e-15
5.580000e+02 9.502004e-15
5.590000e+02 1.092964e-14
5.600000e+02 1.256526e-14
5.610000e+02 1.443818e-14
5.620000e+02 1.658176e-14
5.630000e+02 1.903386e-14
5.640000e+02 2.183747e-14
5.650000e+02 2.504140e-14
5.660000e+02 2.870096e-14
5.670000e+02 3.287889e-14
5.680000e+02 3.764626e-14
5.690000e+02 4.308359e-14
5.700000e+02 4.928202e-14
5.710000e+02 5.634456e-14
5.720000e+02 6.438791e-14
5.730000e+02 7.354387e-14
5.740000e+02 8.396135e-14
5.750000e+02 9.580094e-14
5.760000e+02 1.092922e-13
5.770000e+02 1.245663e-13
5.780000e+02 1.419412e-13
5.790000e+02 1.616639e-13
5.800000e+02 1.840413e-13
5.810000e+02 2.094196e-13
5.820000e+02 2.381898e-13
5.830000e+02 2.708015e-13
5.840000e+02 3.081629e-13
5.850000e+02 3.496073e-13
5.860000e+02 3.967764e-13
5.870000e+02 4.502367e-13
5.880000e+02 5.106848e-13
5.890000e+02 5.790021e-13
5.900000e+02 6.561518e-13
5.910000e+02 7.432644e-13
5.920000e+02 8.415736e-13
5.930000e+02 9.524705e-13
5.940000e+02 1.077513e-12
5.950000e+02 1.218445e-12
5.960000e+02 1.377219e-12
5.970000e+02 1.556017e-12
5.980000e+02 1.757280e-12
5.990000e+02 1.983736e-12
6.000000e+02 2.238431e-12
6.010000e+02 2.524772e-12
6.020000e+02 2.846551e-12
6.030000e+02 3.208012e-12
6.040000e+02 3.613881e-12
6.050000e+02 4.069428e-12
6.060000e+02 4.580556e-12
6.070000e+02 5.153725e-12
6.080000e+02 5.796306e-12
6.090000e+02 6.516384e-12
6.100000e+02 7.322984e-12
6.110000e+02 8.226148e-12
6.120000e+02 9.237040e-12
6.130000e+02 1.036807e-11
6.140000e+02 1.163302e-11
6.150000e+02 1.304720e-11
6.160000e+02 1.462762e-11
6.170000e+02 1.639312e-11
6.180000e+02 1.836466e-11
6.190000e+02 2.056543e-11
6.200000e+02 2.302115e-11
6.210000e+02 2.576035e-11
6.220000e+02 2.881460e-11
6.230000e+02 3.221887e-11
6.240000e+02 3.601188e-11
6.250000e+02 4.023647e-11
6.260000e+02 4.494001e-11
6.270000e+02 5.017492e-11
6.280000e+02 5.599908e-11
6.290000e+02 6.247652e-11
6.300000e+02 6.967828e-11
6.310000e+02 7.794753e-11
6.320000e+02 8.657289e-11
6.330000e+02 9.644928e-11
6.340000e+02 1.074107e-10
6.350000e+02 1.195879e-10
6.360000e+02 1.330754e-10
6.370000e+02 1.480449e-10
6.380000e+02 1.646409e-10
6.390000e+02 1.830338e-10
6.400000e+02 2.034110e-10
6.410000e+02 2.259791e-10
6.420000e+02 2.509650e-10
6.430000e+02 2.786185e-10
6.440000e+02 3.092141e-10
6.450000e+02 3.430540e-10
6.460000e+02 3.804685e-10
6.470000e+02 4.218231e-10
6.480000e+02 4.675163e-10
6.490000e+02 5.179878e-10
6.500000e+02 5.737195e-10
6.510000e+02 6.352370e-10
6.520000e+02 7.031219e-10
6.530000e+02 7.780082e-10
6.540000e+02 8.605920e-10
6.550000e+02 9.516341e-10
6.560000e+02 1.051971e-09
6.570000e+02 1.162556e-09
6.580000e+02 1.284267e-09
6.590000e+02 1.418321e-09
6.600000e+02 1.565876e-09
6.610000e+02 1.728239e-09
6.620000e+02 1.906842e-09
6.630000e+02 2.103250e-09
6.640000e+02 2.319170e-09
6.650000e+02 2.556472e-09
6.660000e+02 2.817188e-09
6.670000e+02 3.103547e-09
6.680000e+02 3.417975e-09
6.690000e+02 3.763122e-09
6.700000e+02 4.141880e-09
6.710000e+02 4.557386e-09
6.720000e+02 5.013084e-09
6.730000e+02 5.512713e-09
6.740000e+02 6.060346e-09
6.750000e+02 6.660422e-09
6.760000e+02 7.317774e-09
6.770000e+02 8.037660e-09
6.780000e+02 8.825804e-09
6.790000e+02 9.688432e-09
6.800000e+02 1.063232e-08
6.810000e+02 1.166482e-08
6.820000e+02 1.279394e-08
6.830000e+02 1.402837e-08
6.840000e+02 1.537757e-08
6.850000e+02 1.685179e-08
6.860000e+02 1.846218e-08
6.870000e+02 2.022082e-08
6.880000e+02 2.214083e-08
6.890000e+02 2.423647e-08
6.900000e+02 2.652316e-08
6.910000e+02 2.901765e-08
6.920000e+02 3.173809e-08
6.930000e+02 3.470416e-08
6.940000e+02 3.793718e-08
6.950000e+02 4.146023e-08
6.960000e+02 4.529831e-08
6.970000e+02 4.948180e-08
6.980000e+02 5.403010e-08
6.990000e+02 5.898481e-08
7.000000e+02 6.437694e-08
7.010000e+02 7.024359e-08
7.020000e+02 7.662489e-08
7.030000e+02 8.356417e-08
7.040000e+02 9.110833e-08
7.050000e+02 9.930800e-08
7.060000e+02 1.082179e-07
7.070000e+02 1.178971e-07
7.080000e+02 1.284093e-07
7.090000e+02 1.398235e-07
7.100000e+02 1.522139e-07
7.110000e+02 1.656608e-07
7.120000e+02 1.802505e-07
7.130000e+02 1.960763e-07
7.140000e+02 2.132388e-07
7.150000e+02 2.318463e-07
7.160000e+02 2.520157e-07
7.170000e+02 2.738743e-07
7.180000e+02 2.975642e-07
7.190000e+02 3.232020e-07
7.200000e+02 3.509774e-07
7.210000e+02 3.810481e-07
7.220000e+02 4.135962e-07
7.230000e+02 4.488173e-07
7.240000e+02 4.869223e-07
7.250000e+02 5.281375e-07
7.260000e+02 5.727067e-07
7.270000e+02 6.208913e-07
7.280000e+02 6.729729e-07
7.290000e+02 7.292537e-07
7.300000e+02 7.900584e-07
7.310000e+02 8.557357e-07
7.320000e+02 9.266600e-07
7.330000e+02 1.003233e-06
7.340000e+02 1.085887e-06
7.350000e+02 1.175084e-06
7.360000e+02 1.271325e-06
7.370000e+02 1.375129e-06
7.380000e+02 1.487081e-06
7.390000e+02 1.607790e-06
7.400000e+02 1.737911e-06
7.410000e+02 1.878146e-06
7.420000e+02 2.029252e-06
7.430000e+02 2.192032e-06
7.440000e+02 2.367354e-06
7.450000e+02 2.556143e-06
7.460000e+02 2.759389e-06
7.470000e+02 2.978153e-06
7.480000e+02 3.213571e-06
7.490000e+02 3.466856e-06
7.500000e+02 3.739307e-06
7.510000e+02 4.032314e-06
7.520000e+02 4.347361e-06
7.530000e+02 4.686038e-06
7.540000e+02 5.050039e-06
7.550000e+02 5.441179e-06
7.560000e+02 5.861395e-06
7.570000e+02 6.312775e-06
7.580000e+02 6.797472e-06
7.590000e+02 7.317943e-06
7.600000e+02 7.876569e-06
7.610000e+02 8.476147e-06
7.620000e+02 9.119521e-06
7.630000e+02 9.809750e-06
7.640000e+02 1.055010e-05
7.650000e+02 1.134405e-05
7.660000e+02 1.219530e-05
7.670000e+02 1.310783e-05
7.680000e+02 1.408600e-05
7.690000e+02 1.513538e-05
7.700000e+02 1.625661e-05
7.710000e+02 1.745927e-05
7.720000e+02 1.874723e-05
7.730000e+02 2.012631e-05
7.740000e+02 2.160266e-05
7.750000e+02 2.318284e-05
7.760000e+02 2.487444e-05
7.770000e+02 2.668306e-05
7.780000e+02 2.861841e-05
7.790000e+02 3.068834e-05
7.800000e+02 3.290177e-05
7.810000e+02 3.526818e-05
7.820000e+02 3.779773e-05
7.830000e+02 4.050113e-05
7.840000e+02 4.338983e-05
7.850000e+02 4.647594e-05
7.860000e+02 4.977237e-05
7.870000e+02 5.329224e-05
7.880000e+02 5.705120e-05
7.890000e+02 6.106415e-05
7.900000e+02 6.534749e-05
7.910000e+02 6.991863e-05
7.920000e+02 7.479605e-05
7.930000e+02 7.999934e-05
7.940000e+02 8.554929e-05
7.950000e+02 9.146797e-05
7.960000e+02 9.777877e-05
7.970000e+02 1.045065e-04
7.980000e+02 1.116775e-04
7.990000e+02 1.193195e-04
8.000000e+02 1.274622e-04
8.010000e+02 1.361369e-04
8.020000e+02 1.453768e-04
8.030000e+02 1.552169e-04
8.040000e+02 1.656945e-04
8.050000e+02 1.768491e-04
8.060000e+02 1.887224e-04
8.070000e+02 2.013585e-04
8.080000e+02 2.148043e-04
8.090000e+02 2.291092e-04
8.100000e+02 2.443256e-04
8.110000e+02 2.605089e-04
8.120000e+02 2.777178e-04
8.130000e+02 2.960142e-04
8.140000e+02 3.154638e-04
8.150000e+02 3.361362e-04
8.160000e+02 3.581033e-04
8.170000e+02 3.814441e-04
8.180000e+02 4.062399e-04
8.190000e+02 4.325771e-04
8.200000e+02 4.605471e-04
8.210000e+02 4.902465e-04
8.220000e+02 5.217772e-04
8.230000e+02 5.552469e-04
8.240000e+02 5.907691e-04
8.250000e+02 6.284637e-04
8.260000e+02 6.684578e-04
8.270000e+02 7.108846e-04
8.280000e+02 7.558854e-04
8.290000e+02 8.036089e-04
8.300000e+02 8.542121e-04
8.310000e+02 9.078605e-04
8.320000e+02 9.647287e-04
8.330000e+02 1.025001e-03
8.340000e+02 1.088871e-03
8.350000e+02 1.157031e-03
8.360000e+02 1.228265e-03
8.370000e+02 1.304171e-03
8.380000e+02 1.384592e-03
8.390000e+02 1.469751e-03
8.400000e+02 1.559912e-03
8.410000e+02 1.655356e-03
8.420000e+02 1.756491e-03
8.430000e+02 1.863286e-03
8.440000e+02 1.976410e-03
8.450000e+02 2.096090e-03
8.460000e+02 2.222692e-03
8.470000e+02 2.356594e-03
8.480000e+02 2.498197e-03
8.490000e+02 2.647924e-03
8.500000e+02 2.806217e-03
8.510000e+02 2.973542e-03
8.520000e+02 3.150394e-03
8.530000e+02 3.337279e-03
8.540000e+02 3.534698e-03
8.550000e+02 3.743315e-03
8.560000e+02 3.963681e-03
8.570000e+02 4.196426e-03
8.580000e+02 4.443145e-03
8.590000e+02 4.701732e-03
8.600000e+02 4.975718e-03
8.610000e+02 5.265004e-03
8.620000e+02 5.570187e-03
8.630000e+02 5.892326e-03
8.640000e+02 6.232235e-03
8.650000e+02 6.590836e-03
8.660000e+02 6.969119e-03
8.670000e+02 7.368110e-03
8.680000e+02 7.788884e-03
8.690000e+02 8.232571e-03
8.700000e+02 8.700445e-03
8.710000e+02 9.193486e-03
8.720000e+02 9.713264e-03
8.730000e+02 1.026105e-02
8.740000e+02 1.083829e-02
8.750000e+02 1.144648e-02
8.760000e+02 1.208721e-02
8.770000e+02 1.276213e-02
8.780000e+02 1.347296e-02
8.790000e+02 1.422148e-02
8.800000e+02 1.500969e-02
8.810000e+02 1.583947e-02
8.820000e+02 1.671297e-02
8.830000e+02 1.763239e-02
8.840000e+02 1.860000e-02
8.850000e+02 1.961816e-02
8.860000e+02 2.068943e-02
8.870000e+02 2.181642e-02
8.880000e+02 2.300190e-02
8.890000e+02 2.424872e-02
8.900000e+02 2.555988e-02
8.910000e+02 2.693857e-02
8.920000e+02 2.844671e-02
8.930000e+02 2.991185e-02
8.940000e+02 3.151352e-02
8.950000e+02 3.319680e-02
8.960000e+02 3.496569e-02
8.970000e+02 3.682432e-02
8.980000e+02 3.877702e-02
8.990000e+02 4.082821e-02
9.000000e+02 4.298273e-02
9.010000e+02 4.524542e-02
9.020000e+02 4.762155e-02
9.030000e+02 5.011697e-02
9.040000e+02 5.273559e-02
9.050000e+02 5.548487e-02
9.060000e+02 5.837064e-02
9.070000e+02 6.139979e-02
9.080000e+02 6.457730e-02
9.090000e+02 6.791186e-02
9.100000e+02 7.141020e-02
9.110000e+02 7.507960e-02
9.120000e+02 7.892397e-02
9.130000e+02 8.537831e-02
9.140000e+02 7.384443e-02
9.150000e+02 8.314671e+00
9.160000e+02 3.446039e+01
9.170000e+02 3.485003e+00
9.180000e+02 2.470974e+01
9.190000e+02 1.154240e+02
9.200000e+02 2.112380e+02
9.210000e+02 1.268094e-01
9.220000e+02 9.507938e+01
9.230000e+02 5.528881e+00
9.240000e+02 6.729248e+00
9.250000e+02 2.445090e+01
9.260000e+02 7.308548e+01
9.270000e+02 4.037651e+00
9.280000e+02 3.949205e+02
9.290000e+02 4.322100e+02
9.300000e+02 3.505418e+02
9.310000e+02 4.331675e+00
9.320000e+02 4.991203e+02
9.330000e+02 8.024149e+01
9.340000e+02 3.525305e+01
9.350000e+02 1.625059e+00
9.360000e+02 6.235398e+00
9.370000e+02 5.754375e-01
9.380000e+02 2.361432e+01
9.390000e+02 1.151503e+01
9.400000e+02 3.607887e+02
9.410000e+02 4.870134e+01
9.420000e+02 7.621388e+02
9.430000e+02 1.691963e+01
9.440000e+02 7.436502e+02
9.450000e+02 8.080935e+02
9.460000e+02 1.910725e+02
9.470000e+02 1.606491e+00
9.480000e+02 7.128986e+02
9.490000e+02 5.408444e+02
9.500000e+02 7.668419e+00
9.510000e+02 1.541620e+02
9.520000e+02 2.278602e+02
9.530000e+02 3.494057e+00
9.540000e+02 1.771646e+00
9.550000e+02 4.921021e+01
9.560000e+02 1.126817e+03
9.570000e+02 1.944055e+01
9.580000e+02 7.730598e-01
9.590000e+02 9.649682e+02
9.600000e+02 1.989723e+00
9.610000e+02 1.952416e+02
9.620000e+02 8.213067e+01
9.630000e+02 5.007947e+01
9.640000e+02 6.604080e-01
9.650000e+02 3.584351e+00
9.660000e+02 5.211877e+01
9.670000e+02 1.189548e+01
9.680000e+02 6.153137e+00
9.690000e+02 1.829965e+02
9.700000e+02 1.409072e+02
9.710000e+02 1.268935e+01
9.720000e+02 1.729095e+01
9.730000e+02 5.993616e+02
9.740000e+02 2.262779e+02
9.750000e+02 7.885235e+01
9.760000e+02 8.934797e+02
9.770000e+02 5.577205e+02
9.780000e+02 2.037204e+02
9.790000e+02 2.545503e+03
9.800000e+02 2.588716e+03
9.810000e+02 2.249852e+02
9.820000e+02 4.542621e+01
9.830000e+02 1.867070e+03
9.840000e+02 1.596063e+02
9.850000e+02 1.289693e+02
9.860000e+02 1.506026e+02
9.870000e+02 2.169547e+03
9.880000e+02 6.538330e+00
9.890000e+02 5.609286e+02
9.900000e+02 3.260907e+01
9.910000e+02 2.711411e+01
9.920000e+02 2.787336e+00
9.930000e+02 3.745257e+03
9.940000e+02 2.349274e+00
9.950000e+02 2.750784e+02
9.960000e+02 1.565820e+01
9.970000e+02 2.032549e+02
9.980000e+02 1.193787e+03
9.990000e+02 5.269847e+01
1.000000e+03 5.163391e+03
1.001000e+03 5.605902e+03
1.002000e+03 4.023943e+03
1.003000e+03 8.331567e+01
1.004000e+03 1.160645e+01
1.005000e+03 1.755483e+02
1.006000e+03 3.499696e+03
1.007000e+03 5.166924e+03
1.008000e+03 2.239350e+03
1.009000e+03 1.287793e+02
1.010000e+03 2.432093e+03
1.011000e+03 4.214137e+03
1.012000e+03 2.533936e+03
1.013000e+03 2.190166e+03
1.014000e+03 6.182007e+00
1.015000e+03 1.338550e+01
1.016000e+03 1.653838e+02
1.017000e+03 6.587402e+00
1.018000e+03 1.263462e+02
1.019000e+03 1.418652e+01
1.020000e+03 6.793357e+03
1.021000e+03 9.520459e+01
1.022000e+03 1.722090e+02
1.023000e+03 2.064600e+01
1.024000e+03 7.173528e+03
1.025000e+03 8.061798e+00
1.026000e+03 1.063215e+02
1.027000e+03 1.030310e+03
1.028000e+03 2.485522e+01
1.029000e+03 1.091284e+01
1.030000e+03 1.001885e+03
1.031000e+03 6.199517e+02
1.032000e+03 4.759528e+03
1.033000e+03 2.060957e+02
1.034000e+03 1.286503e+03
1.035000e+03 1.706250e+01
1.036000e+03 1.551099e+01
1.037000e+03 4.175146e+03
1.038000e+03 1.251598e+04
1.039000e+03 4.983884e+03
1.040000e+03 5.917698e+03
1.041000e+03 1.739628e+04
1.042000e+03 1.148075e+04
1.043000e+03 1.008997e+04
1.044000e+03 2.178700e+04
1.045000e+03 7.027134e+03
1.046000e+03 9.120297e+03
1.047000e+03 1.782934e+03
1.048000e+03 9.496484e+01
1.049000e+03 2.768030e+03
1.050000e+03 1.344527e+03
1.051000e+03 7.343799e+02
1.052000e+03 1.130346e+04
1.053000e+03 2.029824e+04
1.054000e+03 2.670117e+01
1.055000e+03 2.467300e+04
1.056000e+03 2.488744e+04
1.057000e+03 4.058774e+03
1.058000e+03 1.047374e+03
1.059000e+03 3.545625e+02
1.060000e+03 1.424131e+02
1.061000e+03 5.346963e+03
1.062000e+03 5.306958e+02
1.063000e+03 3.754510e+03
1.064000e+03 3.630469e+01
1.065000e+03 4.172852e+01
1.066000e+03 7.031801e+03
1.067000e+03 2.654816e+02
1.068000e+03 4.154766e+04
1.069000e+03 9.709103e+01
1.070000e+03 5.077480e+03
1.071000e+03 3.195372e+04
1.072000e+03 3.202255e+04
1.073000e+03 6.571875e+01
1.074000e+03 3.863367e+03
1.075000e+03 2.471773e+03
1.076000e+03 3.731740e+04
1.077000e+03 2.916436e+02
1.078000e+03 1.049160e+03
1.079000e+03 3.564192e+03
1.080000e+03 6.702271e+03
1.081000e+03 1.414538e+04
1.082000e+03 1.160256e+04
1.083000e+03 7.492812e+03
1.084000e+03 6.324962e+04
1.085000e+03 2.710953e+03
1.086000e+03 5.954528e+04
1.087000e+03 5.960898e+02
1.088000e+03 7.797126e+04
1.089000e+03 7.771323e+04
1.090000e+03 2.102841e+03
1.091000e+03 2.313172e+03
1.092000e+03 6.753024e+04
1.093000e+03 7.048254e+04
1.094000e+03 1.852013e+04
1.095000e+03 8.879597e+04
1.096000e+03 1.707626e+04
1.097000e+03 2.888939e+04
1.098000e+03 9.161990e+04
1.099000e+03 8.036297e+03
1.100000e+03 3.278027e+02
1.101000e+03 6.858792e+02
1.102000e+03 3.454591e+03
1.103000e+03 9.018277e+04
1.104000e+03 1.200993e+05
1.105000e+03 9.954516e+04
1.106000e+03 1.489531e+04
1.107000e+03 3.271797e+02
1.108000e+03 4.758299e+04
1.109000e+03 2.020633e+03
1.110000e+03 1.311007e+05
1.111000e+03 9.157841e+04
1.112000e+03 3.026033e+04
1.113000e+03 1.147716e+05
1.114000e+03 2.044712e+04
1.115000e+03 3.704596e+03
1.116000e+03 2.372376e+03
1.117000e+03 7.684743e+04
1.118000e+03 3.019371e+03
1.119000e+03 4.386714e+04
1.120000e+03 2.359805e+03
1.121000e+03 8.521344e+04
1.122000e+03 8.188688e+03
1.123000e+03 1.114788e+05
1.124000e+03 1.153515e+05
1.125000e+03 7.469349e+04
1.126000e+03 2.090624e+05
1.127000e+03 1.254950e+05
1.128000e+03 1.194662e+05
1.129000e+03 6.261317e+04
1.130000e+03 1.481805e+05
1.131000e+03 1.828154e+05
1.132000e+03 3.817141e+03
1.133000e+03 8.448703e+03
1.134000e+03 6.229044e+04
1.135000e+03 3.087939e+04
1.136000e+03 2.140419e+04
1.137000e+03 1.644193e+05
1.138000e+03 5.896353e+04
1.139000e+03 2.222031e+05
1.140000e+03 1.014764e+05
1.141000e+03 1.927566e+05
1.142000e+03 2.639509e+05
1.143000e+03 1.210221e+05
1.144000e+03 2.700781e+05
1.145000e+03 1.733281e+03
1.146000e+03 3.014469e+05
1.147000e+03 2.486394e+05
1.148000e+03 7.947031e+03
1.149000e+03 1.973020e+05
1.150000e+03 1.212122e+05
1.151000e+03 3.266451e+05
1.152000e+03 2.649694e+05
1.153000e+03 2.625450e+05
1.154000e+03 3.421667e+05
1.155000e+03 1.684175e+05
1.156000e+03 3.601106e+05
1.157000e+03 3.511900e+05
1.158000e+03 1.210096e+05
1.159000e+03 3.196034e+05
1.160000e+03 1.005681e+05
1.161000e+03 3.295135e+05
1.162000e+03 2.644356e+04
1.163000e+03 5.947000e+04
1.164000e+03 2.211344e+03
1.165000e+03 3.109774e+05
1.166000e+03 2.191791e+05
1.167000e+03 2.147776e+05
1.168000e+03 4.403765e+05
1.169000e+03 4.504789e+05
1.170000e+03 2.177902e+05
1.171000e+03 3.423177e+05
1.172000e+03 1.356138e+05
1.173000e+03 4.609998e+05
1.174000e+03 7.928961e+03
1.175000e+03 1.813234e+03
1.176000e+03 1.321109e+03
1.177000e+03 5.359162e+05
1.178000e+03 5.488233e+05
1.179000e+03 4.844034e+05
1.180000e+03 2.293338e+05
1.181000e+03 5.750465e+05
1.182000e+03 4.802024e+05
1.183000e+03 3.033167e+05
1.184000e+03 2.578431e+05
1.185000e+03 3.679308e+05
1.186000e+03 3.728244e+04
1.187000e+03 4.307217e+05
1.188000e+03 1.773627e+05
1.189000e+03 2.618717e+05
1.190000e+03 6.175345e+05
1.191000e+03 4.100365e+05
1.192000e+03 5.787479e+05
1.193000e+03 3.288369e+04
1.194000e+03 2.874932e+05
1.195000e+03 5.687771e+05
1.196000e+03 5.500031e+05
1.197000e+03 8.794221e+05
1.198000e+03 8.599272e+04
1.199000e+03 8.835212e+05
1.200000e+03 1.541836e+05
1.201000e+03 8.454821e+05
1.202000e+03 3.681535e+05
1.203000e+03 8.234874e+05
1.204000e+03 1.245633e+05
1.205000e+03 6.981175e+05
1.206000e+03 7.988967e+05
1.207000e+03 1.729228e+05
1.208000e+03 6.178361e+05
1.209000e+03 6.021641e+05
1.210000e+03 3.629844e+03
1.211000e+03 3.637879e+05
1.212000e+03 1.771225e+05
1.213000e+03 1.405046e+05
1.214000e+03 4.809481e+04
1.215000e+03 6.343342e+03
1.216000e+03 4.060551e+03
1.217000e+03 2.894500e+04
1.218000e+03 1.169938e+05
1.219000e+03 2.433240e+05
1.220000e+03 1.292609e+05
1.221000e+03 5.626665e+05
1.222000e+03 5.772711e+05
1.223000e+03 6.508822e+05
1.224000e+03 9.682585e+05
1.225000e+03 9.578950e+04
1.226000e+03 1.354883e+06
1.227000e+03 1.356629e+06
1.228000e+03 3.670110e+05
1.229000e+03 1.156719e+06
1.230000e+03 9.322338e+05
1.231000e+03 2.850384e+05
1.232000e+03 1.932707e+06
1.233000e+03 2.075543e+06
1.234000e+03 1.640964e+06
1.235000e+03 1.961246e+06
1.236000e+03 4.674401e+05
1.237000e+03 2.248444e+06
1.238000e+03 1.967632e+06
1.239000e+03 1.624361e+06
1.240000e+03 1.392795e+06
1.241000e+03 1.436195e+06
1.242000e+03 2.023268e+06
1.243000e+03 2.601634e+06
1.244000e+03 2.796496e+06
1.245000e+03 2.529720e+06
1.246000e+03 2.197512e+06
1.247000e+03 2.408032e+06
1.248000e+03 2.452010e+06
1.249000e+03 3.144440e+06
1.250000e+03 2.159561e+06
1.251000e+03 3.205291e+06
1.252000e+03 2.731122e+06
1.253000e+03 3.330258e+06
1.254000e+03 2.900417e+06
1.255000e+03 3.436899e+06
1.256000e+03 2.884574e+06
1.257000e+03 2.920526e+06
1.258000e+03 1.960620e+06
1.259000e+03 2.817961e+06
1.260000e+03 3.711568e+06
1.261000e+03 2.058142e+05
1.262000e+03 4.010838e+06
1.263000e+03 3.648010e+06
1.264000e+03 2.472194e+06
1.265000e+03 2.001925e+04
1.266000e+03 3.950598e+06
1.267000e+03 2.866443e+06
