# wavelength_A flux
5.000000e+02 5.550306e-04
5.010000e+02 6.172111e-04
5.020000e+02 6.860541e-04
5.030000e+02 7.622180e-04
5.040000e+02 8.464931e-04
5.050000e+02 9.624772e-04
5.060000e+02 1.067803e-03
5.070000e+02 1.184149e-03
5.080000e+02 1.312614e-03
5.090000e+02 1.454466e-03
5.100000e+02 1.610867e-03
5.110000e+02 1.783371e-03
5.120000e+02 1.973535e-03
5.130000e+02 2.183077e-03
5.140000e+02 2.413785e-03
5.150000e+02 2.667866e-03
5.160000e+02 2.947548e-03
5.170000e+02 3.255086e-03
5.180000e+02 3.593547e-03
5.190000e+02 3.965468e-03
5.200000e+02 4.374149e-03
5.210000e+02 4.823042e-03
5.220000e+02 5.315358e-03
5.230000e+02 5.856890e-03
5.240000e+02 6.450376e-03
5.250000e+02 7.101442e-03
5.260000e+02 7.814799e-03
5.270000e+02 8.596894e-03
5.280000e+02 9.453681e-03
5.290000e+02 1.038974e-02
5.300000e+02 1.141909e-02
5.310000e+02 1.254309e-02
5.320000e+02 1.377267e-02
5.330000e+02 1.511719e-02
5.340000e+02 1.658683e-02
5.350000e+02 1.819280e-02
5.360000e+02 1.994646e-02
5.370000e+02 2.159029e-02
5.380000e+02 2.395201e-02
5.390000e+02 2.623414e-02
5.400000e+02 2.872298e-02
5.410000e+02 3.143465e-02
5.420000e+02 3.439480e-02
5.430000e+02 3.761872e-02
5.440000e+02 4.113023e-02
5.450000e+02 4.495410e-02
5.460000e+02 4.910865e-02
5.470000e+02 5.364653e-02
5.480000e+02 5.857420e-02
5.490000e+02 6.393263e-02
5.500000e+02 6.975859e-02
5.510000e+02 7.609018e-02
5.520000e+02 8.296911e-02
5.530000e+02 9.044018e-02
5.540000e+02 9.855148e-02
5.550000e+02 1.073553e-01
5.560000e+02 1.169083e-01
5.570000e+02 1.272705e-01
5.580000e+02 1.385069e-01
5.590000e+02 1.506875e-01
5.600000e+02 1.638833e-01
5.610000e+02 1.781833e-01
5.620000e+02 1.936704e-01
5.630000e+02 2.104382e-01
5.640000e+02 2.285870e-01
5.650000e+02 2.482246e-01
5.660000e+02 2.694671e-01
5.670000e+02 2.924383e-01
5.680000e+02 3.172717e-01
5.690000e+02 3.441103e-01
5.700000e+02 3.731068e-01
5.710000e+02 4.044277e-01
5.720000e+02 4.382472e-01
5.730000e+02 4.747550e-01
5.740000e+02 5.141509e-01
5.750000e+02 5.566646e-01
5.760000e+02 6.024514e-01
5.770000e+02 6.519421e-01
5.780000e+02 7.052277e-01
5.790000e+02 7.626510e-01
5.800000e+02 8.245172e-01
5.810000e+02 8.911479e-01
5.820000e+02 9.628645e-01
5.830000e+02 1.040080e+00
5.840000e+02 1.122881e+00
5.850000e+02 1.212540e+00
5.860000e+02 1.308789e+00
5.870000e+02 1.412213e+00
5.880000e+02 1.523391e+00
5.890000e+02 1.642855e+00
5.900000e+02 1.771245e+00
5.910000e+02 1.909138e+00
5.920000e+02 2.057216e+00
5.930000e+02 2.216181e+00
5.940000e+02 2.386809e+00
5.950000e+02 2.569789e+00
5.960000e+02 2.766315e+00
5.970000e+02 2.976965e+00
5.980000e+02 3.202828e+00
5.990000e+02 3.444887e+00
6.000000e+02 3.704349e+00
6.010000e+02 3.982299e+00
6.020000e+02 4.280085e+00
6.030000e+02 4.598820e+00
6.040000e+02 4.940193e+00
6.050000e+02 5.305588e+00
6.060000e+02 5.696570e+00
6.070000e+02 6.114897e+00
6.080000e+02 6.562304e+00
6.090000e+02 7.040725e+00
6.100000e+02 7.552145e+00
6.110000e+02 8.098796e+00
6.120000e+02 8.682920e+00
6.130000e+02 9.306938e+00
6.140000e+02 9.973415e+00
6.150000e+02 1.068510e+01
6.160000e+02 1.144486e+01
6.170000e+02 1.225575e+01
6.180000e+02 1.312103e+01
6.190000e+02 1.404412e+01
6.200000e+02 1.502868e+01
6.210000e+02 1.607855e+01
6.220000e+02 1.719782e+01
6.230000e+02 1.839023e+01
6.240000e+02 1.966147e+01
6.250000e+02 2.101583e+01
6.260000e+02 2.245843e+01
6.270000e+02 2.399455e+01
6.280000e+02 2.563017e+01
6.290000e+02 2.737121e+01
6.300000e+02 2.922407e+01
6.310000e+02 3.119532e+01
6.320000e+02 3.329265e+01
6.330000e+02 3.552304e+01
6.340000e+02 3.789467e+01
6.350000e+02 4.041590e+01
6.360000e+02 4.303251e+01
6.370000e+02 4.594334e+01
6.380000e+02 4.896874e+01
6.390000e+02 5.218235e+01
6.400000e+02 5.559515e+01
6.410000e+02 5.921683e+01
6.420000e+02 6.306336e+01
6.430000e+02 6.714451e+01
6.440000e+02 7.147646e+01
6.450000e+02 7.607182e+01
6.460000e+02 8.094667e+01
6.470000e+02 8.611600e+01
6.480000e+02 9.159735e+01
6.490000e+02 9.740791e+01
6.500000e+02 1.035661e+02
6.510000e+02 1.100918e+02
6.520000e+02 1.170053e+02
6.530000e+02 1.243283e+02
6.540000e+02 1.320838e+02
6.550000e+02 1.402955e+02
6.560000e+02 1.489886e+02
6.570000e+02 1.581864e+02
6.580000e+02 1.679255e+02
6.590000e+02 1.782202e+02
6.600000e+02 1.891175e+02
6.610000e+02 2.006429e+02
6.620000e+02 2.128304e+02
6.630000e+02 2.257153e+02
6.640000e+02 2.393356e+02
6.650000e+02 2.537299e+02
6.660000e+02 2.689404e+02
6.670000e+02 2.850096e+02
6.680000e+02 3.019832e+02
6.690000e+02 3.199090e+02
6.700000e+02 3.388365e+02
6.710000e+02 3.588193e+02
6.720000e+02 3.799407e+02
6.730000e+02 4.021693e+02
6.740000e+02 4.256564e+02
6.750000e+02 4.504345e+02
6.760000e+02 4.765532e+02
6.770000e+02 5.041153e+02
6.780000e+02 5.331775e+02
6.790000e+02 5.638162e+02
6.800000e+02 5.961111e+02
6.810000e+02 6.301465e+02
6.820000e+02 6.659987e+02
6.830000e+02 7.037777e+02
6.840000e+02 7.435757e+02
6.850000e+02 7.854898e+02
6.860000e+02 8.296260e+02
6.870000e+02 8.760870e+02
6.880000e+02 9.250075e+02
6.890000e+02 9.764869e+02
6.900000e+02 1.030662e+03
6.910000e+02 1.087662e+03
6.920000e+02 1.147579e+03
6.930000e+02 1.210644e+03
6.940000e+02 1.276964e+03
6.950000e+02 1.346698e+03
6.960000e+02 1.420009e+03
6.970000e+02 1.497044e+03
6.980000e+02 1.578054e+03
6.990000e+02 1.663154e+03
7.000000e+02 1.752563e+03
7.010000e+02 1.846484e+03
7.020000e+02 1.945131e+03
7.030000e+02 2.048724e+03
7.040000e+02 2.157495e+03
7.050000e+02 2.271685e+03
7.060000e+02 2.391536e+03
7.070000e+02 2.517332e+03
7.080000e+02 2.649282e+03
7.090000e+02 2.787773e+03
7.100000e+02 2.933061e+03
7.110000e+02 3.085446e+03
7.120000e+02 3.245255e+03
7.130000e+02 3.412826e+03
7.140000e+02 3.588510e+03
7.150000e+02 3.772672e+03
7.160000e+02 3.965693e+03
7.170000e+02 4.167883e+03
7.180000e+02 4.379758e+03
7.190000e+02 4.601857e+03
7.200000e+02 4.834448e+03
7.210000e+02 5.078053e+03
7.220000e+02 5.333155e+03
7.230000e+02 5.600265e+03
7.240000e+02 5.879902e+03
7.250000e+02 6.172616e+03
7.260000e+02 6.478976e+03
7.270000e+02 6.799573e+03
7.280000e+02 7.135021e+03
7.290000e+02 7.485962e+03
7.300000e+02 7.853064e+03
7.310000e+02 8.237005e+03
7.320000e+02 8.638522e+03
7.330000e+02 9.058342e+03
7.340000e+02 9.497257e+03
7.350000e+02 9.956053e+03
7.360000e+02 1.043558e+04
7.370000e+02 1.093675e+04
7.380000e+02 1.146040e+04
7.390000e+02 1.200750e+04
7.400000e+02 1.257901e+04
7.410000e+02 1.317599e+04
7.420000e+02 1.379930e+04
7.430000e+02 1.445032e+04
7.440000e+02 1.513004e+04
7.450000e+02 1.583963e+04
7.460000e+02 1.658032e+04
7.470000e+02 1.735338e+04
7.480000e+02 1.816010e+04
7.490000e+02 1.900186e+04
7.500000e+02 1.987956e+04
7.510000e+02 2.079565e+04
7.520000e+02 2.175116e+04
7.530000e+02 2.274767e+04
7.540000e+02 2.378680e+04
7.550000e+02 2.487023e+04
7.560000e+02 2.599976e+04
7.570000e+02 2.717696e+04
7.580000e+02 2.840429e+04
7.590000e+02 2.968306e+04
7.600000e+02 3.101571e+04
7.610000e+02 3.240412e+04
7.620000e+02 3.385050e+04
7.630000e+02 3.535707e+04
7.640000e+02 3.692619e+04
7.650000e+02 3.856023e+04
7.660000e+02 4.026172e+04
7.670000e+02 4.203320e+04
7.680000e+02 4.387718e+04
7.690000e+02 4.579690e+04
7.700000e+02 4.779473e+04
7.710000e+02 4.987378e+04
7.720000e+02 5.203711e+04
7.730000e+02 5.428785e+04
7.740000e+02 5.662929e+04
7.750000e+02 5.906481e+04
7.760000e+02 6.159611e+04
7.770000e+02 6.423214e+04
7.780000e+02 6.697131e+04
7.790000e+02 6.981924e+04
7.800000e+02 7.277992e+04
7.810000e+02 7.585542e+04
7.820000e+02 7.905404e+04
7.830000e+02 8.237816e+04
7.840000e+02 8.583242e+04
7.850000e+02 8.942142e+04
7.860000e+02 9.315005e+04
7.870000e+02 9.702354e+04
7.880000e+02 1.010466e+05
7.890000e+02 1.052249e+05
7.900000e+02 1.095631e+05
7.910000e+02 1.140685e+05
7.920000e+02 1.187461e+05
7.930000e+02 1.236019e+05
7.940000e+02 1.286423e+05
7.950000e+02 1.338738e+05
7.960000e+02 1.393030e+05
7.970000e+02 1.449369e+05
7.980000e+02 1.507823e+05
7.990000e+02 1.568477e+05
8.000000e+02 1.631389e+05
8.010000e+02 1.696644e+05
8.020000e+02 1.764325e+05
8.030000e+02 1.834512e+05
8.040000e+02 1.907293e+05
8.050000e+02 1.982754e+05
8.060000e+02 2.060987e+05
8.070000e+02 2.142085e+05
8.080000e+02 2.226145e+05
8.090000e+02 2.313199e+05
8.100000e+02 2.403482e+05
8.110000e+02 2.497034e+05
8.120000e+02 2.593962e+05
8.130000e+02 2.694361e+05
8.140000e+02 2.798387e+05
8.150000e+02 2.906133e+05
8.160000e+02 3.017737e+05
8.170000e+02 3.133307e+05
8.180000e+02 3.252984e+05
8.190000e+02 3.376897e+05
8.200000e+02 3.505184e+05
8.210000e+02 3.637989e+05
8.220000e+02 3.775456e+05
8.230000e+02 3.917735e+05
8.240000e+02 4.064985e+05
8.250000e+02 4.217361e+05
8.260000e+02 4.375027e+05
8.270000e+02 4.538152e+05
8.280000e+02 4.706909e+05
8.290000e+02 4.881477e+05
8.300000e+02 5.062040e+05
8.310000e+02 5.248786e+05
8.320000e+02 5.441908e+05
8.330000e+02 5.641608e+05
8.340000e+02 5.848089e+05
8.350000e+02 6.060886e+05
8.360000e+02 6.282023e+05
8.370000e+02 6.510161e+05
8.380000e+02 6.745931e+05
8.390000e+02 6.989606e+05
8.400000e+02 7.241415e+05
8.410000e+02 7.501608e+05
8.420000e+02 7.770321e+05
8.430000e+02 8.048206e+05
8.440000e+02 8.335132e+05
8.450000e+02 8.631514e+05
8.460000e+02 8.937632e+05
8.470000e+02 9.253788e+05
8.480000e+02 9.580274e+05
8.490000e+02 9.917402e+05
8.500000e+02 1.026549e+06
8.510000e+02 1.062486e+06
8.520000e+02 1.099584e+06
8.530000e+02 1.137879e+06
8.540000e+02 1.177410e+06
8.550000e+02 1.218204e+06
8.560000e+02 1.260304e+06
8.570000e+02 1.303745e+06
8.580000e+02 1.348568e+06
8.590000e+02 1.394814e+06
8.600000e+02 1.442523e+06
8.610000e+02 1.491738e+06
8.620000e+02 1.542442e+06
8.630000e+02 1.594796e+06
8.640000e+02 1.648791e+06
8.650000e+02 1.704470e+06
8.660000e+02 1.761883e+06
8.670000e+02 1.821079e+06
8.680000e+02 1.882108e+06
8.690000e+02 1.945023e+06
8.700000e+02 2.009871e+06
8.710000e+02 2.076720e+06
8.720000e+02 2.145614e+06
8.730000e+02 2.216613e+06
8.740000e+02 2.289752e+06
8.750000e+02 2.365139e+06
8.760000e+02 2.442812e+06
8.770000e+02 2.522822e+06
8.780000e+02 2.605261e+06
8.790000e+02 2.690176e+06
8.800000e+02 2.777638e+06
8.810000e+02 2.867718e+06
8.820000e+02 2.960485e+06
8.830000e+02 3.056015e+06
8.840000e+02 3.154380e+06
8.850000e+02 3.255658e+06
8.860000e+02 3.359902e+06
8.870000e+02 3.467150e+06
8.880000e+02 3.577641e+06
8.890000e+02 3.691370e+06
8.900000e+02 3.808423e+06
8.910000e+02 3.928888e+06
8.920000e+02 4.048530e+06
8.930000e+02 4.180418e+06
8.940000e+02 4.311669e+06
8.950000e+02 4.446705e+06
8.960000e+02 4.585632e+06
8.970000e+02 4.728544e+06
8.980000e+02 4.875546e+06
8.990000e+02 5.026746e+06
9.000000e+02 5.182234e+06
9.010000e+02 5.342156e+06
9.020000e+02 5.506610e+06
9.030000e+02 5.675710e+06
9.040000e+02 5.849530e+06
9.050000e+02 6.028331e+06
9.060000e+02 6.212100e+06
9.070000e+02 6.400956e+06
9.080000e+02 6.595186e+06
9.090000e+02 6.794768e+06
9.100000e+02 6.999834e+06
9.110000e+02 7.210456e+06
9.120000e+02 7.427204e+06
9.130000e+02 7.579596e+06
9.140000e+02 7.944266e+06
9.150000e+02 1.918335e+07
9.160000e+02 7.886774e+07
9.170000e+02 8.953438e+07
9.180000e+02 6.851503e+07
9.190000e+02 1.490415e+08
9.200000e+02 1.866925e+08
9.210000e+02 9.495380e+06
9.220000e+02 2.100323e+08
9.230000e+02 8.922068e+07
9.240000e+02 1.614907e+08
9.250000e+02 2.270493e+08
9.260000e+02 1.347907e+08
9.270000e+02 2.331677e+08
9.280000e+02 2.513308e+08
9.290000e+02 1.927555e+08
9.300000e+02 2.447516e+08
9.310000e+02 1.626111e+08
9.320000e+02 2.729541e+08
9.330000e+02 2.817917e+08
9.340000e+02 2.902995e+08
9.350000e+02 8.914971e+07
9.360000e+02 2.998656e+08
9.370000e+02 5.888954e+07
9.380000e+02 1.295605e+08
9.390000e+02 3.158502e+08
9.400000e+02 3.293256e+08
9.410000e+02 2.043992e+08
9.420000e+02 3.446940e+08
9.430000e+02 3.527013e+08
9.440000e+02 1.942739e+08
9.450000e+02 3.675679e+08
9.460000e+02 3.743385e+08
9.470000e+02 2.655495e+08
9.480000e+02 3.728123e+08
9.490000e+02 3.668648e+08
9.500000e+02 8.162126e+07
9.510000e+02 3.746421e+08
9.520000e+02 4.230498e+08
9.530000e+02 4.295362e+08
9.540000e+02 3.440036e+08
9.550000e+02 4.524596e+08
9.560000e+02 4.479362e+08
9.570000e+02 3.716730e+08
9.580000e+02 4.738949e+08
9.590000e+02 4.934215e+08
9.600000e+02 1.025893e+08
9.610000e+02 5.149097e+08
9.620000e+02 5.212171e+08
9.630000e+02 5.361089e+08
9.640000e+02 3.338438e+07
9.650000e+02 4.898994e+08
9.660000e+02 5.689872e+08
9.670000e+02 5.776546e+08
9.680000e+02 5.810310e+08
9.690000e+02 5.973174e+08
9.700000e+02 6.106914e+08
9.710000e+02 6.099011e+08
9.720000e+02 4.950047e+08
9.730000e+02 4.734761e+08
9.740000e+02 6.431044e+08
9.750000e+02 6.738510e+08
9.760000e+02 6.920129e+08
9.770000e+02 7.062944e+08
9.780000e+02 7.194861e+08
9.790000e+02 7.362410e+08
9.800000e+02 7.509124e+08
9.810000e+02 7.659016e+08
9.820000e+02 7.698748e+08
9.830000e+02 7.957715e+08
9.840000e+02 2.187409e+08
9.850000e+02 8.273720e+08
9.860000e+02 8.431430e+08
9.870000e+02 8.587277e+08
9.880000e+02 8.643633e+08
9.890000e+02 5.198316e+08
9.900000e+02 7.557548e+07
9.910000e+02 9.149390e+08
9.920000e+02 8.546775e+08
9.930000e+02 8.983137e+08
9.940000e+02 1.247700e+08
9.950000e+02 1.633725e+08
9.960000e+02 1.926108e+08
9.970000e+02 1.880367e+08
9.980000e+02 1.054277e+09
9.990000e+02 1.047063e+09
1.000000e+03 1.099538e+09
1.001000e+03 1.120468e+09
1.002000e+03 1.140307e+09
1.003000e+03 9.411446e+08
1.004000e+03 1.181586e+09
1.005000e+03 1.001326e+09
1.006000e+03 1.228414e+09
1.007000e+03 1.250963e+09
1.008000e+03 1.272358e+09
1.009000e+03 1.209412e+09
1.010000e+03 1.320629e+09
1.011000e+03 1.344655e+09
1.012000e+03 1.367995e+09
1.013000e+03 1.393165e+09
1.014000e+03 1.396920e+09
1.015000e+03 1.394936e+09
1.016000e+03 1.463035e+09
1.017000e+03 1.475611e+09
1.018000e+03 1.516866e+09
1.019000e+03 1.537072e+09
1.020000e+03 1.565147e+09
1.021000e+03 1.220758e+09
1.022000e+03 1.538595e+09
1.023000e+03 1.586239e+09
1.024000e+03 1.497975e+09
1.025000e+03 9.741340e+08
1.026000e+03 3.674045e+08
1.027000e+03 1.438314e+09
1.028000e+03 4.794973e+08
1.029000e+03 1.783747e+09
1.030000e+03 1.817223e+09
1.031000e+03 1.907026e+09
1.032000e+03 1.918596e+09
1.033000e+03 1.066869e+09
1.034000e+03 2.028616e+09
1.035000e+03 4.080554e+08
1.036000e+03 2.039077e+09
1.037000e+03 2.077358e+08
1.038000e+03 2.180027e+09
1.039000e+03 2.186994e+09
1.040000e+03 2.259256e+09
1.041000e+03 2.290375e+09
1.042000e+03 2.204437e+09
1.043000e+03 2.341061e+09
1.044000e+03 2.404031e+09
1.045000e+03 2.457616e+09
1.046000e+03 2.505271e+09
1.047000e+03 2.545765e+09
1.048000e+03 2.538523e+09
1.049000e+03 2.596903e+09
1.050000e+03 2.682484e+09
1.051000e+03 2.726600e+09
1.052000e+03 2.775102e+09
1.053000e+03 2.712556e+09
1.054000e+03 2.826029e+09
1.055000e+03 2.916732e+09
1.056000e+03 2.967505e+09
1.057000e+03 3.012990e+09
1.058000e+03 3.064114e+09
1.059000e+03 3.108551e+09
1.060000e+03 3.160110e+09
1.061000e+03 3.222185e+09
1.062000e+03 3.274556e+09
1.063000e+03 1.966300e+09
1.064000e+03 6.111020e+08
1.065000e+03 3.474854e+09
1.066000e+03 3.432389e+09
1.067000e+03 3.296048e+09
1.068000e+03 3.691507e+09
1.069000e+03 3.708639e+09
1.070000e+03 3.675281e+09
1.071000e+03 3.880142e+09
1.072000e+03 3.941798e+09
1.073000e+03 3.975011e+09
1.074000e+03 4.067248e+09
1.075000e+03 4.127163e+09
1.076000e+03 4.203116e+09
1.077000e+03 4.255185e+09
1.078000e+03 4.334771e+09
1.079000e+03 4.379451e+09
1.080000e+03 4.467476e+09
1.081000e+03 4.548796e+09
1.082000e+03 4.618352e+09
1.083000e+03 4.689850e+09
1.084000e+03 4.055371e+09
1.085000e+03 3.794246e+09
1.086000e+03 4.921994e+09
1.087000e+03 4.981788e+09
1.088000e+03 5.054547e+09
1.089000e+03 5.151839e+09
1.090000e+03 5.218463e+09
1.091000e+03 5.310531e+09
1.092000e+03 5.399515e+09
1.093000e+03 5.477373e+09
1.094000e+03 5.568338e+09
1.095000e+03 5.639031e+09
1.096000e+03 5.738820e+09
1.097000e+03 5.773796e+09
1.098000e+03 5.776654e+09
1.099000e+03 5.995899e+09
1.100000e+03 5.980298e+09
1.101000e+03 5.634751e+09
1.102000e+03 1.242105e+10
1.103000e+03 3.732949e+10
1.104000e+03 1.464991e+10
1.105000e+03 6.043214e+09
1.106000e+03 7.930487e+10
1.107000e+03 6.014053e+10
1.108000e+03 8.185948e+10
1.109000e+03 4.289545e+10
1.110000e+03 1.037757e+10
1.111000e+03 1.337941e+10
1.112000e+03 7.455564e+10
1.113000e+03 8.712157e+10
1.114000e+03 4.571197e+09
1.115000e+03 8.280530e+10
1.116000e+03 8.424271e+10
1.117000e+03 4.796998e+09
1.118000e+03 7.158969e+10
1.119000e+03 9.105293e+10
1.120000e+03 8.958531e+10
1.121000e+03 6.362864e+10
1.122000e+03 1.205391e+09
1.123000e+03 1.144088e+10
1.124000e+03 9.604820e+10
1.125000e+03 3.271823e+10
1.126000e+03 9.917409e+10
1.127000e+03 9.552645e+10
1.128000e+03 4.248602e+10
1.129000e+03 9.967669e+10
1.130000e+03 6.948727e+10
1.131000e+03 1.054024e+11
1.132000e+03 3.502965e+09
1.133000e+03 9.011832e+10
1.134000e+03 1.036923e+11
1.135000e+03 2.048729e+09
1.136000e+03 1.045303e+11
1.137000e+03 1.122341e+11
1.138000e+03 1.129565e+11
1.139000e+03 1.124366e+11
1.140000e+03 2.339611e+09
1.141000e+03 1.178461e+11
1.142000e+03 1.050639e+11
1.143000e+03 1.195787e+11
1.144000e+03 1.217350e+11
1.145000e+03 8.983332e+10
1.146000e+03 1.236508e+11
1.147000e+03 1.230487e+11
1.148000e+03 1.194767e+11
1.149000e+03 1.279815e+11
1.150000e+03 1.190786e+11
1.151000e+03 1.297022e+11
1.152000e+03 1.293743e+11
1.153000e+03 2.668030e+10
1.154000e+03 5.144773e+09
1.155000e+03 1.054668e+11
1.156000e+03 4.070014e+10
1.157000e+03 1.385501e+11
1.158000e+03 3.644243e+09
1.159000e+03 1.187823e+11
1.160000e+03 1.368258e+11
1.161000e+03 1.453064e+11
1.162000e+03 1.652086e+10
1.163000e+03 1.368536e+11
1.164000e+03 6.381695e+09
1.165000e+03 1.511330e+11
1.166000e+03 1.479587e+11
1.167000e+03 1.332480e+11
1.168000e+03 1.558931e+11
1.169000e+03 1.523160e+11
1.170000e+03 1.590754e+11
1.171000e+03 1.604091e+11
1.172000e+03 1.458238e+11
1.173000e+03 1.630355e+11
1.174000e+03 1.504573e+11
1.175000e+03 6.466732e+09
1.176000e+03 4.611998e+09
1.177000e+03 1.651322e+11
1.178000e+03 1.433352e+11
1.179000e+03 1.713434e+11
1.180000e+03 1.218256e+11
1.181000e+03 1.680666e+11
1.182000e+03 1.755126e+11
1.183000e+03 1.761328e+11
1.184000e+03 1.771615e+11
1.185000e+03 1.658861e+11
1.186000e+03 1.770943e+11
1.187000e+03 1.793090e+11
1.188000e+03 1.658909e+11
1.189000e+03 4.917625e+09
1.190000e+03 3.298270e+10
1.191000e+03 1.736269e+11
1.192000e+03 1.749675e+11
1.193000e+03 3.990397e+09
1.194000e+03 5.619581e+09
1.195000e+03 7.956138e+10
1.196000e+03 1.701772e+11
1.197000e+03 1.846188e+11
1.198000e+03 1.861956e+11
1.199000e+03 1.807457e+11
1.200000e+03 1.590789e+11
1.201000e+03 1.659308e+11
1.202000e+03 1.617988e+11
1.203000e+03 1.640956e+11
1.204000e+03 1.467229e+11
1.205000e+03 1.376736e+11
1.206000e+03 1.014541e+11
1.207000e+03 5.621173e+10
1.208000e+03 9.194494e+10
1.209000e+03 6.913326e+10
1.210000e+03 8.564474e+09
1.211000e+03 4.279723e+10
1.212000e+03 2.889292e+10
1.213000e+03 1.807026e+10
1.214000e+03 1.051451e+10
1.215000e+03 6.417085e+09
1.216000e+03 5.732057e+09
1.217000e+03 9.106546e+09
1.218000e+03 1.613131e+10
1.219000e+03 2.738910e+10
1.220000e+03 4.254104e+10
1.221000e+03 6.090721e+10
1.222000e+03 8.153778e+10
1.223000e+03 1.037438e+11
1.224000e+03 1.268029e+11
1.225000e+03 1.492744e+11
1.226000e+03 1.711888e+11
1.227000e+03 1.948792e+11
1.228000e+03 2.183507e+11
1.229000e+03 2.386822e+11
1.230000e+03 2.592059e+11
1.231000e+03 2.802022e+11
1.232000e+03 3.017848e+11
1.233000e+03 3.204325e+11
1.234000e+03 2.105330e+11
1.235000e+03 3.533057e+11
1.236000e+03 3.665591e+11
1.237000e+03 3.850159e+11
1.238000e+03 3.993294e+11
1.239000e+03 4.139802e+11
1.240000e+03 3.871494e+11
1.241000e+03 6.944884e+11
1.242000e+03 3.702735e+11
1.243000e+03 5.587047e+11
1.244000e+03 2.247077e+11
1.245000e+03 3.403403e+11
1.246000e+03 1.038254e+12
1.247000e+03 1.121007e+12
1.248000e+03 2.425780e+11
1.249000e+03 3.072258e+11
1.250000e+03 1.289179e+12
1.251000e+03 1.322405e+12
1.252000e+03 1.282681e+12
1.253000e+03 1.452253e+12
1.254000e+03 1.456991e+12
1.255000e+03 1.505487e+12
1.256000e+03 1.506299e+12
1.257000e+03 1.623586e+12
1.258000e+03 1.562561e+12
1.259000e+03 1.536899e+12
1.260000e+03 1.304688e+12
1.261000e+03 1.202622e+10
1.262000e+03 1.414612e+11
1.263000e+03 1.798699e+12
1.264000e+03 1.538056e+12
1.265000e+03 1.116222e+10
1.266000e+03 1.851700e+12
1.267000e+03 1.941748e+12
