# wavelength_A flux
5.000000e+02 0.000000e+00
5.010000e+02 0.000000e+00
5.020000e+02 0.000000e+00
5.030000e+02 0.000000e+00
5.040000e+02 0.000000e+00
5.050000e+02 1.401298e-45
5.060000e+02 1.401298e-45
5.070000e+02 1.401298e-45
5.080000e+02 1.401298e-45
5.090000e+02 2.802597e-45
5.100000e+02 2.802597e-45
5.110000e+02 4.203895e-45
5.120000e+02 5.605194e-45
5.130000e+02 8.407791e-45
5.140000e+02 1.121039e-44
5.150000e+02 1.401298e-44
5.160000e+02 1.961818e-44
5.170000e+02 2.522337e-44
5.180000e+02 3.363116e-44
5.190000e+02 4.484155e-44
5.200000e+02 6.025583e-44
5.210000e+02 7.847271e-44
5.220000e+02 1.036961e-43
5.230000e+02 1.373272e-43
5.240000e+02 1.807675e-43
5.250000e+02 2.382207e-43
5.260000e+02 3.124896e-43
5.270000e+02 4.105805e-43
5.280000e+02 5.380986e-43
5.290000e+02 7.062544e-43
5.300000e+02 9.234557e-43
5.310000e+02 1.207919e-42
5.320000e+02 1.577862e-42
5.330000e+02 2.058507e-42
5.340000e+02 2.682085e-42
5.350000e+02 3.493437e-42
5.360000e+02 4.544411e-42
5.370000e+02 5.905072e-42
5.380000e+02 7.666504e-42
5.390000e+02 9.943614e-42
5.400000e+02 1.288354e-41
5.410000e+02 1.667685e-41
5.420000e+02 2.156598e-41
5.430000e+02 2.786062e-41
5.440000e+02 3.596012e-41
5.450000e+02 4.636897e-41
5.460000e+02 5.973455e-41
5.470000e+02 7.687944e-41
5.480000e+02 9.885320e-41
5.490000e+02 1.269885e-40
5.500000e+02 1.629808e-40
5.510000e+02 2.089826e-40
5.520000e+02 2.677209e-40
5.530000e+02 3.426581e-40
5.540000e+02 4.381706e-40
5.550000e+02 5.598019e-40
5.560000e+02 7.145557e-40
5.570000e+02 9.112770e-40
5.580000e+02 1.161124e-39
5.590000e+02 1.478168e-39
5.600000e+02 1.880129e-39
5.610000e+02 2.389308e-39
5.620000e+02 3.033745e-39
5.630000e+02 3.848672e-39
5.640000e+02 4.878311e-39
5.650000e+02 6.178126e-39
5.660000e+02 7.817624e-39
5.670000e+02 9.883836e-39
5.680000e+02 1.248564e-38
5.690000e+02 1.575915e-38
5.700000e+02 1.987436e-38
5.710000e+02 2.504344e-38
5.720000e+02 3.153096e-38
5.730000e+02 3.966656e-38
5.740000e+02 4.986064e-38
5.750000e+02 6.262377e-38
5.760000e+02 7.859054e-38
5.770000e+02 9.854916e-38
5.780000e+02 1.234778e-37
5.790000e+02 1.545896e-37
5.800000e+02 1.933876e-37
5.810000e+02 2.417329e-37
5.820000e+02 3.019280e-37
5.830000e+02 3.768196e-37
5.840000e+02 4.699238e-37
5.850000e+02 5.855816e-37
5.860000e+02 7.291466e-37
5.870000e+02 9.072178e-37
5.880000e+02 1.127922e-36
5.890000e+02 1.401262e-36
5.900000e+02 1.739538e-36
5.910000e+02 2.157865e-36
5.920000e+02 2.674806e-36
5.930000e+02 3.313139e-36
5.940000e+02 4.100794e-36
5.950000e+02 5.071993e-36
5.960000e+02 6.268641e-36
5.970000e+02 7.742014e-36
5.980000e+02 9.554804e-36
5.990000e+02 1.178361e-35
6.000000e+02 1.452197e-35
6.010000e+02 1.788400e-35
6.020000e+02 2.200885e-35
6.030000e+02 2.706607e-35
6.040000e+02 3.326208e-35
6.050000e+02 4.084810e-35
6.060000e+02 5.012957e-35
6.070000e+02 6.147763e-35
6.080000e+02 7.534300e-35
6.090000e+02 9.227259e-35
6.100000e+02 1.129297e-34
6.110000e+02 1.381180e-34
6.120000e+02 1.688112e-34
6.130000e+02 2.061873e-34
6.140000e+02 2.516714e-34
6.150000e+02 3.069860e-34
6.160000e+02 3.742116e-34
6.170000e+02 4.558601e-34
6.180000e+02 5.549615e-34
6.190000e+02 6.751688e-34
6.200000e+02 8.208835e-34
6.210000e+02 9.974055e-34
6.220000e+02 1.211112e-33
6.230000e+02 1.469673e-33
6.240000e+02 1.782305e-33
6.250000e+02 2.160080e-33
6.260000e+02 2.616287e-33
6.270000e+02 3.166868e-33
6.280000e+02 3.830935e-33
6.290000e+02 4.631389e-33
6.300000e+02 5.595652e-33
6.310000e+02 6.756539e-33
6.320000e+02 8.153299e-33
6.330000e+02 9.832844e-33
6.340000e+02 1.185122e-32
6.350000e+02 1.427532e-32
6.360000e+02 1.718499e-32
6.370000e+02 2.067543e-32
6.380000e+02 2.486008e-32
6.390000e+02 2.987410e-32
6.400000e+02 3.587834e-32
6.410000e+02 4.306420e-32
6.420000e+02 5.165926e-32
6.430000e+02 6.193396e-32
6.440000e+02 7.420953e-32
6.450000e+02 8.886726e-32
6.460000e+02 1.063595e-31
6.470000e+02 1.272226e-31
6.480000e+02 1.520923e-31
6.490000e+02 1.817213e-31
6.500000e+02 2.170010e-31
6.510000e+02 2.589856e-31
6.520000e+02 3.089218e-31
6.530000e+02 3.682834e-31
6.540000e+02 4.388106e-31
6.550000e+02 5.225582e-31
6.560000e+02 6.219505e-31
6.570000e+02 7.398469e-31
6.580000e+02 8.796171e-31
6.590000e+02 1.045231e-30
6.600000e+02 1.241364e-30
6.610000e+02 1.473516e-30
6.620000e+02 1.748158e-30
6.630000e+02 2.072897e-30
6.640000e+02 2.456671e-30
6.650000e+02 2.909975e-30
6.660000e+02 3.445133e-30
6.670000e+02 4.076598e-30
6.680000e+02 4.821321e-30
6.690000e+02 5.699170e-30
6.700000e+02 6.733415e-30
6.710000e+02 7.951307e-30
6.720000e+02 9.384733e-30
6.730000e+02 1.107099e-29
6.740000e+02 1.305370e-29
6.750000e+02 1.538380e-29
6.760000e+02 1.812083e-29
6.770000e+02 2.133427e-29
6.780000e+02 2.510518e-29
6.790000e+02 2.952814e-29
6.800000e+02 3.471339e-29
6.810000e+02 4.078934e-29
6.820000e+02 4.790561e-29
6.830000e+02 5.623631e-29
6.840000e+02 6.598407e-29
6.850000e+02 7.738450e-29
6.860000e+02 9.071153e-29
6.870000e+02 1.062834e-28
6.880000e+02 1.244698e-28
6.890000e+02 1.456997e-28
6.900000e+02 1.704710e-28
6.910000e+02 1.993611e-28
6.920000e+02 2.330394e-28
6.930000e+02 2.722814e-28
6.940000e+02 3.179856e-28
6.950000e+02 3.711918e-28
6.960000e+02 4.331037e-28
6.970000e+02 5.051131e-28
6.980000e+02 5.888294e-28
6.990000e+02 6.861125e-28
7.000000e+02 7.991108e-28
7.010000e+02 9.303051e-28
7.020000e+02 1.082558e-27
7.030000e+02 1.259173e-27
7.040000e+02 1.463959e-27
7.050000e+02 1.701305e-27
7.060000e+02 1.976270e-27
7.070000e+02 2.294679e-27
7.080000e+02 2.663238e-27
7.090000e+02 3.089664e-27
7.100000e+02 3.582833e-27
7.110000e+02 4.152949e-27
7.120000e+02 4.811741e-27
7.130000e+02 5.572681e-27
7.140000e+02 6.451242e-27
7.150000e+02 7.465181e-27
7.160000e+02 8.634875e-27
7.170000e+02 9.983691e-27
7.180000e+02 1.153842e-26
7.190000e+02 1.332977e-26
7.200000e+02 1.539291e-26
7.210000e+02 1.776811e-26
7.220000e+02 2.050146e-26
7.230000e+02 2.364571e-26
7.240000e+02 2.726117e-26
7.250000e+02 3.141682e-26
7.260000e+02 3.619145e-26
7.270000e+02 4.167509e-26
7.280000e+02 4.797055e-26
7.290000e+02 5.519519e-26
7.300000e+02 6.348289e-26
7.310000e+02 7.298638e-26
7.320000e+02 8.387981e-26
7.330000e+02 9.636163e-26
7.340000e+02 1.106580e-25
7.350000e+02 1.270263e-25
7.360000e+02 1.457598e-25
7.370000e+02 1.671921e-25
7.380000e+02 1.917028e-25
7.390000e+02 2.197234e-25
7.400000e+02 2.517445e-25
7.410000e+02 2.883236e-25
7.420000e+02 3.300941e-25
7.430000e+02 3.777750e-25
7.440000e+02 4.321825e-25
7.450000e+02 4.942429e-25
7.460000e+02 5.650065e-25
7.470000e+02 6.456647e-25
7.480000e+02 7.375674e-25
7.490000e+02 8.422447e-25
7.500000e+02 9.614291e-25
7.510000e+02 1.097082e-24
7.520000e+02 1.251425e-24
7.530000e+02 1.426971e-24
7.540000e+02 1.626560e-24
7.550000e+02 1.853407e-24
7.560000e+02 2.111142e-24
7.570000e+02 2.403871e-24
7.580000e+02 2.736227e-24
7.590000e+02 3.113445e-24
7.600000e+02 3.541432e-24
7.610000e+02 4.026853e-24
7.620000e+02 4.577228e-24
7.630000e+02 5.201034e-24
7.640000e+02 5.907829e-24
7.650000e+02 6.708381e-24
7.660000e+02 7.614821e-24
7.670000e+02 8.640811e-24
7.680000e+02 9.801728e-24
7.690000e+02 1.111488e-23
7.700000e+02 1.259973e-23
7.710000e+02 1.427818e-23
7.720000e+02 1.617485e-23
7.730000e+02 1.831740e-23
7.740000e+02 2.073691e-23
7.750000e+02 2.346831e-23
7.760000e+02 2.655078e-23
7.770000e+02 3.002833e-23
7.780000e+02 3.395035e-23
7.790000e+02 3.837220e-23
7.800000e+02 4.335601e-23
7.810000e+02 4.897140e-23
7.820000e+02 5.529641e-23
7.830000e+02 6.241846e-23
7.840000e+02 7.043546e-23
7.850000e+02 7.945705e-23
7.860000e+02 8.960595e-23
7.870000e+02 1.010195e-22
7.880000e+02 1.138512e-22
7.890000e+02 1.282729e-22
7.900000e+02 1.444767e-22
7.910000e+02 1.626772e-22
7.920000e+02 1.831141e-22
7.930000e+02 2.060553e-22
7.940000e+02 2.317999e-22
7.950000e+02 2.606817e-22
7.960000e+02 2.930734e-22
7.970000e+02 3.293906e-22
7.980000e+02 3.700969e-22
7.990000e+02 4.157091e-22
8.000000e+02 4.668035e-22
8.010000e+02 5.240220e-22
8.020000e+02 5.880800e-22
8.030000e+02 6.597739e-22
8.040000e+02 7.399907e-22
8.050000e+02 8.297173e-22
8.060000e+02 9.300524e-22
8.070000e+02 1.042218e-21
8.080000e+02 1.167572e-21
8.090000e+02 1.307627e-21
8.100000e+02 1.464061e-21
8.110000e+02 1.638740e-21
8.120000e+02 1.833737e-21
8.130000e+02 2.051354e-21
8.140000e+02 2.294148e-21
8.150000e+02 2.564954e-21
8.160000e+02 2.866921e-21
8.170000e+02 3.203541e-21
8.180000e+02 3.578688e-21
8.190000e+02 3.996654e-21
8.200000e+02 4.462201e-21
8.210000e+02 4.980602e-21
8.220000e+02 5.557702e-21
8.230000e+02 6.199972e-21
8.240000e+02 6.914578e-21
8.250000e+02 7.709454e-21
8.260000e+02 8.593379e-21
8.270000e+02 9.576066e-21
8.280000e+02 1.066826e-20
8.290000e+02 1.188184e-20
8.300000e+02 1.322994e-20
8.310000e+02 1.472707e-20
8.320000e+02 1.638929e-20
8.330000e+02 1.823430e-20
8.340000e+02 2.028167e-20
8.350000e+02 2.255302e-20
8.360000e+02 2.507219e-20
8.370000e+02 2.786550e-20
8.380000e+02 3.096198e-20
8.390000e+02 3.439367e-20
8.400000e+02 3.819589e-20
8.410000e+02 4.240755e-20
8.420000e+02 4.707159e-20
8.430000e+02 5.223529e-20
8.440000e+02 5.795074e-20
8.450000e+02 6.427530e-20
8.460000e+02 7.127216e-20
8.470000e+02 7.901084e-20
8.480000e+02 8.756789e-20
8.490000e+02 9.702750e-20
8.500000e+02 1.074823e-19
8.510000e+02 1.190342e-19
8.520000e+02 1.317951e-19
8.530000e+02 1.458882e-19
8.540000e+02 1.614488e-19
8.550000e+02 1.786255e-19
8.560000e+02 1.975816e-19
8.570000e+02 2.184965e-19
8.580000e+02 2.415670e-19
8.590000e+02 2.670093e-19
8.600000e+02 2.950604e-19
8.610000e+02 3.259807e-19
8.620000e+02 3.600555e-19
8.630000e+02 3.975978e-19
8.640000e+02 4.389509e-19
8.650000e+02 4.844909e-19
8.660000e+02 5.346301e-19
8.670000e+02 5.898202e-19
8.680000e+02 6.505559e-19
8.690000e+02 7.173793e-19
8.700000e+02 7.908836e-19
8.710000e+02 8.717182e-19
8.720000e+02 9.605940e-19
8.730000e+02 1.058289e-18
8.740000e+02 1.165653e-18
8.750000e+02 1.283618e-18
8.760000e+02 1.413201e-18
8.770000e+02 1.555514e-18
8.780000e+02 1.711773e-18
8.790000e+02 1.883306e-18
8.800000e+02 2.071565e-18
8.810000e+02 2.278136e-18
8.820000e+02 2.504749e-18
8.830000e+02 2.753296e-18
8.840000e+02 3.025838e-18
8.850000e+02 3.324628e-18
8.860000e+02 3.652122e-18
8.870000e+02 4.011002e-18
8.880000e+02 4.404189e-18
8.890000e+02 4.834871e-18
8.900000e+02 5.306523e-18
8.910000e+02 5.822933e-18
8.920000e+02 6.388227e-18
8.930000e+02 7.006901e-18
8.940000e+02 7.683855e-18
8.950000e+02 8.424422e-18
8.960000e+02 9.234409e-18
8.970000e+02 1.012014e-17
8.980000e+02 1.108850e-17
8.990000e+02 1.214697e-17
9.000000e+02 1.330370e-17
9.010000e+02 1.456755e-17
9.020000e+02 1.594816e-17
9.030000e+02 1.745601e-17
9.040000e+02 1.910248e-17
9.050000e+02 2.089996e-17
9.060000e+02 2.286189e-17
9.070000e+02 2.500290e-17
9.080000e+02 2.733886e-17
9.090000e+02 2.988700e-17
9.100000e+02 3.266606e-17
9.110000e+02 3.569633e-17
9.120000e+02 3.899989e-17
9.130000e+02 4.260067e-17
9.140000e+02 4.838252e-17
9.150000e+02 4.512848e-14
9.160000e+02 3.464111e-13
9.170000e+02 1.354538e-13
9.180000e+02 6.064487e-14
9.190000e+02 1.097611e-12
9.200000e+02 3.544176e-12
9.210000e+02 8.573329e-17
9.220000e+02 5.578501e-12
9.230000e+02 2.945288e-14
9.240000e+02 4.715013e-13
9.250000e+02 4.875073e-12
9.260000e+02 1.010111e-13
9.270000e+02 5.606043e-13
9.280000e+02 3.001499e-11
9.290000e+02 2.791846e-11
9.300000e+02 5.006949e-12
9.310000e+02 8.956380e-14
9.320000e+02 2.213849e-11
9.330000e+02 5.105683e-11
9.340000e+02 6.267044e-11
9.350000e+02 7.898123e-14
9.360000e+02 3.541874e-12
9.370000e+02 2.246825e-14
9.380000e+02 2.714370e-14
9.390000e+02 6.548917e-12
9.400000e+02 6.802896e-11
9.410000e+02 9.648055e-13
9.420000e+02 1.278014e-10
9.430000e+02 3.087935e-11
9.440000e+02 1.496029e-10
9.450000e+02 1.485156e-10
9.460000e+02 1.147598e-10
9.470000e+02 1.648751e-13
9.480000e+02 1.727756e-11
9.490000e+02 2.831371e-12
9.500000e+02 1.696517e-14
9.510000e+02 2.025184e-11
9.520000e+02 9.663291e-11
9.530000e+02 5.956763e-12
9.540000e+02 2.213733e-13
9.550000e+02 5.203551e-11
9.560000e+02 4.802037e-11
9.570000e+02 9.765522e-12
9.580000e+02 5.387357e-14
9.590000e+02 4.780614e-10
9.600000e+02 1.690315e-13
9.610000e+02 4.468082e-10
9.620000e+02 3.281873e-10
9.630000e+02 2.094180e-11
9.640000e+02 3.888750e-12
9.650000e+02 7.503442e-13
9.660000e+02 9.552678e-11
9.670000e+02 9.534151e-12
9.680000e+02 6.610795e-12
9.690000e+02 1.847912e-10
9.700000e+02 1.638849e-10
9.710000e+02 9.656528e-12
9.720000e+02 6.608099e-13
9.730000e+02 7.149543e-13
9.740000e+02 4.155672e-11
9.750000e+02 1.149878e-10
9.760000e+02 5.339702e-10
9.770000e+02 7.818058e-10
9.780000e+02 8.428457e-10
9.790000e+02 1.380434e-09
9.800000e+02 1.600368e-09
9.810000e+02 9.843131e-10
9.820000e+02 2.594258e-10
9.830000e+02 2.116186e-09
9.840000e+02 4.773485e-11
9.850000e+02 5.346551e-10
9.860000e+02 4.456017e-10
9.870000e+02 2.769374e-09
9.880000e+02 3.190559e-12
9.890000e+02 2.836239e-09
9.900000e+02 2.354541e-09
9.910000e+02 2.877314e-10
9.920000e+02 3.289131e-13
9.930000e+02 2.636257e-09
9.940000e+02 6.850076e-14
9.950000e+02 1.187673e-10
9.960000e+02 1.903855e-11
9.970000e+02 2.993279e-12
9.980000e+02 5.012939e-09
9.990000e+02 3.743382e-10
1.000000e+03 6.395442e-09
1.001000e+03 5.648132e-09
1.002000e+03 7.341030e-09
1.003000e+03 4.006639e-10
1.004000e+03 5.609735e-12
1.005000e+03 2.267372e-09
1.006000e+03 8.954061e-09
1.007000e+03 9.448850e-09
1.008000e+03 9.397472e-09
1.009000e+03 3.111771e-10
1.010000e+03 9.709188e-09
1.011000e+03 1.100531e-08
1.012000e+03 1.106202e-08
1.013000e+03 1.118689e-08
1.014000e+03 1.886491e-12
1.015000e+03 1.388312e-11
1.016000e+03 1.966888e-09
1.017000e+03 8.020251e-13
1.018000e+03 5.846390e-10
1.019000e+03 1.406608e-11
1.020000e+03 7.202859e-09
1.021000e+03 1.911835e-10
1.022000e+03 9.189884e-10
1.023000e+03 5.868417e-11
1.024000e+03 2.603959e-10
1.025000e+03 4.861563e-13
1.026000e+03 4.637485e-13
1.027000e+03 1.288064e-10
1.028000e+03 1.104938e-11
1.029000e+03 2.205347e-12
1.030000e+03 6.242804e-09
1.031000e+03 1.935707e-08
1.032000e+03 2.631105e-08
1.033000e+03 2.073151e-10
1.034000e+03 3.337930e-08
1.035000e+03 3.602452e-12
1.036000e+03 1.386269e-11
1.037000e+03 1.597429e-07
1.038000e+03 1.940715e-07
1.039000e+03 1.970816e-07
1.040000e+03 1.866294e-07
1.041000e+03 2.157526e-07
1.042000e+03 2.923534e-07
1.043000e+03 1.493170e-07
1.044000e+03 3.606483e-07
1.045000e+03 6.910306e-12
1.046000e+03 2.624771e-07
1.047000e+03 2.060013e-07
1.048000e+03 1.801567e-09
1.049000e+03 2.061695e-07
1.050000e+03 3.245754e-08
1.051000e+03 8.973302e-09
1.052000e+03 5.848408e-07
1.053000e+03 6.482604e-07
1.054000e+03 2.012257e-11
1.055000e+03 4.511774e-07
1.056000e+03 7.213674e-07
1.057000e+03 3.935555e-07
1.058000e+03 1.495568e-08
1.059000e+03 3.839205e-09
1.060000e+03 1.754927e-09
1.061000e+03 8.801868e-07
1.062000e+03 6.885180e-09
1.063000e+03 3.870684e-10
1.064000e+03 7.048584e-12
1.065000e+03 2.955858e-11
1.066000e+03 4.342979e-08
1.067000e+03 1.478950e-08
1.068000e+03 1.450858e-06
1.069000e+03 2.154467e-09
1.070000e+03 2.668666e-07
1.071000e+03 1.532728e-06
1.072000e+03 1.761480e-06
1.073000e+03 1.950866e-10
1.074000e+03 1.140480e-06
1.075000e+03 9.162034e-07
1.076000e+03 4.790705e-07
1.077000e+03 1.227704e-09
1.078000e+03 2.481625e-08
1.079000e+03 2.444004e-07
1.080000e+03 7.640982e-07
1.081000e+03 2.657880e-06
1.082000e+03 2.263041e-06
1.083000e+03 1.715593e-06
1.084000e+03 2.623577e-06
1.085000e+03 3.643263e-07
1.086000e+03 3.591632e-06
1.087000e+03 4.324284e-08
1.088000e+03 3.920645e-06
1.089000e+03 4.045985e-06
1.090000e+03 3.589154e-07
1.091000e+03 7.895837e-07
1.092000e+03 2.923317e-06
1.093000e+03 4.363348e-06
1.094000e+03 3.037962e-06
1.095000e+03 5.462496e-06
1.096000e+03 8.101415e-08
1.097000e+03 5.706662e-06
1.098000e+03 5.072913e-06
1.099000e+03 9.852920e-07
1.100000e+03 4.858684e-09
1.101000e+03 1.802071e-08
1.102000e+03 1.225541e-06
1.103000e+03 7.832406e-06
1.104000e+03 8.288463e-06
1.105000e+03 8.651717e-06
1.106000e+03 3.875126e-06
1.107000e+03 1.906028e-08
1.108000e+03 9.551770e-06
1.109000e+03 5.822976e-07
1.110000e+03 9.768380e-06
1.111000e+03 9.914978e-06
1.112000e+03 9.864796e-06
1.113000e+03 8.235174e-06
1.114000e+03 4.781752e-06
1.115000e+03 3.716486e-07
1.116000e+03 6.628598e-08
1.117000e+03 1.466055e-05
1.118000e+03 1.085035e-06
1.119000e+03 1.165005e-05
1.120000e+03 2.064171e-07
1.121000e+03 1.677168e-05
1.122000e+03 1.555472e-05
1.123000e+03 2.676816e-05
1.124000e+03 3.412036e-05
1.125000e+03 2.799550e-05
1.126000e+03 2.585496e-05
1.127000e+03 2.460777e-05
1.128000e+03 2.057556e-05
1.129000e+03 1.953526e-05
1.130000e+03 2.057632e-05
1.131000e+03 1.600833e-05
1.132000e+03 3.001642e-07
1.133000e+03 7.644177e-06
1.134000e+03 1.689862e-05
1.135000e+03 9.244401e-06
1.136000e+03 8.703887e-06
1.137000e+03 1.283852e-05
1.138000e+03 1.524008e-05
1.139000e+03 1.630631e-05
1.140000e+03 1.579406e-05
1.141000e+03 1.403052e-05
1.142000e+03 1.591160e-05
1.143000e+03 1.267478e-05
1.144000e+03 1.497244e-05
1.145000e+03 1.825720e-07
1.146000e+03 1.661322e-05
1.147000e+03 1.679274e-05
1.148000e+03 3.277923e-06
1.149000e+03 1.648563e-05
1.150000e+03 1.633250e-05
1.151000e+03 1.627680e-05
1.152000e+03 1.591757e-05
1.153000e+03 1.566580e-05
1.154000e+03 1.503226e-05
1.155000e+03 1.501109e-05
1.156000e+03 1.040287e-05
1.157000e+03 1.438636e-05
1.158000e+03 1.396439e-05
1.159000e+03 1.463508e-05
1.160000e+03 1.419426e-05
1.161000e+03 1.345218e-05
1.162000e+03 6.676115e-06
1.163000e+03 1.051867e-05
1.164000e+03 3.063906e-08
1.165000e+03 7.439789e-06
1.166000e+03 3.742634e-06
1.167000e+03 2.396369e-06
1.168000e+03 1.565146e-05
1.169000e+03 1.592989e-05
1.170000e+03 2.597423e-06
1.171000e+03 6.813540e-06
1.172000e+03 5.468559e-06
1.173000e+03 4.585901e-06
1.174000e+03 1.381117e-06
1.175000e+03 3.222067e-08
1.176000e+03 4.677531e-09
1.177000e+03 2.139488e-05
1.178000e+03 2.012339e-05
1.179000e+03 1.912014e-05
1.180000e+03 1.766034e-05
1.181000e+03 1.719808e-05
1.182000e+03 1.668299e-05
1.183000e+03 1.589354e-05
1.184000e+03 1.534285e-05
1.185000e+03 1.479752e-05
1.186000e+03 5.758768e-06
1.187000e+03 1.391623e-05
1.188000e+03 1.346015e-05
1.189000e+03 1.332282e-05
1.190000e+03 1.296957e-05
1.191000e+03 1.228157e-05
1.192000e+03 1.105556e-05
1.193000e+03 1.104140e-05
1.194000e+03 1.066009e-05
1.195000e+03 1.021000e-05
1.196000e+03 2.459670e-04
1.197000e+03 2.275796e-04
1.198000e+03 5.524649e-05
1.199000e+03 1.872521e-04
1.200000e+03 1.064044e-04
1.201000e+03 1.428377e-04
1.202000e+03 1.188016e-04
1.203000e+03 1.009773e-04
1.204000e+03 6.677782e-05
1.205000e+03 6.365306e-05
1.206000e+03 4.796072e-05
1.207000e+03 4.975615e-06
1.208000e+03 2.121661e-05
1.209000e+03 1.535010e-05
1.210000e+03 4.161120e-08
1.211000e+03 5.265457e-06
1.212000e+03 2.586266e-06
1.213000e+03 1.064665e-06
1.214000e+03 2.789723e-07
1.215000e+03 2.100220e-08
1.216000e+03 1.835569e-08
1.217000e+03 1.469158e-07
1.218000e+03 8.972171e-07
1.219000e+03 2.615060e-06
1.220000e+03 6.033573e-06
1.221000e+03 1.186261e-05
1.222000e+03 2.216413e-05
1.223000e+03 3.638063e-05
1.224000e+03 5.352517e-05
1.225000e+03 4.771293e-05
1.226000e+03 1.213729e-04
1.227000e+03 1.694518e-04
1.228000e+03 2.144024e-04
1.229000e+03 2.943065e-04
1.230000e+03 8.318021e-05
1.231000e+03 2.656087e-04
1.232000e+03 5.362774e-04
1.233000e+03 6.386284e-04
1.234000e+03 6.053990e-04
1.235000e+03 8.517341e-04
1.236000e+03 8.644299e-04
1.237000e+03 1.078322e-03
1.238000e+03 1.198684e-03
1.239000e+03 1.275027e-03
1.240000e+03 1.127667e-04
1.241000e+03 1.382254e-03
1.242000e+03 1.687482e-03
1.243000e+03 1.818213e-03
1.244000e+03 1.959611e-03
1.245000e+03 1.994080e-03
1.246000e+03 2.169182e-03
1.247000e+03 2.274428e-03
1.248000e+03 9.730635e-04
1.249000e+03 2.499463e-03
1.250000e+03 2.427125e-03
1.251000e+03 2.877108e-03
1.252000e+03 2.754858e-03
1.253000e+03 3.061551e-03
1.254000e+03 3.019379e-03
1.255000e+03 3.920773e-04
1.256000e+03 2.811357e-03
1.257000e+03 1.914859e-03
1.258000e+03 2.909395e-03
1.259000e+03 3.457187e-03
1.260000e+03 3.651759e-03
1.261000e+03 6.949576e-05
1.262000e+03 3.802531e-03
1.263000e+03 2.794436e-03
1.264000e+03 3.643434e-03
1.265000e+03 3.355422e-03
1.266000e+03 4.717468e-03
1.267000e+03 5.105959e-03
