# wavelength_A flux
5.000000e+02 4.144034e-01
5.010000e+02 4.548382e-01
5.020000e+02 4.990239e-01
5.030000e+02 5.472902e-01
5.040000e+02 5.999707e-01
5.050000e+02 6.545039e-01
5.060000e+02 7.169253e-01
5.070000e+02 7.850039e-01
5.080000e+02 8.591859e-01
5.090000e+02 9.402235e-01
5.100000e+02 1.028187e+00
5.110000e+02 1.124151e+00
5.120000e+02 1.228621e+00
5.130000e+02 1.342310e+00
5.140000e+02 1.465990e+00
5.150000e+02 1.600487e+00
5.160000e+02 1.746656e+00
5.170000e+02 1.905534e+00
5.180000e+02 2.078157e+00
5.190000e+02 2.265607e+00
5.200000e+02 2.469077e+00
5.210000e+02 2.689914e+00
5.220000e+02 2.929499e+00
5.230000e+02 3.189277e+00
5.240000e+02 3.470946e+00
5.250000e+02 3.776228e+00
5.260000e+02 4.106964e+00
5.270000e+02 4.465171e+00
5.280000e+02 4.853003e+00
5.290000e+02 5.272622e+00
5.300000e+02 5.726964e+00
5.310000e+02 6.218235e+00
5.320000e+02 6.749453e+00
5.330000e+02 7.323681e+00
5.340000e+02 7.944204e+00
5.350000e+02 8.614542e+00
5.360000e+02 9.338472e+00
5.370000e+02 1.015398e+01
5.380000e+02 1.096323e+01
5.390000e+02 1.187334e+01
5.400000e+02 1.285492e+01
5.410000e+02 1.391325e+01
5.420000e+02 1.505430e+01
5.430000e+02 1.628387e+01
5.440000e+02 1.760851e+01
5.450000e+02 1.903512e+01
5.460000e+02 2.057056e+01
5.470000e+02 2.222415e+01
5.480000e+02 2.400341e+01
5.490000e+02 2.591689e+01
5.500000e+02 2.797497e+01
5.510000e+02 3.018764e+01
5.520000e+02 3.256584e+01
5.530000e+02 3.512122e+01
5.540000e+02 3.786621e+01
5.550000e+02 4.081404e+01
5.560000e+02 4.397884e+01
5.570000e+02 4.737540e+01
5.580000e+02 5.102014e+01
5.590000e+02 5.492989e+01
5.600000e+02 5.912276e+01
5.610000e+02 6.361806e+01
5.620000e+02 6.843626e+01
5.630000e+02 7.359706e+01
5.640000e+02 7.912777e+01
5.650000e+02 8.505102e+01
5.660000e+02 9.139319e+01
5.670000e+02 9.818046e+01
5.680000e+02 1.054450e+02
5.690000e+02 1.132170e+02
5.700000e+02 1.215299e+02
5.710000e+02 1.304187e+02
5.720000e+02 1.399212e+02
5.730000e+02 1.500770e+02
5.740000e+02 1.609285e+02
5.750000e+02 1.725193e+02
5.760000e+02 1.849052e+02
5.770000e+02 1.981156e+02
5.780000e+02 2.122238e+02
5.790000e+02 2.272794e+02
5.800000e+02 2.433423e+02
5.810000e+02 2.604754e+02
5.820000e+02 2.787460e+02
5.830000e+02 2.982257e+02
5.840000e+02 3.190066e+02
5.850000e+02 3.411160e+02
5.860000e+02 3.646724e+02
5.870000e+02 3.897630e+02
5.880000e+02 4.164923e+02
5.890000e+02 4.449502e+02
5.900000e+02 4.752381e+02
5.910000e+02 5.074684e+02
5.920000e+02 5.417572e+02
5.930000e+02 5.782275e+02
5.940000e+02 6.170095e+02
5.950000e+02 6.582342e+02
5.960000e+02 7.020637e+02
5.970000e+02 7.486107e+02
5.980000e+02 7.980859e+02
5.990000e+02 8.506381e+02
6.000000e+02 9.064459e+02
6.010000e+02 9.657018e+02
6.020000e+02 1.028594e+03
6.030000e+02 1.095343e+03
6.040000e+02 1.166164e+03
6.050000e+02 1.241273e+03
6.060000e+02 1.320952e+03
6.070000e+02 1.405436e+03
6.080000e+02 1.495001e+03
6.090000e+02 1.589930e+03
6.100000e+02 1.690469e+03
6.110000e+02 1.797040e+03
6.120000e+02 1.909925e+03
6.130000e+02 2.029471e+03
6.140000e+02 2.156048e+03
6.150000e+02 2.290033e+03
6.160000e+02 2.431843e+03
6.170000e+02 2.581899e+03
6.180000e+02 2.740649e+03
6.190000e+02 2.908564e+03
6.200000e+02 3.086135e+03
6.210000e+02 3.273883e+03
6.220000e+02 3.472247e+03
6.230000e+02 3.681998e+03
6.240000e+02 3.903638e+03
6.250000e+02 4.137777e+03
6.260000e+02 4.385109e+03
6.270000e+02 4.646309e+03
6.280000e+02 4.922099e+03
6.290000e+02 5.213241e+03
6.300000e+02 5.520530e+03
6.310000e+02 5.844572e+03
6.320000e+02 6.186710e+03
6.330000e+02 6.547592e+03
6.340000e+02 6.928207e+03
6.350000e+02 7.329555e+03
6.360000e+02 7.761410e+03
6.370000e+02 8.198704e+03
6.380000e+02 8.668759e+03
6.390000e+02 9.163902e+03
6.400000e+02 9.685696e+03
6.410000e+02 1.023532e+04
6.420000e+02 1.081414e+04
6.430000e+02 1.142360e+04
6.440000e+02 1.206522e+04
6.450000e+02 1.274060e+04
6.460000e+02 1.345146e+04
6.470000e+02 1.419936e+04
6.480000e+02 1.498606e+04
6.490000e+02 1.581358e+04
6.500000e+02 1.668385e+04
6.510000e+02 1.759829e+04
6.520000e+02 1.856026e+04
6.530000e+02 1.957141e+04
6.540000e+02 2.063407e+04
6.550000e+02 2.175027e+04
6.560000e+02 2.292339e+04
6.570000e+02 2.415578e+04
6.580000e+02 2.544970e+04
6.590000e+02 2.680860e+04
6.600000e+02 2.823530e+04
6.610000e+02 2.973179e+04
6.620000e+02 3.130355e+04
6.630000e+02 3.295295e+04
6.640000e+02 3.468346e+04
6.650000e+02 3.649889e+04
6.660000e+02 3.840298e+04
6.670000e+02 4.039984e+04
6.680000e+02 4.249362e+04
6.690000e+02 4.468868e+04
6.700000e+02 4.698784e+04
6.710000e+02 4.939923e+04
6.720000e+02 5.213842e+04
6.730000e+02 5.457278e+04
6.740000e+02 5.734602e+04
6.750000e+02 6.025070e+04
6.760000e+02 6.329259e+04
6.770000e+02 6.647769e+04
6.780000e+02 6.981221e+04
6.790000e+02 7.330267e+04
6.800000e+02 7.695580e+04
6.810000e+02 8.077860e+04
6.820000e+02 8.477838e+04
6.830000e+02 8.896266e+04
6.840000e+02 9.333938e+04
6.850000e+02 9.791671e+04
6.860000e+02 1.027030e+05
6.870000e+02 1.077082e+05
6.880000e+02 1.129342e+05
6.890000e+02 1.184021e+05
6.900000e+02 1.241163e+05
6.910000e+02 1.300869e+05
6.920000e+02 1.363250e+05
6.930000e+02 1.428416e+05
6.940000e+02 1.496473e+05
6.950000e+02 1.567555e+05
6.960000e+02 1.641778e+05
6.970000e+02 1.719292e+05
6.980000e+02 1.800163e+05
6.990000e+02 1.884596e+05
7.000000e+02 1.972712e+05
7.010000e+02 2.064658e+05
7.020000e+02 2.160587e+05
7.030000e+02 2.260660e+05
7.040000e+02 2.365040e+05
7.050000e+02 2.473899e+05
7.060000e+02 2.587311e+05
7.070000e+02 2.705658e+05
7.080000e+02 2.829036e+05
7.090000e+02 2.957641e+05
7.100000e+02 3.091670e+05
7.110000e+02 3.231343e+05
7.120000e+02 3.376872e+05
7.130000e+02 3.528487e+05
7.140000e+02 3.686421e+05
7.150000e+02 3.850915e+05
7.160000e+02 4.022221e+05
7.170000e+02 4.200461e+05
7.180000e+02 4.386214e+05
7.190000e+02 4.579484e+05
7.200000e+02 4.780713e+05
7.210000e+02 4.990143e+05
7.220000e+02 5.208081e+05
7.230000e+02 5.434729e+05
7.240000e+02 5.670608e+05
7.250000e+02 5.916011e+05
7.260000e+02 6.171253e+05
7.270000e+02 6.436702e+05
7.280000e+02 6.712731e+05
7.290000e+02 6.999742e+05
7.300000e+02 7.300789e+05
7.310000e+02 7.608248e+05
7.320000e+02 7.931576e+05
7.330000e+02 8.265593e+05
7.340000e+02 8.613689e+05
7.350000e+02 8.975471e+05
7.360000e+02 9.351094e+05
7.370000e+02 9.741362e+05
7.380000e+02 1.014672e+06
7.390000e+02 1.056768e+06
7.400000e+02 1.100482e+06
7.410000e+02 1.145865e+06
7.420000e+02 1.192983e+06
7.430000e+02 1.241889e+06
7.440000e+02 1.292651e+06
7.450000e+02 1.345331e+06
7.460000e+02 1.399995e+06
7.470000e+02 1.456718e+06
7.480000e+02 1.515555e+06
7.490000e+02 1.576593e+06
7.500000e+02 1.639909e+06
7.510000e+02 1.705561e+06
7.520000e+02 1.773648e+06
7.530000e+02 1.844235e+06
7.540000e+02 1.917426e+06
7.550000e+02 1.993303e+06
7.560000e+02 2.071946e+06
7.570000e+02 2.153478e+06
7.580000e+02 2.237926e+06
7.590000e+02 2.325464e+06
7.600000e+02 2.416143e+06
7.610000e+02 2.510091e+06
7.620000e+02 2.607410e+06
7.630000e+02 2.708211e+06
7.640000e+02 2.812606e+06
7.650000e+02 2.920714e+06
7.660000e+02 3.032536e+06
7.670000e+02 3.148424e+06
7.680000e+02 3.268414e+06
7.690000e+02 3.392597e+06
7.700000e+02 3.521130e+06
7.710000e+02 3.654150e+06
7.720000e+02 3.791800e+06
7.730000e+02 3.934226e+06
7.740000e+02 4.081580e+06
7.750000e+02 4.234018e+06
7.760000e+02 4.391943e+06
7.770000e+02 4.554784e+06
7.780000e+02 4.723445e+06
7.790000e+02 4.897826e+06
7.800000e+02 5.078163e+06
7.810000e+02 5.264610e+06
7.820000e+02 5.457356e+06
7.830000e+02 5.656625e+06
7.840000e+02 5.862548e+06
7.850000e+02 6.075374e+06
7.860000e+02 6.295308e+06
7.870000e+02 6.522552e+06
7.880000e+02 6.757345e+06
7.890000e+02 6.999906e+06
7.900000e+02 7.250486e+06
7.910000e+02 7.509283e+06
7.920000e+02 7.776597e+06
7.930000e+02 8.052638e+06
7.940000e+02 8.337684e+06
7.950000e+02 8.631987e+06
7.960000e+02 8.935849e+06
7.970000e+02 9.249521e+06
7.980000e+02 9.573302e+06
7.990000e+02 9.907488e+06
8.000000e+02 1.025238e+07
8.010000e+02 1.060831e+07
8.020000e+02 1.097555e+07
8.030000e+02 1.135447e+07
8.040000e+02 1.174538e+07
8.050000e+02 1.214856e+07
8.060000e+02 1.256452e+07
8.070000e+02 1.299354e+07
8.080000e+02 1.343599e+07
8.090000e+02 1.389189e+07
8.100000e+02 1.436178e+07
8.110000e+02 1.484683e+07
8.120000e+02 1.534690e+07
8.130000e+02 1.586235e+07
8.140000e+02 1.639369e+07
8.150000e+02 1.694142e+07
8.160000e+02 1.750574e+07
8.170000e+02 1.808736e+07
8.180000e+02 1.868668e+07
8.190000e+02 1.930417e+07
8.200000e+02 1.994035e+07
8.210000e+02 2.059571e+07
8.220000e+02 2.127079e+07
8.230000e+02 2.196615e+07
8.240000e+02 2.268223e+07
8.250000e+02 2.341970e+07
8.260000e+02 2.417911e+07
8.270000e+02 2.496103e+07
8.280000e+02 2.576608e+07
8.290000e+02 2.659468e+07
8.300000e+02 2.744783e+07
8.310000e+02 2.832599e+07
8.320000e+02 2.922984e+07
8.330000e+02 3.016007e+07
8.340000e+02 3.111730e+07
8.350000e+02 3.210388e+07
8.360000e+02 3.311604e+07
8.370000e+02 3.415843e+07
8.380000e+02 3.523117e+07
8.390000e+02 3.633452e+07
8.400000e+02 3.746949e+07
8.410000e+02 3.863688e+07
8.420000e+02 3.983968e+07
8.430000e+02 4.107189e+07
8.440000e+02 4.234136e+07
8.450000e+02 4.364661e+07
8.460000e+02 4.498860e+07
8.470000e+02 4.636827e+07
8.480000e+02 4.778647e+07
8.490000e+02 4.924412e+07
8.500000e+02 5.074236e+07
8.510000e+02 5.228000e+07
8.520000e+02 5.386205e+07
8.530000e+02 5.548802e+07
8.540000e+02 5.715844e+07
8.550000e+02 5.887490e+07
8.560000e+02 6.063830e+07
8.570000e+02 6.244980e+07
8.580000e+02 6.431062e+07
8.590000e+02 6.622185e+07
8.600000e+02 6.818482e+07
8.610000e+02 7.020074e+07
8.620000e+02 7.227090e+07
8.630000e+02 7.439665e+07
8.640000e+02 7.657920e+07
8.650000e+02 7.882012e+07
8.660000e+02 8.112050e+07
8.670000e+02 8.348205e+07
8.680000e+02 8.590598e+07
8.690000e+02 8.839400e+07
8.700000e+02 9.094801e+07
8.710000e+02 9.356808e+07
8.720000e+02 9.625726e+07
8.730000e+02 9.901667e+07
8.740000e+02 1.018472e+08
8.750000e+02 1.047519e+08
8.760000e+02 1.077320e+08
8.770000e+02 1.107890e+08
8.780000e+02 1.139247e+08
8.790000e+02 1.171411e+08
8.800000e+02 1.204399e+08
8.810000e+02 1.238229e+08
8.820000e+02 1.272922e+08
8.830000e+02 1.308497e+08
8.840000e+02 1.344973e+08
8.850000e+02 1.382372e+08
8.860000e+02 1.420719e+08
8.870000e+02 1.460021e+08
8.880000e+02 1.500313e+08
8.890000e+02 1.541547e+08
8.900000e+02 1.583876e+08
8.910000e+02 1.627258e+08
8.920000e+02 1.677068e+08
8.930000e+02 1.717276e+08
8.940000e+02 1.763960e+08
8.950000e+02 1.811793e+08
8.960000e+02 1.860793e+08
8.970000e+02 1.911006e+08
8.980000e+02 1.962441e+08
8.990000e+02 2.015142e+08
9.000000e+02 2.069109e+08
9.010000e+02 2.124385e+08
9.020000e+02 2.180996e+08
9.030000e+02 2.238973e+08
9.040000e+02 2.298420e+08
9.050000e+02 2.359139e+08
9.060000e+02 2.421423e+08
9.070000e+02 2.485230e+08
9.080000e+02 2.550407e+08
9.090000e+02 2.617205e+08
9.100000e+02 2.685585e+08
9.110000e+02 2.755576e+08
9.120000e+02 2.827207e+08
9.130000e+02 2.911018e+08
9.140000e+02 2.974582e+08
9.150000e+02 4.390230e+08
9.160000e+02 9.021214e+08
9.170000e+02 1.008240e+09
9.180000e+02 7.931309e+08
9.190000e+02 1.954422e+09
9.200000e+02 3.179884e+09
9.210000e+02 3.691539e+08
9.220000e+02 4.355640e+09
9.230000e+02 1.004710e+09
9.240000e+02 3.616894e+09
9.250000e+02 5.386201e+09
9.260000e+02 1.543135e+09
9.270000e+02 4.682102e+09
9.280000e+02 6.688864e+09
9.290000e+02 5.279266e+09
9.300000e+02 4.824846e+09
9.310000e+02 1.895973e+09
9.320000e+02 6.721543e+09
9.330000e+02 7.952349e+09
9.340000e+02 8.371714e+09
9.350000e+02 2.918955e+09
9.360000e+02 8.084038e+09
9.370000e+02 1.874299e+09
9.380000e+02 1.644377e+09
9.390000e+02 7.541364e+09
9.400000e+02 9.135997e+09
9.410000e+02 6.003710e+09
9.420000e+02 9.991567e+09
9.430000e+02 1.026211e+10
9.440000e+02 5.337836e+09
9.450000e+02 1.061742e+10
9.460000e+02 1.068297e+10
9.470000e+02 7.732703e+09
9.480000e+02 9.679652e+09
9.490000e+02 6.863221e+09
9.500000e+02 1.964840e+09
9.510000e+02 8.914833e+09
9.520000e+02 1.139041e+10
9.530000e+02 1.200362e+10
9.540000e+02 9.841394e+09
9.550000e+02 1.276943e+10
9.560000e+02 1.246453e+10
9.570000e+02 1.068232e+10
9.580000e+02 1.343280e+10
9.590000e+02 1.382909e+10
9.600000e+02 3.074992e+09
9.610000e+02 1.435356e+10
9.620000e+02 1.437905e+10
9.630000e+02 1.485210e+10
9.640000e+02 1.011201e+09
9.650000e+02 1.360984e+10
9.660000e+02 1.557932e+10
9.670000e+02 1.572633e+10
9.680000e+02 1.567613e+10
9.690000e+02 1.593198e+10
9.700000e+02 1.578447e+10
9.710000e+02 1.439912e+10
9.720000e+02 7.747206e+09
9.730000e+02 6.981921e+09
9.740000e+02 1.487437e+10
9.750000e+02 1.711937e+10
9.760000e+02 1.804233e+10
9.770000e+02 1.855812e+10
9.780000e+02 1.896311e+10
9.790000e+02 1.938132e+10
9.800000e+02 1.974546e+10
9.810000e+02 2.009929e+10
9.820000e+02 2.006886e+10
9.830000e+02 2.077946e+10
9.840000e+02 6.196826e+09
9.850000e+02 2.150002e+10
9.860000e+02 2.185141e+10
9.870000e+02 2.214571e+10
9.880000e+02 2.208728e+10
9.890000e+02 1.273534e+10
9.900000e+02 2.072376e+09
9.910000e+02 2.343579e+10
9.920000e+02 2.181672e+10
9.930000e+02 2.286716e+10
9.940000e+02 3.364895e+09
9.950000e+02 4.399148e+09
9.960000e+02 4.033227e+09
9.970000e+02 4.843676e+09
9.980000e+02 2.640237e+10
9.990000e+02 2.605144e+10
1.000000e+03 2.734001e+10
1.001000e+03 2.779242e+10
1.002000e+03 2.819288e+10
1.003000e+03 2.178318e+10
1.004000e+03 2.912134e+10
1.005000e+03 2.368882e+10
1.006000e+03 3.003302e+10
1.007000e+03 3.049039e+10
1.008000e+03 3.092678e+10
1.009000e+03 2.869974e+10
1.010000e+03 3.191497e+10
1.011000e+03 3.240132e+10
1.012000e+03 3.285079e+10
1.013000e+03 3.336881e+10
1.014000e+03 3.387494e+10
1.015000e+03 3.323650e+10
1.016000e+03 3.475895e+10
1.017000e+03 3.532443e+10
1.018000e+03 3.576723e+10
1.019000e+03 3.620769e+10
1.020000e+03 3.653657e+10
1.021000e+03 2.834751e+10
1.022000e+03 3.557200e+10
1.023000e+03 3.591614e+10
1.024000e+03 3.185657e+10
1.025000e+03 1.833791e+10
1.026000e+03 7.694262e+09
1.027000e+03 2.892002e+10
1.028000e+03 1.159195e+10
1.029000e+03 4.051916e+10
1.030000e+03 4.087312e+10
1.031000e+03 4.340384e+10
1.032000e+03 4.315007e+10
1.033000e+03 2.514807e+10
1.034000e+03 4.601407e+10
1.035000e+03 9.677033e+09
1.036000e+03 4.639849e+10
1.037000e+03 4.821582e+09
1.038000e+03 4.897915e+10
1.039000e+03 4.866950e+10
1.040000e+03 5.050562e+10
1.041000e+03 5.102309e+10
1.042000e+03 4.683539e+10
1.043000e+03 5.191259e+10
1.044000e+03 5.280665e+10
1.045000e+03 5.420463e+10
1.046000e+03 5.508081e+10
1.047000e+03 5.582142e+10
1.048000e+03 5.480837e+10
1.049000e+03 5.663839e+10
1.050000e+03 5.842083e+10
1.051000e+03 5.926065e+10
1.052000e+03 6.009920e+10
1.053000e+03 5.711422e+10
1.054000e+03 6.176347e+10
1.055000e+03 6.264286e+10
1.056000e+03 6.358970e+10
1.057000e+03 6.435736e+10
1.058000e+03 6.530453e+10
1.059000e+03 6.628181e+10
1.060000e+03 6.722954e+10
1.061000e+03 6.817430e+10
1.062000e+03 6.911602e+10
1.063000e+03 3.936751e+10
1.064000e+03 1.321708e+10
1.065000e+03 7.443455e+10
1.066000e+03 7.154237e+10
1.067000e+03 6.522228e+10
1.068000e+03 7.767926e+10
1.069000e+03 7.870412e+10
1.070000e+03 7.457310e+10
1.071000e+03 8.105208e+10
1.072000e+03 8.210884e+10
1.073000e+03 8.327485e+10
1.074000e+03 8.435360e+10
1.075000e+03 8.531582e+10
1.076000e+03 8.666585e+10
1.077000e+03 8.741741e+10
1.078000e+03 8.890444e+10
1.079000e+03 8.946106e+10
1.080000e+03 9.102267e+10
1.081000e+03 9.264385e+10
1.082000e+03 9.382955e+10
1.083000e+03 9.489516e+10
1.084000e+03 6.442528e+10
1.085000e+03 7.634201e+10
1.086000e+03 9.896482e+10
1.087000e+03 1.001187e+11
1.088000e+03 1.011437e+11
1.089000e+03 1.026890e+11
1.090000e+03 1.037389e+11
1.091000e+03 1.055705e+11
1.092000e+03 1.069523e+11
1.093000e+03 1.082306e+11
1.094000e+03 1.097620e+11
1.095000e+03 1.106753e+11
1.096000e+03 1.124945e+11
1.097000e+03 1.130095e+11
1.098000e+03 1.102268e+11
1.099000e+03 1.165244e+11
1.100000e+03 1.165770e+11
1.101000e+03 1.103624e+11
1.102000e+03 2.181288e+11
1.103000e+03 5.163027e+11
1.104000e+03 2.518432e+11
1.105000e+03 1.163303e+11
1.106000e+03 9.105990e+11
1.107000e+03 8.955338e+11
1.108000e+03 9.308568e+11
1.109000e+03 5.217341e+11
1.110000e+03 1.461383e+11
1.111000e+03 2.346555e+11
1.112000e+03 8.584139e+11
1.113000e+03 9.792006e+11
1.114000e+03 8.813098e+10
1.115000e+03 9.683739e+11
1.116000e+03 9.992555e+11
1.117000e+03 9.663165e+10
1.118000e+03 8.595112e+11
1.119000e+03 1.024114e+12
1.120000e+03 1.040673e+12
1.121000e+03 7.323611e+11
1.122000e+03 2.262840e+10
1.123000e+03 1.821658e+11
1.124000e+03 1.069245e+12
1.125000e+03 4.045139e+11
1.126000e+03 1.097025e+12
1.127000e+03 1.070890e+12
1.128000e+03 5.235580e+11
1.129000e+03 1.113008e+12
1.130000e+03 7.380114e+11
1.131000e+03 1.161316e+12
1.132000e+03 6.276409e+10
1.133000e+03 1.072846e+12
1.134000e+03 1.167853e+12
1.135000e+03 3.409995e+10
1.136000e+03 1.160785e+12
1.137000e+03 1.232177e+12
1.138000e+03 1.251878e+12
1.139000e+03 1.234529e+12
1.140000e+03 4.306462e+10
1.141000e+03 1.288001e+12
1.142000e+03 1.105553e+12
1.143000e+03 1.303718e+12
1.144000e+03 1.321556e+12
1.145000e+03 1.136231e+12
1.146000e+03 1.333341e+12
1.147000e+03 1.342030e+12
1.148000e+03 1.358781e+12
1.149000e+03 1.384188e+12
1.150000e+03 1.292483e+12
1.151000e+03 1.401114e+12
1.152000e+03 1.387415e+12
1.153000e+03 3.395847e+11
1.154000e+03 8.706995e+10
1.155000e+03 1.175469e+12
1.156000e+03 5.047084e+11
1.157000e+03 1.482760e+12
1.158000e+03 5.967005e+10
1.159000e+03 1.296273e+12
1.160000e+03 1.460962e+12
1.161000e+03 1.545972e+12
1.162000e+03 2.205121e+11
1.163000e+03 1.433313e+12
1.164000e+03 1.036004e+11
1.165000e+03 1.599575e+12
1.166000e+03 1.560500e+12
1.167000e+03 1.376644e+12
1.168000e+03 1.641525e+12
1.169000e+03 1.609393e+12
1.170000e+03 1.674447e+12
1.171000e+03 1.688517e+12
1.172000e+03 1.517011e+12
1.173000e+03 1.704069e+12
1.174000e+03 1.630712e+12
1.175000e+03 1.048337e+11
1.176000e+03 7.498249e+10
1.177000e+03 1.703327e+12
1.178000e+03 1.466300e+12
1.179000e+03 1.780678e+12
1.180000e+03 1.281833e+12
1.181000e+03 1.742320e+12
1.182000e+03 1.826623e+12
1.183000e+03 1.833554e+12
1.184000e+03 1.846622e+12
1.185000e+03 1.683355e+12
1.186000e+03 1.859273e+12
1.187000e+03 1.866877e+12
1.188000e+03 1.679848e+12
1.189000e+03 7.955317e+10
1.190000e+03 4.158044e+11
1.191000e+03 1.816912e+12
1.192000e+03 1.837712e+12
1.193000e+03 6.263695e+10
1.194000e+03 9.082569e+10
1.195000e+03 8.549214e+11
1.196000e+03 1.804010e+12
1.197000e+03 1.891249e+12
1.198000e+03 1.923315e+12
1.199000e+03 1.877762e+12
1.200000e+03 1.719451e+12
1.201000e+03 1.760985e+12
1.202000e+03 1.728294e+12
1.203000e+03 1.736947e+12
1.204000e+03 1.595934e+12
1.205000e+03 1.514742e+12
1.206000e+03 1.050054e+12
1.207000e+03 7.243292e+11
1.208000e+03 1.089924e+12
1.209000e+03 8.309987e+11
1.210000e+03 1.286881e+11
1.211000e+03 5.651869e+11
1.212000e+03 3.974352e+11
1.213000e+03 2.593848e+11
1.214000e+03 1.554619e+11
1.215000e+03 9.540114e+10
1.216000e+03 8.524304e+10
1.217000e+03 1.344708e+11
1.218000e+03 2.320374e+11
1.219000e+03 3.774478e+11
1.220000e+03 5.601694e+11
1.221000e+03 7.664800e+11
1.222000e+03 9.858056e+11
1.223000e+03 1.208250e+12
1.224000e+03 1.426951e+12
1.225000e+03 1.635938e+12
1.226000e+03 1.809053e+12
1.227000e+03 2.019658e+12
1.228000e+03 2.220802e+12
1.229000e+03 2.360644e+12
1.230000e+03 2.530261e+12
1.231000e+03 2.701447e+12
1.232000e+03 2.848083e+12
1.233000e+03 2.983012e+12
1.234000e+03 2.225389e+12
1.235000e+03 3.205677e+12
1.236000e+03 3.339982e+12
1.237000e+03 3.430560e+12
1.238000e+03 3.543904e+12
1.239000e+03 3.644426e+12
1.240000e+03 3.441714e+12
1.241000e+03 5.477762e+12
1.242000e+03 3.360329e+12
1.243000e+03 4.567453e+12
1.244000e+03 2.176577e+12
1.245000e+03 3.106696e+12
1.246000e+03 7.180281e+12
1.247000e+03 7.728065e+12
1.248000e+03 2.331392e+12
1.249000e+03 2.811528e+12
1.250000e+03 8.584308e+12
1.251000e+03 8.653812e+12
1.252000e+03 8.414795e+12
1.253000e+03 9.507088e+12
1.254000e+03 9.688522e+12
1.255000e+03 9.660562e+12
1.256000e+03 9.709027e+12
1.257000e+03 1.047170e+13
1.258000e+03 1.050611e+13
1.259000e+03 1.021532e+13
1.260000e+03 9.182079e+12
1.261000e+03 1.639190e+11
1.262000e+03 1.434331e+12
1.263000e+03 1.155190e+13
1.264000e+03 1.072611e+13
1.265000e+03 1.528556e+11
1.266000e+03 1.215263e+13
1.267000e+03 1.284274e+13
