# wavelength_A flux
5.000000e+02 1.383009e-34
5.010000e+02 1.744410e-34
5.020000e+02 2.198235e-34
5.030000e+02 2.767632e-34
5.040000e+02 3.481564e-34
5.050000e+02 1.194361e-33
5.060000e+02 1.492350e-33
5.070000e+02 1.863107e-33
5.080000e+02 2.324165e-33
5.090000e+02 2.896698e-33
5.100000e+02 3.607162e-33
5.110000e+02 4.488397e-33
5.120000e+02 5.580218e-33
5.130000e+02 6.932022e-33
5.140000e+02 8.604167e-33
5.150000e+02 1.066976e-32
5.160000e+02 1.322379e-32
5.170000e+02 1.636911e-32
5.180000e+02 2.026005e-32
5.190000e+02 2.504657e-32
5.200000e+02 3.093918e-32
5.210000e+02 3.818541e-32
5.220000e+02 4.689200e-32
5.230000e+02 5.803205e-32
5.240000e+02 7.148340e-32
5.250000e+02 8.796619e-32
5.260000e+02 1.081642e-31
5.270000e+02 1.329080e-31
5.280000e+02 1.631803e-31
5.290000e+02 1.997615e-31
5.300000e+02 2.453315e-31
5.310000e+02 3.006087e-31
5.320000e+02 3.680162e-31
5.330000e+02 4.501591e-31
5.340000e+02 5.502296e-31
5.350000e+02 6.720361e-31
5.360000e+02 8.200004e-31
5.370000e+02 5.963816e-31
5.380000e+02 1.218917e-30
5.390000e+02 1.484697e-30
5.400000e+02 1.807873e-30
5.410000e+02 2.196478e-30
5.420000e+02 2.672632e-30
5.430000e+02 3.246211e-30
5.440000e+02 3.940100e-30
5.450000e+02 4.779039e-30
5.460000e+02 5.783971e-30
5.470000e+02 7.016543e-30
5.480000e+02 8.493259e-30
5.490000e+02 1.027396e-29
5.500000e+02 1.241970e-29
5.510000e+02 1.500369e-29
5.520000e+02 1.811336e-29
5.530000e+02 2.185325e-29
5.540000e+02 2.634817e-29
5.550000e+02 3.174710e-29
5.560000e+02 3.822769e-29
5.570000e+02 4.600259e-29
5.580000e+02 5.532249e-29
5.590000e+02 6.648845e-29
5.600000e+02 7.985777e-29
5.610000e+02 9.585531e-29
5.620000e+02 1.149864e-28
5.630000e+02 1.378497e-28
5.640000e+02 1.651571e-28
5.650000e+02 1.977481e-28
5.660000e+02 2.366373e-28
5.670000e+02 2.829924e-28
5.680000e+02 3.382323e-28
5.690000e+02 4.040074e-28
5.700000e+02 4.822946e-28
5.710000e+02 5.753996e-28
5.720000e+02 6.860718e-28
5.730000e+02 8.175497e-28
5.740000e+02 9.736553e-28
5.750000e+02 1.159659e-27
5.760000e+02 1.370783e-27
5.770000e+02 1.640008e-27
5.780000e+02 1.948626e-27
5.790000e+02 2.313990e-27
5.800000e+02 2.746271e-27
5.810000e+02 3.257385e-27
5.820000e+02 3.861159e-27
5.830000e+02 4.572486e-27
5.840000e+02 5.349825e-27
5.850000e+02 6.393108e-27
5.860000e+02 7.582853e-27
5.870000e+02 8.966327e-27
5.880000e+02 1.059710e-26
5.890000e+02 1.251373e-26
5.900000e+02 1.477244e-26
5.910000e+02 1.742605e-26
5.920000e+02 2.054802e-26
5.930000e+02 2.421482e-26
5.940000e+02 2.852089e-26
5.950000e+02 3.357582e-26
5.960000e+02 3.950509e-26
5.970000e+02 4.645730e-26
5.980000e+02 5.460478e-26
5.990000e+02 6.414816e-26
6.000000e+02 7.532094e-26
6.010000e+02 8.807490e-26
6.020000e+02 1.036859e-25
6.030000e+02 1.215599e-25
6.040000e+02 1.424448e-25
6.050000e+02 1.668341e-25
6.060000e+02 1.953027e-25
6.070000e+02 2.285213e-25
6.080000e+02 2.672523e-25
6.090000e+02 3.123950e-25
6.100000e+02 3.649772e-25
6.110000e+02 4.262233e-25
6.120000e+02 4.974960e-25
6.130000e+02 5.804090e-25
6.140000e+02 6.768177e-25
6.150000e+02 7.888660e-25
6.160000e+02 9.190301e-25
6.170000e+02 1.070170e-24
6.180000e+02 1.245582e-24
6.190000e+02 1.449101e-24
6.200000e+02 1.685076e-24
6.210000e+02 1.958555e-24
6.220000e+02 2.275377e-24
6.230000e+02 2.642236e-24
6.240000e+02 3.066867e-24
6.250000e+02 3.558124e-24
6.260000e+02 4.126217e-24
6.270000e+02 4.782863e-24
6.280000e+02 5.541562e-24
6.290000e+02 6.417742e-24
6.300000e+02 7.428679e-24
6.310000e+02 8.462189e-24
6.320000e+02 9.941904e-24
6.330000e+02 1.147527e-23
6.340000e+02 1.328281e-23
6.350000e+02 1.533728e-23
6.360000e+02 1.771296e-23
6.370000e+02 2.044465e-23
6.380000e+02 2.358536e-23
6.390000e+02 2.719688e-23
6.400000e+02 3.134822e-23
6.410000e+02 3.611813e-23
6.420000e+02 4.159648e-23
6.430000e+02 4.788593e-23
6.440000e+02 5.510362e-23
6.450000e+02 6.338205e-23
6.460000e+02 7.287696e-23
6.470000e+02 8.375870e-23
6.480000e+02 9.622614e-23
6.490000e+02 1.105051e-22
6.500000e+02 1.268333e-22
6.510000e+02 1.455570e-22
6.520000e+02 1.669575e-22
6.530000e+02 1.914261e-22
6.540000e+02 2.193969e-22
6.550000e+02 2.513538e-22
6.560000e+02 2.878530e-22
6.570000e+02 3.294644e-22
6.580000e+02 3.770822e-22
6.590000e+02 4.313380e-22
6.600000e+02 4.931874e-22
6.610000e+02 5.637447e-22
6.620000e+02 6.441197e-22
6.630000e+02 7.356757e-22
6.640000e+02 8.399293e-22
6.650000e+02 9.585832e-22
6.660000e+02 1.093624e-21
6.670000e+02 1.247204e-21
6.680000e+02 1.421835e-21
6.690000e+02 1.620316e-21
6.700000e+02 1.845839e-21
6.710000e+02 2.101969e-21
6.720000e+02 2.392771e-21
6.730000e+02 2.722819e-21
6.740000e+02 3.097276e-21
6.750000e+02 3.521968e-21
6.760000e+02 4.003465e-21
6.770000e+02 4.549168e-21
6.780000e+02 5.167426e-21
6.790000e+02 5.867638e-21
6.800000e+02 6.660396e-21
6.810000e+02 7.557618e-21
6.820000e+02 8.572719e-21
6.830000e+02 9.720803e-21
6.840000e+02 1.101883e-20
6.850000e+02 1.248548e-20
6.860000e+02 1.414355e-20
6.870000e+02 1.601570e-20
6.880000e+02 1.812951e-20
6.890000e+02 2.051538e-20
6.900000e+02 2.320744e-20
6.910000e+02 2.624397e-20
6.920000e+02 2.966790e-20
6.930000e+02 3.352741e-20
6.940000e+02 3.787647e-20
6.950000e+02 4.277560e-20
6.960000e+02 4.829257e-20
6.970000e+02 5.449962e-20
6.980000e+02 6.149273e-20
6.990000e+02 6.935603e-20
7.000000e+02 7.820014e-20
7.010000e+02 8.814310e-20
7.020000e+02 9.931852e-20
7.030000e+02 1.118694e-19
7.040000e+02 1.259794e-19
7.050000e+02 1.418169e-19
7.060000e+02 1.595918e-19
7.070000e+02 1.795461e-19
7.080000e+02 2.019283e-19
7.090000e+02 2.270189e-19
7.100000e+02 2.551721e-19
7.110000e+02 2.867148e-19
7.120000e+02 3.220578e-19
7.130000e+02 3.616469e-19
7.140000e+02 4.059813e-19
7.150000e+02 4.556041e-19
7.160000e+02 5.111494e-19
7.170000e+02 5.732780e-19
7.180000e+02 6.427512e-19
7.190000e+02 7.204977e-19
7.200000e+02 8.073640e-19
7.210000e+02 9.044359e-19
7.220000e+02 1.012880e-18
7.230000e+02 1.133992e-18
7.240000e+02 1.269215e-18
7.250000e+02 1.420149e-18
7.260000e+02 1.588475e-18
7.270000e+02 1.776449e-18
7.280000e+02 1.985989e-18
7.290000e+02 2.219591e-18
7.300000e+02 2.479970e-18
7.310000e+02 2.770096e-18
7.320000e+02 3.093285e-18
7.330000e+02 3.453205e-18
7.340000e+02 3.853916e-18
7.350000e+02 4.299918e-18
7.360000e+02 4.796056e-18
7.370000e+02 5.348259e-18
7.380000e+02 5.962219e-18
7.390000e+02 6.644818e-18
7.400000e+02 7.403346e-18
7.410000e+02 8.246629e-18
7.420000e+02 9.182970e-18
7.430000e+02 1.022336e-17
7.440000e+02 1.137824e-17
7.450000e+02 1.266017e-17
7.460000e+02 1.408273e-17
7.470000e+02 1.566094e-17
7.480000e+02 1.741136e-17
7.490000e+02 1.935227e-17
7.500000e+02 2.150383e-17
7.510000e+02 2.388833e-17
7.520000e+02 2.653021e-17
7.530000e+02 2.945652e-17
7.540000e+02 3.269707e-17
7.550000e+02 3.628466e-17
7.560000e+02 4.025544e-17
7.570000e+02 4.464037e-17
7.580000e+02 4.950969e-17
7.590000e+02 5.488413e-17
7.600000e+02 6.082920e-17
7.610000e+02 6.739919e-17
7.620000e+02 7.466046e-17
7.630000e+02 8.268272e-17
7.640000e+02 9.154389e-17
7.650000e+02 1.013282e-16
7.660000e+02 1.121324e-16
7.670000e+02 1.240564e-16
7.680000e+02 1.372094e-16
7.690000e+02 1.498164e-16
7.700000e+02 1.677415e-16
7.710000e+02 1.853956e-16
7.720000e+02 2.048577e-16
7.730000e+02 2.263074e-16
7.740000e+02 2.499421e-16
7.750000e+02 2.759782e-16
7.760000e+02 3.042940e-16
7.770000e+02 3.362260e-16
7.780000e+02 3.709831e-16
7.790000e+02 4.092344e-16
7.800000e+02 4.513223e-16
7.810000e+02 4.976210e-16
7.820000e+02 5.485391e-16
7.830000e+02 6.045249e-16
7.840000e+02 6.660683e-16
7.850000e+02 7.337053e-16
7.860000e+02 8.080122e-16
7.870000e+02 8.897271e-16
7.880000e+02 9.793923e-16
7.890000e+02 1.077847e-15
7.900000e+02 1.185924e-15
7.910000e+02 1.304538e-15
7.920000e+02 1.434689e-15
7.930000e+02 1.577465e-15
7.940000e+02 1.734055e-15
7.950000e+02 1.905758e-15
7.960000e+02 2.093991e-15
7.970000e+02 2.300299e-15
7.980000e+02 2.526368e-15
7.990000e+02 2.774028e-15
8.000000e+02 3.045305e-15
8.010000e+02 3.342319e-15
8.020000e+02 3.667584e-15
8.030000e+02 4.023565e-15
8.040000e+02 4.413131e-15
8.050000e+02 4.839356e-15
8.060000e+02 5.305591e-15
8.070000e+02 5.815480e-15
8.080000e+02 6.373007e-15
8.090000e+02 6.982460e-15
8.100000e+02 7.648551e-15
8.110000e+02 8.376387e-15
8.120000e+02 9.171508e-15
8.130000e+02 1.004000e-14
8.140000e+02 1.098839e-14
8.150000e+02 1.202381e-14
8.160000e+02 1.315403e-14
8.170000e+02 1.438726e-14
8.180000e+02 1.573325e-14
8.190000e+02 1.720134e-14
8.200000e+02 1.880250e-14
8.210000e+02 2.054844e-14
8.220000e+02 2.245186e-14
8.230000e+02 2.452654e-14
8.240000e+02 2.678744e-14
8.250000e+02 2.925082e-14
8.260000e+02 3.193414e-14
8.270000e+02 3.485653e-14
8.280000e+02 3.803864e-14
8.290000e+02 4.150286e-14
8.300000e+02 4.527345e-14
8.310000e+02 4.937669e-14
8.320000e+02 5.384104e-14
8.330000e+02 5.869732e-14
8.340000e+02 6.397889e-14
8.350000e+02 6.961350e-14
8.360000e+02 7.596394e-14
8.370000e+02 8.275166e-14
8.380000e+02 9.011055e-14
8.390000e+02 9.813910e-14
8.400000e+02 1.068437e-13
8.410000e+02 1.162976e-13
8.420000e+02 1.265570e-13
8.430000e+02 1.377089e-13
8.440000e+02 1.498069e-13
8.450000e+02 1.629364e-13
8.460000e+02 1.771827e-13
8.470000e+02 1.926379e-13
8.480000e+02 2.094013e-13
8.490000e+02 2.275803e-13
8.500000e+02 2.472908e-13
8.510000e+02 2.686578e-13
8.520000e+02 2.918139e-13
8.530000e+02 3.169114e-13
8.540000e+02 3.441081e-13
8.550000e+02 3.735609e-13
8.560000e+02 4.054585e-13
8.570000e+02 4.400005e-13
8.580000e+02 4.753054e-13
8.590000e+02 5.178755e-13
8.600000e+02 5.616835e-13
8.610000e+02 6.090862e-13
8.620000e+02 6.603690e-13
8.630000e+02 7.158328e-13
8.640000e+02 7.758289e-13
8.650000e+02 8.406217e-13
8.660000e+02 9.108197e-13
8.670000e+02 9.866171e-13
8.680000e+02 1.068531e-12
8.690000e+02 1.157040e-12
8.700000e+02 1.252658e-12
8.710000e+02 1.355938e-12
8.720000e+02 1.467474e-12
8.730000e+02 1.587904e-12
8.740000e+02 1.717918e-12
8.750000e+02 1.858252e-12
8.760000e+02 2.009698e-12
8.770000e+02 2.173069e-12
8.780000e+02 2.349400e-12
8.790000e+02 2.539554e-12
8.800000e+02 2.744626e-12
8.810000e+02 2.965748e-12
8.820000e+02 3.204136e-12
8.830000e+02 3.461078e-12
8.840000e+02 3.738025e-12
8.850000e+02 4.036428e-12
8.860000e+02 4.357915e-12
8.870000e+02 4.704214e-12
8.880000e+02 5.077176e-12
8.890000e+02 5.478793e-12
8.900000e+02 5.911191e-12
8.910000e+02 6.376651e-12
8.920000e+02 6.872982e-12
8.930000e+02 7.416716e-12
8.940000e+02 7.996749e-12
8.950000e+02 8.620726e-12
8.960000e+02 9.291866e-12
8.970000e+02 1.001362e-11
8.980000e+02 1.078967e-11
8.990000e+02 1.162398e-11
9.000000e+02 1.252076e-11
9.010000e+02 1.348456e-11
9.020000e+02 1.452020e-11
9.030000e+02 1.563273e-11
9.040000e+02 1.682810e-11
9.050000e+02 1.810879e-11
9.060000e+02 1.949040e-11
9.070000e+02 2.096979e-11
9.080000e+02 2.255954e-11
9.090000e+02 2.426509e-11
9.100000e+02 2.609550e-11
9.110000e+02 2.806040e-11
9.120000e+02 3.017754e-11
9.130000e+02 2.798559e-11
9.140000e+02 1.891749e-10
9.150000e+02 7.046742e-04
9.160000e+02 1.382018e-03
9.170000e+02 1.445215e-03
9.180000e+02 1.497635e-03
9.190000e+02 1.585630e-03
9.200000e+02 1.658656e-03
9.210000e+02 5.092105e-11
9.220000e+02 1.802599e-03
9.230000e+02 1.839502e-03
9.240000e+02 1.845649e-03
9.250000e+02 1.942727e-03
9.260000e+02 2.096614e-03
9.270000e+02 2.227810e-03
9.280000e+02 2.345212e-03
9.290000e+02 9.649338e-04
9.300000e+02 2.259705e-03
9.310000e+02 1.592765e-03
9.320000e+02 2.786688e-03
9.330000e+02 2.899767e-03
9.340000e+02 2.936525e-03
9.350000e+02 6.895862e-07
9.360000e+02 1.325548e-03
9.370000e+02 1.731078e-07
9.380000e+02 1.720803e-05
9.390000e+02 2.513403e-03
9.400000e+02 3.857169e-03
9.410000e+02 3.504741e-06
9.420000e+02 4.190290e-03
9.430000e+02 3.347960e-03
9.440000e+02 2.735177e-03
9.450000e+02 4.708307e-03
9.460000e+02 4.802852e-03
9.470000e+02 5.194452e-05
9.480000e+02 8.954143e-05
9.490000e+02 5.162304e-03
9.500000e+02 1.927838e-07
9.510000e+02 5.665040e-03
9.520000e+02 6.198168e-03
9.530000e+02 1.913210e-03
9.540000e+02 2.519732e-04
9.550000e+02 5.725382e-03
9.560000e+02 2.663699e-05
9.570000e+02 1.904927e-04
9.580000e+02 4.857918e-05
9.590000e+02 8.921482e-03
9.600000e+02 7.031485e-07
9.610000e+02 9.202968e-03
9.620000e+02 9.382725e-03
9.630000e+02 7.237107e-03
9.640000e+02 3.632158e-08
9.650000e+02 6.706342e-04
9.660000e+02 9.755701e-03
9.670000e+02 4.839316e-03
9.680000e+02 3.118516e-03
9.690000e+02 1.186202e-02
9.700000e+02 1.284760e-02
9.710000e+02 5.726269e-03
9.720000e+02 2.602306e-03
9.730000e+02 6.002373e-03
9.740000e+02 1.306744e-02
9.750000e+02 1.265843e-02
9.760000e+02 1.806389e-02
9.770000e+02 1.897020e-02
9.780000e+02 1.852020e-02
9.790000e+02 2.116687e-02
9.800000e+02 2.198631e-02
9.810000e+02 2.168322e-02
9.820000e+02 1.754701e-02
9.830000e+02 2.506522e-02
9.840000e+02 2.407384e-04
9.850000e+02 1.091390e-02
9.860000e+02 2.101639e-02
9.870000e+02 2.997377e-02
9.880000e+02 1.176458e-03
9.890000e+02 2.421928e-02
9.900000e+02 2.280458e-05
9.910000e+02 1.073500e-02
9.920000e+02 1.033857e-04
9.930000e+02 2.043856e-02
9.940000e+02 4.582107e-07
9.950000e+02 3.306505e-04
9.960000e+02 4.562903e-03
9.970000e+02 3.013760e-06
9.980000e+02 4.455591e-02
9.990000e+02 5.970669e-03
1.000000e+03 4.203041e-02
1.001000e+03 5.654539e-02
1.002000e+03 5.896018e-02
1.003000e+03 3.531532e-02
1.004000e+03 2.615333e-03
1.005000e+03 4.884914e-02
1.006000e+03 7.014515e-02
1.007000e+03 7.252885e-02
1.008000e+03 7.377549e-02
1.009000e+03 3.847158e-02
1.010000e+03 8.267864e-02
1.011000e+03 8.672739e-02
1.012000e+03 9.004454e-02
1.013000e+03 9.380706e-02
1.014000e+03 2.571195e-04
1.015000e+03 2.144851e-03
1.016000e+03 6.363276e-02
1.017000e+03 2.674758e-04
1.018000e+03 6.891616e-02
1.019000e+03 3.171422e-03
1.020000e+03 1.194660e-01
1.021000e+03 2.967715e-04
1.022000e+03 2.341441e-02
1.023000e+03 8.130834e-03
1.024000e+03 4.803961e-03
1.025000e+03 1.593599e-04
1.026000e+03 1.723269e-04
1.027000e+03 1.210096e-02
1.028000e+03 2.335012e-05
1.029000e+03 4.690439e-04
1.030000e+03 1.042689e-01
1.031000e+03 1.655698e-01
1.032000e+03 1.028123e-01
1.033000e+03 4.045963e-04
1.034000e+03 1.929918e-01
1.035000e+03 9.372830e-06
1.036000e+03 1.015931e-03
1.037000e+03 2.473673e-01
1.038000e+03 2.628624e-01
1.039000e+03 2.512939e-01
1.040000e+03 2.841043e-01
1.041000e+03 2.202296e-01
1.042000e+03 3.098218e-01
1.043000e+03 1.770526e-01
1.044000e+03 3.365457e-01
1.045000e+03 3.434123e-01
1.046000e+03 3.603955e-01
1.047000e+03 3.457861e-01
1.048000e+03 7.186010e-02
1.049000e+03 2.847987e-01
1.050000e+03 3.247988e-01
1.051000e+03 2.708091e-01
1.052000e+03 4.576774e-01
1.053000e+03 4.776011e-01
1.054000e+03 1.572311e-03
1.055000e+03 6.458738e-02
1.056000e+03 5.413872e-01
1.057000e+03 5.291234e-01
1.058000e+03 4.346780e-01
1.059000e+03 3.179897e-01
1.060000e+03 7.965571e-02
1.061000e+03 6.483184e-01
1.062000e+03 3.888752e-01
1.063000e+03 1.129376e-04
1.064000e+03 1.144409e-05
1.065000e+03 3.083408e-03
1.066000e+03 3.746390e-03
1.067000e+03 9.200066e-02
1.068000e+03 8.634501e-01
1.069000e+03 5.305147e-02
1.070000e+03 8.570288e-01
1.071000e+03 9.658396e-01
1.072000e+03 1.003504e+00
1.073000e+03 9.429336e-03
1.074000e+03 1.020473e+00
1.075000e+03 1.019736e+00
1.076000e+03 7.553891e-01
1.077000e+03 9.998083e-04
1.078000e+03 7.793756e-01
1.079000e+03 1.141007e+00
1.080000e+03 1.100555e+00
1.081000e+03 1.382711e+00
1.082000e+03 1.387268e+00
1.083000e+03 1.342363e+00
1.084000e+03 1.349737e+00
1.085000e+03 1.782503e-01
1.086000e+03 1.661488e+00
1.087000e+03 6.632774e-01
1.088000e+03 1.727383e+00
1.089000e+03 1.833667e+00
1.090000e+03 1.473120e+00
1.091000e+03 1.417753e+00
1.092000e+03 7.224132e-01
1.093000e+03 1.994296e+00
1.094000e+03 2.024117e+00
1.095000e+03 2.211086e+00
1.096000e+03 7.575357e-02
1.097000e+03 1.235340e+00
1.098000e+03 7.805576e-01
1.099000e+03 2.162544e+00
1.100000e+03 1.260515e-01
1.101000e+03 5.393422e-01
1.102000e+03 2.597353e+00
1.103000e+03 4.138105e+00
1.104000e+03 3.723184e+00
1.105000e+03 2.933718e+00
1.106000e+03 4.752335e+00
1.107000e+03 2.720923e-01
1.108000e+03 4.876074e+00
1.109000e+03 1.898556e+00
1.110000e+03 3.293200e+00
1.111000e+03 4.187562e+00
1.112000e+03 5.393271e+00
1.113000e+03 5.001119e+00
1.114000e+03 2.594952e+00
1.115000e+03 3.106537e+00
1.116000e+03 2.356745e+00
1.117000e+03 3.541047e+00
1.118000e+03 2.724205e+00
1.119000e+03 6.273588e+00
1.120000e+03 2.919897e+00
1.121000e+03 6.541700e+00
1.122000e+03 2.976613e-01
1.123000e+03 4.474378e+00
1.124000e+03 6.958479e+00
1.125000e+03 5.829223e+00
1.126000e+03 7.231771e+00
1.127000e+03 7.114242e+00
1.128000e+03 4.948512e+00
1.129000e+03 7.335548e+00
1.130000e+03 5.372555e+00
1.131000e+03 7.191736e+00
1.132000e+03 1.645641e-01
1.133000e+03 6.094585e+00
1.134000e+03 6.740622e+00
1.135000e+03 4.791260e-03
1.136000e+03 7.325852e+00
1.137000e+03 8.659290e+00
1.138000e+03 8.594910e+00
1.139000e+03 8.956687e+00
1.140000e+03 2.591241e+00
1.141000e+03 9.280141e+00
1.142000e+03 9.439785e+00
1.143000e+03 8.616611e+00
1.144000e+03 9.167892e+00
1.145000e+03 1.547261e+00
1.146000e+03 1.009391e+01
1.147000e+03 1.013973e+01
1.148000e+03 7.357507e+00
1.149000e+03 1.048391e+01
1.150000e+03 1.047214e+01
1.151000e+03 1.092026e+01
1.152000e+03 1.116176e+01
1.153000e+03 7.791220e+00
1.154000e+03 1.100869e+01
1.155000e+03 1.156769e+01
1.156000e+03 1.490719e+00
1.157000e+03 1.167741e+01
1.158000e+03 3.525304e+00
1.159000e+03 1.211119e+01
1.160000e+03 1.250585e+01
1.161000e+03 1.286976e+01
1.162000e+03 4.714930e+00
1.163000e+03 1.247346e+01
1.164000e+03 9.642601e-03
1.165000e+03 1.373861e+01
1.166000e+03 1.402766e+01
1.167000e+03 1.433815e+01
1.168000e+03 1.469355e+01
1.169000e+03 1.335268e+01
1.170000e+03 1.513088e+01
1.171000e+03 1.560435e+01
1.172000e+03 1.588292e+01
1.173000e+03 1.632271e+01
1.174000e+03 7.092178e+00
1.175000e+03 1.132774e-02
1.176000e+03 3.067017e-03
1.177000e+03 1.776010e+01
1.178000e+03 1.800437e+01
1.179000e+03 1.843340e+01
1.180000e+03 1.715760e+01
1.181000e+03 1.893465e+01
1.182000e+03 1.943333e+01
1.183000e+03 1.985102e+01
1.184000e+03 1.986097e+01
1.185000e+03 2.068128e+01
1.186000e+03 1.548216e+01
1.187000e+03 2.102212e+01
1.188000e+03 2.075674e+01
1.189000e+03 7.893077e+00
1.190000e+03 1.760463e+01
1.191000e+03 2.245962e+01
1.192000e+03 2.250015e+01
1.193000e+03 1.684124e+00
1.194000e+03 1.006206e+01
1.195000e+03 2.253715e+01
1.196000e+03 2.303690e+01
1.197000e+03 4.672216e+01
1.198000e+03 3.999868e+01
1.199000e+03 4.330233e+01
1.200000e+03 3.635632e+01
1.201000e+03 3.982979e+01
1.202000e+03 3.838572e+01
1.203000e+03 5.497362e+01
1.204000e+03 4.466851e+01
1.205000e+03 4.269450e+01
1.206000e+03 4.025676e+01
1.207000e+03 7.410736e-01
1.208000e+03 2.406045e+01
1.209000e+03 1.552351e+01
1.210000e+03 1.673603e-02
1.211000e+03 5.838919e+00
1.212000e+03 2.519428e+00
1.213000e+03 9.741267e-01
1.214000e+03 2.466292e-01
1.215000e+03 2.551488e-02
1.216000e+03 5.418424e-03
1.217000e+03 1.444401e-01
1.218000e+03 7.475603e-01
1.219000e+03 2.340509e+00
1.220000e+03 5.805318e+00
1.221000e+03 1.077694e+01
1.222000e+03 1.967687e+01
1.223000e+03 2.825421e+01
1.224000e+03 3.735630e+01
1.225000e+03 4.719648e+01
1.226000e+03 6.677976e+01
1.227000e+03 8.011424e+01
1.228000e+03 9.659914e+01
1.229000e+03 1.122684e+02
1.230000e+03 9.934540e-01
1.231000e+03 1.029006e+02
1.232000e+03 1.502387e+02
1.233000e+03 1.655568e+02
1.234000e+03 9.754742e+01
1.235000e+03 1.894706e+02
1.236000e+03 1.928198e+02
1.237000e+03 2.108314e+02
1.238000e+03 2.210465e+02
1.239000e+03 2.246596e+02
1.240000e+03 2.001347e+01
1.241000e+03 2.284929e+02
1.242000e+03 2.544119e+02
1.243000e+03 2.664650e+02
1.244000e+03 2.632115e+02
1.245000e+03 2.120835e+02
1.246000e+03 2.910101e+02
1.247000e+03 2.945639e+02
1.248000e+03 6.035214e+01
1.249000e+03 3.054249e+02
1.250000e+03 2.665810e+02
1.251000e+03 3.362940e+02
1.252000e+03 3.177571e+02
1.253000e+03 3.523146e+02
1.254000e+03 3.499457e+02
1.255000e+03 1.357590e+02
1.256000e+03 3.586458e+02
1.257000e+03 2.810227e+02
1.258000e+03 3.320979e+02
1.259000e+03 4.029670e+02
1.260000e+03 4.048605e+02
1.261000e+03 7.390457e+00
1.262000e+03 4.004555e+02
1.263000e+03 2.823541e+02
1.264000e+03 4.191221e+02
1.265000e+03 3.748627e-01
1.266000e+03 4.693618e+02
1.267000e+03 4.763764e+02
