# wavelength_A flux
5.000000e+02 4.562395e-37
5.010000e+02 5.813451e-37
5.020000e+02 7.400447e-37
5.030000e+02 9.411685e-37
5.040000e+02 1.195843e-36
5.050000e+02 4.429670e-36
5.060000e+02 5.589964e-36
5.070000e+02 7.047924e-36
5.080000e+02 8.878310e-36
5.090000e+02 1.117445e-35
5.100000e+02 1.405180e-35
5.110000e+02 1.765498e-35
5.120000e+02 2.216292e-35
5.130000e+02 2.779794e-35
5.140000e+02 3.483924e-35
5.150000e+02 4.362115e-35
5.160000e+02 5.457490e-35
5.170000e+02 6.821263e-35
5.180000e+02 8.520411e-35
5.190000e+02 1.063289e-34
5.200000e+02 1.325802e-34
5.210000e+02 1.651640e-34
5.220000e+02 2.046591e-34
5.230000e+02 2.557020e-34
5.240000e+02 3.179254e-34
5.250000e+02 3.948469e-34
5.260000e+02 4.899657e-34
5.270000e+02 6.075129e-34
5.280000e+02 7.526674e-34
5.290000e+02 9.311002e-34
5.300000e+02 1.152459e-33
5.310000e+02 1.424582e-33
5.320000e+02 1.759565e-33
5.330000e+02 2.171652e-33
5.340000e+02 2.678027e-33
5.350000e+02 3.299839e-33
5.360000e+02 4.061847e-33
5.370000e+02 2.892470e-33
5.380000e+02 6.144355e-33
5.390000e+02 7.551711e-33
5.400000e+02 9.272604e-33
5.410000e+02 1.136576e-32
5.420000e+02 1.394592e-32
5.430000e+02 1.708412e-32
5.440000e+02 2.091339e-32
5.450000e+02 2.558262e-32
5.460000e+02 3.125483e-32
5.470000e+02 3.819967e-32
5.480000e+02 4.662907e-32
5.490000e+02 5.687882e-32
5.500000e+02 6.933323e-32
5.510000e+02 8.445622e-32
5.520000e+02 1.028070e-31
5.530000e+02 1.250623e-31
5.540000e+02 1.520280e-31
5.550000e+02 1.846826e-31
5.560000e+02 2.242001e-31
5.570000e+02 2.719910e-31
5.580000e+02 3.297510e-31
5.590000e+02 3.995095e-31
5.600000e+02 4.837061e-31
5.610000e+02 5.852630e-31
5.620000e+02 7.076804e-31
5.630000e+02 8.551481e-31
5.640000e+02 1.032678e-30
5.650000e+02 1.246254e-30
5.660000e+02 1.503104e-30
5.670000e+02 1.811668e-30
5.680000e+02 2.182208e-30
5.690000e+02 2.626875e-30
5.700000e+02 3.160179e-30
5.710000e+02 3.799384e-30
5.720000e+02 4.565053e-30
5.730000e+02 5.481646e-30
5.740000e+02 6.578245e-30
5.750000e+02 7.895039e-30
5.760000e+02 9.404721e-30
5.770000e+02 1.133514e-29
5.780000e+02 1.356979e-29
5.790000e+02 1.623556e-29
5.800000e+02 1.941267e-29
5.810000e+02 2.319714e-29
5.820000e+02 2.770064e-29
5.830000e+02 3.304446e-29
5.840000e+02 3.890866e-29
5.850000e+02 4.687529e-29
5.860000e+02 5.601844e-29
5.870000e+02 6.672809e-29
5.880000e+02 7.943375e-29
5.890000e+02 9.448857e-29
5.900000e+02 1.123397e-28
5.910000e+02 1.334805e-28
5.920000e+02 1.585192e-28
5.930000e+02 1.881417e-28
5.940000e+02 2.231764e-28
5.950000e+02 2.645895e-28
5.960000e+02 3.135159e-28
5.970000e+02 3.712877e-28
5.980000e+02 4.394706e-28
5.990000e+02 5.198911e-28
6.000000e+02 6.146990e-28
6.010000e+02 7.257815e-28
6.020000e+02 8.579686e-28
6.030000e+02 1.012850e-27
6.040000e+02 1.195026e-27
6.050000e+02 1.409233e-27
6.060000e+02 1.660975e-27
6.070000e+02 1.956677e-27
6.080000e+02 2.303840e-27
6.090000e+02 2.711211e-27
6.100000e+02 3.188973e-27
6.110000e+02 3.749076e-27
6.120000e+02 4.405308e-27
6.130000e+02 5.173813e-27
6.140000e+02 6.073357e-27
6.150000e+02 7.125994e-27
6.160000e+02 8.356731e-27
6.170000e+02 9.795151e-27
6.180000e+02 1.147555e-26
6.190000e+02 1.343763e-26
6.200000e+02 1.572772e-26
6.210000e+02 1.839916e-26
6.220000e+02 2.151405e-26
6.230000e+02 2.514425e-26
6.240000e+02 2.937315e-26
6.250000e+02 3.429705e-26
6.260000e+02 4.002822e-26
6.270000e+02 4.669436e-26
6.280000e+02 5.444555e-26
6.290000e+02 6.345392e-26
6.300000e+02 7.391474e-26
6.310000e+02 8.442244e-26
6.320000e+02 1.001722e-25
6.330000e+02 1.163527e-25
6.340000e+02 1.355073e-25
6.350000e+02 1.574252e-25
6.360000e+02 1.829570e-25
6.370000e+02 2.124768e-25
6.380000e+02 2.466276e-25
6.390000e+02 2.861412e-25
6.400000e+02 3.318399e-25
6.410000e+02 3.846688e-25
6.420000e+02 4.457144e-25
6.430000e+02 5.162243e-25
6.440000e+02 5.976311e-25
6.450000e+02 6.915739e-25
6.460000e+02 7.999544e-25
6.470000e+02 9.249203e-25
6.480000e+02 1.068956e-24
6.490000e+02 1.234903e-24
6.500000e+02 1.425829e-24
6.510000e+02 1.646019e-24
6.520000e+02 1.899187e-24
6.530000e+02 2.190374e-24
6.540000e+02 2.525171e-24
6.550000e+02 2.909950e-24
6.560000e+02 3.352004e-24
6.570000e+02 3.859392e-24
6.580000e+02 4.442357e-24
6.590000e+02 5.111005e-24
6.600000e+02 5.877864e-24
6.610000e+02 6.757276e-24
6.620000e+02 7.765081e-24
6.630000e+02 8.919679e-24
6.640000e+02 1.024193e-23
6.650000e+02 1.175556e-23
6.660000e+02 1.348788e-23
6.670000e+02 1.546929e-23
6.680000e+02 1.773496e-23
6.690000e+02 2.032467e-23
6.700000e+02 2.328365e-23
6.710000e+02 2.666330e-23
6.720000e+02 3.052193e-23
6.730000e+02 3.492581e-23
6.740000e+02 3.995012e-23
6.750000e+02 4.568016e-23
6.760000e+02 5.221265e-23
6.770000e+02 5.965724e-23
6.780000e+02 6.813818e-23
6.790000e+02 7.779625e-23
6.800000e+02 8.879109e-23
6.810000e+02 1.013036e-22
6.820000e+02 1.155365e-22
6.830000e+02 1.317215e-22
6.840000e+02 1.501199e-22
6.850000e+02 1.710254e-22
6.860000e+02 1.947767e-22
6.870000e+02 2.217457e-22
6.880000e+02 2.523599e-22
6.890000e+02 2.870999e-22
6.900000e+02 3.265081e-22
6.910000e+02 3.711965e-22
6.920000e+02 4.218549e-22
6.930000e+02 4.792616e-22
6.940000e+02 5.442931e-22
6.950000e+02 6.179433e-22
6.960000e+02 7.013136e-22
6.970000e+02 7.956442e-22
6.980000e+02 9.023978e-22
6.990000e+02 1.023108e-21
7.000000e+02 1.159577e-21
7.010000e+02 1.313810e-21
7.020000e+02 1.488064e-21
7.030000e+02 1.684856e-21
7.040000e+02 1.907086e-21
7.050000e+02 2.157894e-21
7.060000e+02 2.440876e-21
7.070000e+02 2.760099e-21
7.080000e+02 3.120046e-21
7.090000e+02 3.525782e-21
7.100000e+02 3.983064e-21
7.110000e+02 4.498156e-21
7.120000e+02 5.078242e-21
7.130000e+02 5.731318e-21
7.140000e+02 6.466337e-21
7.150000e+02 7.293302e-21
7.160000e+02 8.223495e-21
7.170000e+02 9.269353e-21
7.180000e+02 1.044489e-20
7.190000e+02 1.176628e-20
7.200000e+02 1.325052e-20
7.210000e+02 1.491739e-20
7.220000e+02 1.678881e-20
7.230000e+02 1.888943e-20
7.240000e+02 2.124622e-20
7.250000e+02 2.388990e-20
7.260000e+02 2.685414e-20
7.270000e+02 3.017762e-20
7.280000e+02 3.390201e-20
7.290000e+02 3.807471e-20
7.300000e+02 4.274833e-20
7.310000e+02 4.798144e-20
7.320000e+02 5.383933e-20
7.330000e+02 6.039470e-20
7.340000e+02 6.772846e-20
7.350000e+02 7.593064e-20
7.360000e+02 8.509915e-20
7.370000e+02 9.535301e-20
7.380000e+02 1.068082e-19
7.390000e+02 1.196053e-19
7.400000e+02 1.338964e-19
7.410000e+02 1.498548e-19
7.420000e+02 1.676653e-19
7.430000e+02 1.875425e-19
7.440000e+02 2.097155e-19
7.450000e+02 2.344453e-19
7.460000e+02 2.620172e-19
7.470000e+02 2.927505e-19
7.480000e+02 3.269981e-19
7.490000e+02 3.651515e-19
7.500000e+02 4.076446e-19
7.510000e+02 4.549582e-19
7.520000e+02 5.076250e-19
7.530000e+02 5.662347e-19
7.540000e+02 6.314405e-19
7.550000e+02 7.039653e-19
7.560000e+02 7.846093e-19
7.570000e+02 8.742066e-19
7.580000e+02 9.738890e-19
7.590000e+02 1.084578e-18
7.600000e+02 1.207548e-18
7.610000e+02 1.344092e-18
7.620000e+02 1.495688e-18
7.630000e+02 1.663944e-18
7.640000e+02 1.850644e-18
7.650000e+02 2.057758e-18
7.660000e+02 2.287459e-18
7.670000e+02 2.542141e-18
7.680000e+02 2.824412e-18
7.690000e+02 3.085754e-18
7.700000e+02 3.483939e-18
7.710000e+02 3.867876e-18
7.720000e+02 4.293037e-18
7.730000e+02 4.763730e-18
7.740000e+02 5.284696e-18
7.750000e+02 5.861166e-18
7.760000e+02 6.496341e-18
7.770000e+02 7.204215e-18
7.780000e+02 7.984108e-18
7.790000e+02 8.846236e-18
7.800000e+02 9.799042e-18
7.810000e+02 1.085181e-17
7.820000e+02 1.201474e-17
7.830000e+02 1.329905e-17
7.840000e+02 1.471711e-17
7.850000e+02 1.628239e-17
7.860000e+02 1.800974e-17
7.870000e+02 1.991740e-17
7.880000e+02 2.201986e-17
7.890000e+02 2.433845e-17
7.900000e+02 2.689477e-17
7.910000e+02 2.971254e-17
7.920000e+02 3.281777e-17
7.930000e+02 3.623897e-17
7.940000e+02 4.000741e-17
7.950000e+02 4.415740e-17
7.960000e+02 4.872649e-17
7.970000e+02 5.375587e-17
7.980000e+02 5.929062e-17
7.990000e+02 6.538013e-17
8.000000e+02 7.207851e-17
8.010000e+02 7.944465e-17
8.020000e+02 8.754445e-17
8.030000e+02 9.644744e-17
8.040000e+02 1.062317e-16
8.050000e+02 1.169821e-16
8.060000e+02 1.287914e-16
8.070000e+02 1.417609e-16
8.080000e+02 1.560015e-16
8.090000e+02 1.716344e-16
8.100000e+02 1.887917e-16
8.110000e+02 2.076182e-16
8.120000e+02 2.282714e-16
8.130000e+02 2.509240e-16
8.140000e+02 2.757639e-16
8.150000e+02 3.029964e-16
8.160000e+02 3.328455e-16
8.170000e+02 3.655548e-16
8.180000e+02 4.013932e-16
8.190000e+02 4.406501e-16
8.200000e+02 4.836408e-16
8.210000e+02 5.307119e-16
8.220000e+02 5.822396e-16
8.230000e+02 6.386340e-16
8.240000e+02 7.003417e-16
8.250000e+02 7.678492e-16
8.260000e+02 8.416858e-16
8.270000e+02 9.224283e-16
8.280000e+02 1.010704e-15
8.290000e+02 1.107197e-15
8.300000e+02 1.212648e-15
8.310000e+02 1.327867e-15
8.320000e+02 1.453731e-15
8.330000e+02 1.591197e-15
8.340000e+02 1.741303e-15
8.350000e+02 1.901300e-15
8.360000e+02 2.084038e-15
8.370000e+02 2.279253e-15
8.380000e+02 2.492119e-15
8.390000e+02 2.724552e-15
8.400000e+02 2.977932e-15
8.410000e+02 3.254219e-15
8.420000e+02 3.555352e-15
8.430000e+02 3.883733e-15
8.440000e+02 4.241510e-15
8.450000e+02 4.631325e-15
8.460000e+02 5.055962e-15
8.470000e+02 5.518443e-15
8.480000e+02 6.022040e-15
8.490000e+02 6.570303e-15
8.500000e+02 7.167077e-15
8.510000e+02 7.816528e-15
8.520000e+02 8.523150e-15
8.530000e+02 9.291914e-15
8.540000e+02 1.012809e-14
8.550000e+02 1.103731e-14
8.560000e+02 1.202582e-14
8.570000e+02 1.310036e-14
8.580000e+02 1.417964e-14
8.590000e+02 1.553714e-14
8.600000e+02 1.691575e-14
8.610000e+02 1.839799e-14
8.620000e+02 2.003941e-14
8.630000e+02 2.180510e-14
8.640000e+02 2.372198e-14
8.650000e+02 2.580041e-14
8.660000e+02 2.806038e-14
8.670000e+02 3.051006e-14
8.680000e+02 3.316746e-14
8.690000e+02 3.604969e-14
8.700000e+02 3.917512e-14
8.710000e+02 4.256371e-14
8.720000e+02 4.623693e-14
8.730000e+02 5.021797e-14
8.740000e+02 5.453187e-14
8.750000e+02 5.920559e-14
8.760000e+02 6.426827e-14
8.770000e+02 6.975090e-14
8.780000e+02 7.568807e-14
8.790000e+02 8.211619e-14
8.800000e+02 8.907397e-14
8.810000e+02 9.660402e-14
8.820000e+02 1.047520e-13
8.830000e+02 1.135669e-13
8.840000e+02 1.231023e-13
8.850000e+02 1.334145e-13
8.860000e+02 1.445652e-13
8.870000e+02 1.566205e-13
8.880000e+02 1.696514e-13
8.890000e+02 1.837344e-13
8.900000e+02 1.989523e-13
8.910000e+02 2.153931e-13
8.920000e+02 2.331075e-13
8.930000e+02 2.523323e-13
8.940000e+02 2.730432e-13
8.950000e+02 2.954038e-13
8.960000e+02 3.195410e-13
8.970000e+02 3.455917e-13
8.980000e+02 3.737028e-13
8.990000e+02 4.040322e-13
9.000000e+02 4.367496e-13
9.010000e+02 4.720371e-13
9.020000e+02 5.100894e-13
9.030000e+02 5.511021e-13
9.040000e+02 5.953475e-13
9.050000e+02 6.428108e-13
9.060000e+02 6.943965e-13
9.070000e+02 7.497435e-13
9.080000e+02 8.093879e-13
9.090000e+02 8.736236e-13
9.100000e+02 9.428029e-13
9.110000e+02 1.017329e-12
9.120000e+02 1.097936e-12
9.130000e+02 1.003457e-12
9.140000e+02 1.091394e-11
9.150000e+02 1.289429e-04
9.160000e+02 1.973088e-04
9.170000e+02 2.080872e-04
9.180000e+02 2.155289e-04
9.190000e+02 2.286144e-04
9.200000e+02 2.392814e-04
9.210000e+02 1.950884e-12
9.220000e+02 2.604180e-04
9.230000e+02 2.648239e-04
9.240000e+02 2.647922e-04
9.250000e+02 2.142465e-04
9.260000e+02 3.025891e-04
9.270000e+02 7.223440e-05
9.280000e+02 3.393625e-04
9.290000e+02 2.651665e-04
9.300000e+02 3.536004e-04
9.310000e+02 1.259264e-04
9.320000e+02 4.043120e-04
9.330000e+02 4.215976e-04
9.340000e+02 4.362183e-04
9.350000e+02 3.441892e-08
9.360000e+02 9.096638e-05
9.370000e+02 8.988650e-09
9.380000e+02 4.317211e-06
9.390000e+02 2.482419e-04
9.400000e+02 5.576613e-04
9.410000e+02 2.658500e-07
9.420000e+02 6.062841e-04
9.430000e+02 4.331185e-04
9.440000e+02 4.572496e-04
9.450000e+02 6.808284e-04
9.460000e+02 6.768391e-04
9.470000e+02 1.672044e-06
9.480000e+02 1.749025e-05
9.490000e+02 7.362751e-04
9.500000e+02 1.300941e-08
9.510000e+02 8.001849e-04
9.520000e+02 8.790019e-04
9.530000e+02 8.229289e-05
9.540000e+02 3.783629e-06
9.550000e+02 6.377195e-04
9.560000e+02 6.782939e-06
9.570000e+02 1.221430e-05
9.580000e+02 5.362090e-07
9.590000e+02 1.295746e-03
9.600000e+02 3.969762e-08
9.610000e+02 1.320506e-03
9.620000e+02 1.250166e-03
9.630000e+02 6.462728e-04
9.640000e+02 1.059379e-08
9.650000e+02 9.822310e-06
9.660000e+02 1.072539e-03
9.670000e+02 2.347333e-04
9.680000e+02 1.034031e-04
9.690000e+02 1.636959e-03
9.700000e+02 1.741353e-03
9.710000e+02 3.040546e-04
9.720000e+02 1.005568e-04
9.730000e+02 7.766485e-04
9.740000e+02 1.776217e-03
9.750000e+02 1.436026e-03
9.760000e+02 2.641143e-03
9.770000e+02 2.741804e-03
9.780000e+02 2.574422e-03
9.790000e+02 3.126203e-03
9.800000e+02 3.251196e-03
9.810000e+02 2.955575e-03
9.820000e+02 1.747126e-03
9.830000e+02 3.726823e-03
9.840000e+02 1.736114e-05
9.850000e+02 1.472322e-03
9.860000e+02 2.458529e-03
9.870000e+02 4.493989e-03
9.880000e+02 1.641526e-05
9.890000e+02 3.750494e-03
9.900000e+02 8.602627e-06
9.910000e+02 7.190497e-04
9.920000e+02 1.880864e-06
9.930000e+02 2.872730e-03
9.940000e+02 2.561137e-08
9.950000e+02 3.559016e-05
9.960000e+02 1.053242e-04
9.970000e+02 2.670567e-07
9.980000e+02 6.503690e-03
9.990000e+02 3.795977e-04
1.000000e+03 6.245024e-03
1.001000e+03 8.920403e-03
1.002000e+03 9.320886e-03
1.003000e+03 3.056093e-03
1.004000e+03 3.072666e-05
1.005000e+03 6.316211e-03
1.006000e+03 1.121475e-02
1.007000e+03 1.171614e-02
1.008000e+03 1.181382e-02
1.009000e+03 2.925656e-03
1.010000e+03 1.329536e-02
1.011000e+03 1.405237e-02
1.012000e+03 1.455917e-02
1.013000e+03 1.519008e-02
1.014000e+03 5.587004e-06
1.015000e+03 3.516115e-05
1.016000e+03 6.674052e-03
1.017000e+03 5.055219e-06
1.018000e+03 5.645093e-03
1.019000e+03 4.332140e-05
1.020000e+03 1.970771e-02
1.021000e+03 2.779998e-05
1.022000e+03 2.260093e-03
1.023000e+03 1.625614e-04
1.024000e+03 1.516637e-03
1.025000e+03 3.972455e-06
1.026000e+03 1.427763e-05
1.027000e+03 2.459673e-03
1.028000e+03 1.525506e-06
1.029000e+03 9.963289e-06
1.030000e+03 1.812106e-02
1.031000e+03 2.547857e-02
1.032000e+03 1.552195e-02
1.033000e+03 2.727285e-05
1.034000e+03 2.944470e-02
1.035000e+03 6.109476e-07
1.036000e+03 2.464652e-05
1.037000e+03 4.243621e-02
1.038000e+03 4.500756e-02
1.039000e+03 4.313457e-02
1.040000e+03 4.936326e-02
1.041000e+03 3.925763e-02
1.042000e+03 5.410890e-02
1.043000e+03 2.783463e-02
1.044000e+03 5.918677e-02
1.045000e+03 5.958573e-02
1.046000e+03 6.227147e-02
1.047000e+03 5.620137e-02
1.048000e+03 2.806492e-03
1.049000e+03 5.283471e-02
1.050000e+03 4.394615e-02
1.051000e+03 2.808803e-02
1.052000e+03 8.106730e-02
1.053000e+03 8.535896e-02
1.054000e+03 3.916770e-05
1.055000e+03 3.084573e-02
1.056000e+03 9.574316e-02
1.057000e+03 9.037814e-02
1.058000e+03 4.999550e-02
1.059000e+03 3.065962e-02
1.060000e+03 2.576962e-03
1.061000e+03 1.146717e-01
1.062000e+03 3.076012e-02
1.063000e+03 1.329024e-05
1.064000e+03 9.238720e-07
1.065000e+03 7.086992e-05
1.066000e+03 9.026378e-04
1.067000e+03 7.385559e-03
1.068000e+03 1.572410e-01
1.069000e+03 1.627973e-03
1.070000e+03 1.404347e-01
1.071000e+03 1.757685e-01
1.072000e+03 1.834022e-01
1.073000e+03 2.105981e-04
1.074000e+03 1.761091e-01
1.075000e+03 1.703327e-01
1.076000e+03 1.668351e-01
1.077000e+03 7.542968e-05
1.078000e+03 7.214491e-02
1.079000e+03 1.753255e-01
1.080000e+03 1.740846e-01
1.081000e+03 2.534961e-01
1.082000e+03 2.533220e-01
1.083000e+03 2.446817e-01
1.084000e+03 2.387238e-01
1.085000e+03 4.695414e-02
1.086000e+03 3.085480e-01
1.087000e+03 4.613996e-02
1.088000e+03 3.235751e-01
1.089000e+03 3.355462e-01
1.090000e+03 2.009597e-01
1.091000e+03 2.228695e-01
1.092000e+03 1.581887e-01
1.093000e+03 3.733457e-01
1.094000e+03 3.630120e-01
1.095000e+03 4.131941e-01
1.096000e+03 4.921228e-03
1.097000e+03 3.458284e-01
1.098000e+03 2.662498e-01
1.099000e+03 3.423934e-01
1.100000e+03 4.347408e-03
1.101000e+03 2.112316e-02
1.102000e+03 3.446702e-01
1.103000e+03 5.944844e-01
1.104000e+03 5.901497e-01
1.105000e+03 5.592983e-01
1.106000e+03 5.901060e-01
1.107000e+03 8.391023e-03
1.108000e+03 6.745871e-01
1.109000e+03 2.311343e-01
1.110000e+03 5.484232e-01
1.111000e+03 6.912754e-01
1.112000e+03 7.239580e-01
1.113000e+03 6.031595e-01
1.114000e+03 4.981062e-01
1.115000e+03 2.656538e-01
1.116000e+03 1.387942e-01
1.117000e+03 6.882919e-01
1.118000e+03 3.208969e-01
1.119000e+03 8.205432e-01
1.120000e+03 1.948469e-01
1.121000e+03 8.785189e-01
1.122000e+03 1.513990e-01
1.123000e+03 8.344358e-01
1.124000e+03 9.343114e-01
1.125000e+03 8.447918e-01
1.126000e+03 9.746125e-01
1.127000e+03 9.736330e-01
1.128000e+03 7.176838e-01
1.129000e+03 9.907233e-01
1.130000e+03 9.370724e-01
1.131000e+03 9.317660e-01
1.132000e+03 4.427183e-02
1.133000e+03 7.724456e-01
1.134000e+03 1.048990e+00
1.135000e+03 3.359377e-03
1.136000e+03 9.389740e-01
1.137000e+03 1.183535e+00
1.138000e+03 1.166254e+00
1.139000e+03 1.230026e+00
1.140000e+03 7.351900e-01
1.141000e+03 1.275201e+00
1.142000e+03 1.278030e+00
1.143000e+03 1.144489e+00
1.144000e+03 1.239989e+00
1.145000e+03 6.823075e-02
1.146000e+03 1.390349e+00
1.147000e+03 1.413012e+00
1.148000e+03 7.804784e-01
1.149000e+03 1.421215e+00
1.150000e+03 1.456775e+00
1.151000e+03 1.522944e+00
1.152000e+03 1.550424e+00
1.153000e+03 1.318956e+00
1.154000e+03 1.532657e+00
1.155000e+03 1.606022e+00
1.156000e+03 8.636591e-01
1.157000e+03 1.611164e+00
1.158000e+03 1.109138e+00
1.159000e+03 1.735897e+00
1.160000e+03 1.742533e+00
1.161000e+03 1.802492e+00
1.162000e+03 8.988519e-01
1.163000e+03 1.701400e+00
1.164000e+03 8.894205e-04
1.165000e+03 1.927360e+00
1.166000e+03 1.968035e+00
1.167000e+03 2.010959e+00
1.168000e+03 2.067911e+00
1.169000e+03 2.015018e+00
1.170000e+03 2.118250e+00
1.171000e+03 2.192599e+00
1.172000e+03 2.230550e+00
1.173000e+03 2.297867e+00
1.174000e+03 4.886656e-01
1.175000e+03 1.011610e-03
1.176000e+03 2.591610e-04
1.177000e+03 2.507269e+00
1.178000e+03 2.542047e+00
1.179000e+03 2.602692e+00
1.180000e+03 2.453869e+00
1.181000e+03 2.662799e+00
1.182000e+03 2.743800e+00
1.183000e+03 2.799920e+00
1.184000e+03 2.822887e+00
1.185000e+03 2.926631e+00
1.186000e+03 1.856543e+00
1.187000e+03 2.969996e+00
1.188000e+03 2.916330e+00
1.189000e+03 2.102986e+00
1.190000e+03 3.059937e+00
1.191000e+03 3.208027e+00
1.192000e+03 3.211752e+00
1.193000e+03 8.027723e-01
1.194000e+03 2.436712e+00
1.195000e+03 3.279580e+00
1.196000e+03 3.318992e+00
1.197000e+03 6.348649e+00
1.198000e+03 4.848416e+00
1.199000e+03 6.025599e+00
1.200000e+03 5.003265e+00
1.201000e+03 5.595142e+00
1.202000e+03 5.369939e+00
1.203000e+03 7.399929e+00
1.204000e+03 5.902653e+00
1.205000e+03 5.956998e+00
1.206000e+03 5.664372e+00
1.207000e+03 1.078432e-01
1.208000e+03 3.509150e+00
1.209000e+03 2.303058e+00
1.210000e+03 1.543999e-03
1.211000e+03 8.284656e-01
1.212000e+03 3.425350e-01
1.213000e+03 1.233384e-01
1.214000e+03 2.968491e-02
1.215000e+03 2.766363e-03
1.216000e+03 5.477417e-04
1.217000e+03 1.709727e-02
1.218000e+03 9.372284e-02
1.219000e+03 3.072309e-01
1.220000e+03 8.068252e-01
1.221000e+03 1.536387e+00
1.222000e+03 2.927463e+00
1.223000e+03 4.233272e+00
1.224000e+03 5.230157e+00
1.225000e+03 5.876696e+00
1.226000e+03 9.492604e+00
1.227000e+03 1.129699e+01
1.228000e+03 1.297663e+01
1.229000e+03 1.505530e+01
1.230000e+03 3.348036e-01
1.231000e+03 1.216527e+01
1.232000e+03 1.931223e+01
1.233000e+03 2.102119e+01
1.234000e+03 1.324807e+01
1.235000e+03 2.364568e+01
1.236000e+03 2.367473e+01
1.237000e+03 2.597443e+01
1.238000e+03 2.708730e+01
1.239000e+03 2.735149e+01
1.240000e+03 1.860476e+00
1.241000e+03 2.703588e+01
1.242000e+03 3.101696e+01
1.243000e+03 3.203725e+01
1.244000e+03 3.269970e+01
1.245000e+03 2.963906e+01
1.246000e+03 3.455472e+01
1.247000e+03 3.509448e+01
1.248000e+03 8.893534e+00
1.249000e+03 3.757370e+01
1.250000e+03 3.121726e+01
1.251000e+03 3.998468e+01
1.252000e+03 3.788133e+01
1.253000e+03 4.194718e+01
1.254000e+03 4.159762e+01
1.255000e+03 1.736224e+01
1.256000e+03 4.436792e+01
1.257000e+03 3.079431e+01
1.258000e+03 4.050829e+01
1.259000e+03 4.858617e+01
1.260000e+03 4.975325e+01
1.261000e+03 8.322792e-01
1.262000e+03 5.218607e+01
1.263000e+03 3.648528e+01
1.264000e+03 5.336316e+01
1.265000e+03 1.966953e-01
1.266000e+03 5.764021e+01
1.267000e+03 5.857668e+01
