# wavelength_A flux
5.000000e+02 7.791220e-07
5.010000e+02 8.776565e-07
5.020000e+02 9.881649e-07
5.030000e+02 1.112042e-06
5.040000e+02 1.250836e-06
5.050000e+02 1.467709e-06
5.060000e+02 1.648917e-06
5.070000e+02 1.851614e-06
5.080000e+02 2.078244e-06
5.090000e+02 2.331694e-06
5.100000e+02 2.614641e-06
5.110000e+02 2.930535e-06
5.120000e+02 3.283085e-06
5.130000e+02 3.676357e-06
5.140000e+02 4.114718e-06
5.150000e+02 4.603352e-06
5.160000e+02 5.147826e-06
5.170000e+02 5.753605e-06
5.180000e+02 6.428760e-06
5.190000e+02 7.179417e-06
5.200000e+02 8.014184e-06
5.210000e+02 8.942058e-06
5.220000e+02 9.971162e-06
5.230000e+02 1.111800e-05
5.240000e+02 1.238903e-05
5.250000e+02 1.379991e-05
5.260000e+02 1.536457e-05
5.270000e+02 1.709938e-05
5.280000e+02 1.902205e-05
5.290000e+02 2.114325e-05
5.300000e+02 2.351073e-05
5.310000e+02 2.612071e-05
5.320000e+02 2.900970e-05
5.330000e+02 3.220421e-05
5.340000e+02 3.573663e-05
5.350000e+02 3.964038e-05
5.360000e+02 4.395236e-05
5.370000e+02 4.764177e-05
5.380000e+02 5.396962e-05
5.390000e+02 5.977244e-05
5.400000e+02 6.617040e-05
5.410000e+02 7.321500e-05
5.420000e+02 8.099702e-05
5.430000e+02 8.956376e-05
5.440000e+02 9.899645e-05
5.450000e+02 1.093807e-04
5.460000e+02 1.207675e-04
5.470000e+02 1.333740e-04
5.480000e+02 1.471968e-04
5.490000e+02 1.623921e-04
5.500000e+02 1.790890e-04
5.510000e+02 1.974296e-04
5.520000e+02 2.175682e-04
5.530000e+02 2.396731e-04
5.540000e+02 2.639281e-04
5.550000e+02 2.905325e-04
5.560000e+02 3.197035e-04
5.570000e+02 3.516774e-04
5.580000e+02 3.867113e-04
5.590000e+02 4.250846e-04
5.600000e+02 4.671009e-04
5.610000e+02 5.130906e-04
5.620000e+02 5.633892e-04
5.630000e+02 6.184294e-04
5.640000e+02 6.786123e-04
5.650000e+02 7.443969e-04
5.660000e+02 8.162806e-04
5.670000e+02 8.948016e-04
5.680000e+02 9.805247e-04
5.690000e+02 1.074122e-03
5.700000e+02 1.176259e-03
5.710000e+02 1.287684e-03
5.720000e+02 1.409197e-03
5.730000e+02 1.541669e-03
5.740000e+02 1.686044e-03
5.750000e+02 1.843391e-03
5.760000e+02 2.014348e-03
5.770000e+02 2.201155e-03
5.780000e+02 2.404184e-03
5.790000e+02 2.625105e-03
5.800000e+02 2.865415e-03
5.810000e+02 3.126736e-03
5.820000e+02 3.410808e-03
5.830000e+02 3.719462e-03
5.840000e+02 4.052809e-03
5.850000e+02 4.418736e-03
5.860000e+02 4.814807e-03
5.870000e+02 5.244239e-03
5.880000e+02 5.710199e-03
5.890000e+02 6.215589e-03
5.900000e+02 6.763798e-03
5.910000e+02 7.357799e-03
5.920000e+02 8.001915e-03
5.930000e+02 8.699836e-03
5.940000e+02 9.455841e-03
5.950000e+02 1.027369e-02
5.960000e+02 1.116086e-02
5.970000e+02 1.212012e-02
5.980000e+02 1.315803e-02
5.990000e+02 1.428036e-02
6.000000e+02 1.549438e-02
6.010000e+02 1.680680e-02
6.020000e+02 1.822532e-02
6.030000e+02 1.975795e-02
6.040000e+02 2.141245e-02
6.050000e+02 2.320017e-02
6.060000e+02 2.513000e-02
6.070000e+02 2.721318e-02
6.080000e+02 2.946081e-02
6.090000e+02 3.188529e-02
6.100000e+02 3.449998e-02
6.110000e+02 3.731899e-02
6.120000e+02 4.035749e-02
6.130000e+02 4.363170e-02
6.140000e+02 4.715891e-02
6.150000e+02 5.095752e-02
6.160000e+02 5.504792e-02
6.170000e+02 5.944820e-02
6.180000e+02 6.418658e-02
6.190000e+02 6.928462e-02
6.200000e+02 7.476825e-02
6.210000e+02 8.066513e-02
6.220000e+02 8.700480e-02
6.230000e+02 9.381870e-02
6.240000e+02 1.011407e-01
6.250000e+02 1.090067e-01
6.260000e+02 1.174548e-01
6.270000e+02 1.265261e-01
6.280000e+02 1.362609e-01
6.290000e+02 1.467042e-01
6.300000e+02 1.579175e-01
6.310000e+02 1.699450e-01
6.320000e+02 1.828462e-01
6.330000e+02 1.966776e-01
6.340000e+02 2.115044e-01
6.350000e+02 2.273940e-01
6.360000e+02 2.437742e-01
6.370000e+02 2.626567e-01
6.380000e+02 2.821878e-01
6.390000e+02 3.030997e-01
6.400000e+02 3.254849e-01
6.410000e+02 3.494325e-01
6.420000e+02 3.750647e-01
6.430000e+02 4.024844e-01
6.440000e+02 4.318088e-01
6.450000e+02 4.631618e-01
6.460000e+02 4.966804e-01
6.470000e+02 5.325012e-01
6.480000e+02 5.707793e-01
6.490000e+02 6.116717e-01
6.500000e+02 6.553456e-01
6.510000e+02 7.019813e-01
6.520000e+02 7.517689e-01
6.530000e+02 8.049100e-01
6.540000e+02 8.615959e-01
6.550000e+02 9.220961e-01
6.560000e+02 9.866297e-01
6.570000e+02 1.055423e+00
6.580000e+02 1.128824e+00
6.590000e+02 1.207044e+00
6.600000e+02 1.290407e+00
6.610000e+02 1.379236e+00
6.620000e+02 1.473866e+00
6.630000e+02 1.574656e+00
6.640000e+02 1.681989e+00
6.650000e+02 1.796259e+00
6.660000e+02 1.917897e+00
6.670000e+02 2.047347e+00
6.680000e+02 2.185084e+00
6.690000e+02 2.331608e+00
6.700000e+02 2.487447e+00
6.710000e+02 2.653169e+00
6.720000e+02 2.828716e+00
6.730000e+02 3.016634e+00
6.740000e+02 3.215664e+00
6.750000e+02 3.427142e+00
6.760000e+02 3.651802e+00
6.770000e+02 3.890420e+00
6.780000e+02 4.143699e+00
6.790000e+02 4.412725e+00
6.800000e+02 4.698300e+00
6.810000e+02 5.001385e+00
6.820000e+02 5.322988e+00
6.830000e+02 5.664186e+00
6.840000e+02 6.026097e+00
6.850000e+02 6.409907e+00
6.860000e+02 6.816871e+00
6.870000e+02 7.248188e+00
6.880000e+02 7.705568e+00
6.890000e+02 8.190122e+00
6.900000e+02 8.703597e+00
6.910000e+02 9.247515e+00
6.920000e+02 9.823603e+00
6.930000e+02 1.043365e+01
6.940000e+02 1.107956e+01
6.950000e+02 1.176328e+01
6.960000e+02 1.248697e+01
6.970000e+02 1.325226e+01
6.980000e+02 1.406297e+01
6.990000e+02 1.492003e+01
7.000000e+02 1.582650e+01
7.010000e+02 1.678458e+01
7.020000e+02 1.779802e+01
7.030000e+02 1.886933e+01
7.040000e+02 2.000161e+01
7.050000e+02 2.119813e+01
7.060000e+02 2.246230e+01
7.070000e+02 2.379775e+01
7.080000e+02 2.520824e+01
7.090000e+02 2.669774e+01
7.100000e+02 2.827043e+01
7.110000e+02 2.993066e+01
7.120000e+02 3.168274e+01
7.130000e+02 3.353199e+01
7.140000e+02 3.548322e+01
7.150000e+02 3.754172e+01
7.160000e+02 3.971301e+01
7.170000e+02 4.200270e+01
7.180000e+02 4.441634e+01
7.190000e+02 4.696315e+01
7.200000e+02 4.964656e+01
7.210000e+02 5.247476e+01
7.220000e+02 5.545504e+01
7.230000e+02 5.859333e+01
7.240000e+02 6.190114e+01
7.250000e+02 6.538519e+01
7.260000e+02 6.905428e+01
7.270000e+02 7.291767e+01
7.280000e+02 7.698501e+01
7.290000e+02 8.126640e+01
7.300000e+02 8.577213e+01
7.310000e+02 9.051408e+01
7.320000e+02 9.550296e+01
7.330000e+02 1.007512e+02
7.340000e+02 1.062715e+02
7.350000e+02 1.120769e+02
7.360000e+02 1.181811e+02
7.370000e+02 1.245993e+02
7.380000e+02 1.313458e+02
7.390000e+02 1.384366e+02
7.400000e+02 1.458881e+02
7.410000e+02 1.537179e+02
7.420000e+02 1.619434e+02
7.430000e+02 1.705838e+02
7.440000e+02 1.796528e+02
7.450000e+02 1.891822e+02
7.460000e+02 1.991876e+02
7.470000e+02 2.096913e+02
7.480000e+02 2.207169e+02
7.490000e+02 2.322885e+02
7.500000e+02 2.444313e+02
7.510000e+02 2.571719e+02
7.520000e+02 2.705377e+02
7.530000e+02 2.845575e+02
7.540000e+02 2.992610e+02
7.550000e+02 3.146797e+02
7.560000e+02 3.308464e+02
7.570000e+02 3.477928e+02
7.580000e+02 3.655595e+02
7.590000e+02 3.841767e+02
7.600000e+02 4.036858e+02
7.610000e+02 4.241296e+02
7.620000e+02 4.455468e+02
7.630000e+02 4.679651e+02
7.640000e+02 4.914612e+02
7.650000e+02 5.160664e+02
7.660000e+02 5.418303e+02
7.670000e+02 5.688032e+02
7.680000e+02 5.970343e+02
7.690000e+02 6.265922e+02
7.700000e+02 6.575206e+02
7.710000e+02 6.898835e+02
7.720000e+02 7.237434e+02
7.730000e+02 7.591652e+02
7.740000e+02 7.962158e+02
7.750000e+02 8.349652e+02
7.760000e+02 8.754606e+02
7.770000e+02 9.178545e+02
7.780000e+02 9.621494e+02
7.790000e+02 1.008451e+03
7.800000e+02 1.056845e+03
7.810000e+02 1.107421e+03
7.820000e+02 1.160228e+03
7.830000e+02 1.215442e+03
7.840000e+02 1.273123e+03
7.850000e+02 1.333373e+03
7.860000e+02 1.396299e+03
7.870000e+02 1.462019e+03
7.880000e+02 1.530635e+03
7.890000e+02 1.602273e+03
7.900000e+02 1.677050e+03
7.910000e+02 1.755114e+03
7.920000e+02 1.836579e+03
7.930000e+02 1.921591e+03
7.940000e+02 2.010294e+03
7.950000e+02 2.102837e+03
7.960000e+02 2.199376e+03
7.970000e+02 2.300069e+03
7.980000e+02 2.405082e+03
7.990000e+02 2.514596e+03
8.000000e+02 2.628780e+03
8.010000e+02 2.747725e+03
8.020000e+02 2.871819e+03
8.030000e+02 3.001131e+03
8.040000e+02 3.135937e+03
8.050000e+02 3.276413e+03
8.060000e+02 3.422778e+03
8.070000e+02 3.575275e+03
8.080000e+02 3.734135e+03
8.090000e+02 3.899593e+03
8.100000e+02 4.071931e+03
8.110000e+02 4.251398e+03
8.120000e+02 4.438262e+03
8.130000e+02 4.632841e+03
8.140000e+02 4.835392e+03
8.150000e+02 5.046216e+03
8.160000e+02 5.265675e+03
8.170000e+02 5.494041e+03
8.180000e+02 5.731472e+03
8.190000e+02 5.978731e+03
8.200000e+02 6.235965e+03
8.210000e+02 6.503554e+03
8.220000e+02 6.781883e+03
8.230000e+02 7.071347e+03
8.240000e+02 7.372377e+03
8.250000e+02 7.685387e+03
8.260000e+02 8.010823e+03
8.270000e+02 8.349133e+03
8.280000e+02 8.700811e+03
8.290000e+02 9.066335e+03
8.300000e+02 9.446214e+03
8.310000e+02 9.840968e+03
8.320000e+02 1.025114e+04
8.330000e+02 1.067728e+04
8.340000e+02 1.111998e+04
8.350000e+02 1.157699e+04
8.360000e+02 1.205679e+04
8.370000e+02 1.255294e+04
8.380000e+02 1.306801e+04
8.390000e+02 1.360280e+04
8.400000e+02 1.415803e+04
8.410000e+02 1.473440e+04
8.420000e+02 1.533176e+04
8.430000e+02 1.595352e+04
8.440000e+02 1.659796e+04
8.450000e+02 1.726670e+04
8.460000e+02 1.796056e+04
8.470000e+02 1.868048e+04
8.480000e+02 1.942731e+04
8.490000e+02 2.020200e+04
8.500000e+02 2.100551e+04
8.510000e+02 2.183839e+04
8.520000e+02 2.270251e+04
8.530000e+02 2.359854e+04
8.540000e+02 2.452777e+04
8.550000e+02 2.549089e+04
8.560000e+02 2.648927e+04
8.570000e+02 2.752410e+04
8.580000e+02 2.859661e+04
8.590000e+02 2.970804e+04
8.600000e+02 3.085978e+04
8.610000e+02 3.205313e+04
8.620000e+02 3.328948e+04
8.630000e+02 3.457023e+04
8.640000e+02 3.589695e+04
8.650000e+02 3.727104e+04
8.660000e+02 3.869418e+04
8.670000e+02 4.016789e+04
8.680000e+02 4.169389e+04
8.690000e+02 4.327386e+04
8.700000e+02 4.490928e+04
8.710000e+02 4.660286e+04
8.720000e+02 4.835557e+04
8.730000e+02 5.016964e+04
8.740000e+02 5.204705e+04
8.750000e+02 5.398973e+04
8.760000e+02 5.600000e+04
8.770000e+02 5.807978e+04
8.780000e+02 6.023102e+04
8.790000e+02 6.245695e+04
8.800000e+02 6.475939e+04
8.810000e+02 6.714074e+04
8.820000e+02 6.960355e+04
8.830000e+02 7.215039e+04
8.840000e+02 7.478387e+04
8.850000e+02 7.750666e+04
8.860000e+02 8.032170e+04
8.870000e+02 8.323173e+04
8.880000e+02 8.623974e+04
8.890000e+02 8.934880e+04
8.900000e+02 9.256199e+04
8.910000e+02 9.588255e+04
8.920000e+02 9.899780e+04
8.930000e+02 1.028585e+05
8.940000e+02 1.065213e+05
8.950000e+02 1.103052e+05
8.960000e+02 1.142141e+05
8.970000e+02 1.182516e+05
8.980000e+02 1.224215e+05
8.990000e+02 1.267280e+05
9.000000e+02 1.311751e+05
9.010000e+02 1.357670e+05
9.020000e+02 1.405081e+05
9.030000e+02 1.454029e+05
9.040000e+02 1.504524e+05
9.050000e+02 1.556719e+05
9.060000e+02 1.610556e+05
9.070000e+02 1.666095e+05
9.080000e+02 1.723463e+05
9.090000e+02 1.782635e+05
9.100000e+02 1.843692e+05
9.110000e+02 1.906678e+05
9.120000e+02 1.971749e+05
9.130000e+02 1.988965e+05
9.140000e+02 2.161986e+05
9.150000e+02 1.129573e+06
9.160000e+02 7.265329e+06
9.170000e+02 8.413616e+06
9.180000e+02 7.628763e+06
9.190000e+02 9.915495e+06
9.200000e+02 1.044420e+07
9.210000e+02 2.503425e+05
9.220000e+02 1.103325e+07
9.230000e+02 9.238627e+06
9.240000e+02 7.901374e+06
9.250000e+02 1.158157e+07
9.260000e+02 1.113014e+07
9.270000e+02 1.245744e+07
9.280000e+02 1.283396e+07
9.290000e+02 9.021787e+06
9.300000e+02 1.315472e+07
9.310000e+02 1.271450e+07
9.320000e+02 1.417978e+07
9.330000e+02 1.448158e+07
9.340000e+02 1.489559e+07
9.350000e+02 4.482267e+06
9.360000e+02 1.552751e+07
9.370000e+02 2.943240e+06
9.380000e+02 1.025041e+07
9.390000e+02 1.676041e+07
9.400000e+02 1.721148e+07
9.410000e+02 1.241177e+07
9.420000e+02 1.805846e+07
9.430000e+02 1.848547e+07
9.440000e+02 1.060765e+07
9.450000e+02 1.934548e+07
9.460000e+02 1.983691e+07
9.470000e+02 1.236775e+07
9.480000e+02 2.047609e+07
9.490000e+02 2.077785e+07
9.500000e+02 4.271242e+06
9.510000e+02 1.996744e+07
9.520000e+02 2.282347e+07
9.530000e+02 2.329966e+07
9.540000e+02 1.712229e+07
9.550000e+02 2.452021e+07
9.560000e+02 2.511186e+07
9.570000e+02 2.074077e+07
9.580000e+02 2.585787e+07
9.590000e+02 2.704770e+07
9.600000e+02 5.427068e+06
9.610000e+02 2.840520e+07
9.620000e+02 2.888090e+07
9.630000e+02 2.972445e+07
9.640000e+02 1.137284e+06
9.650000e+02 2.607358e+07
9.660000e+02 3.180033e+07
9.670000e+02 3.245606e+07
9.680000e+02 3.269788e+07
9.690000e+02 3.357612e+07
9.700000e+02 3.455795e+07
9.710000e+02 3.476731e+07
9.720000e+02 2.976921e+07
9.730000e+02 2.889700e+07
9.740000e+02 3.684787e+07
9.750000e+02 3.861858e+07
9.760000e+02 3.970000e+07
9.770000e+02 4.061651e+07
9.780000e+02 4.147354e+07
9.790000e+02 4.254090e+07
9.800000e+02 4.349691e+07
9.810000e+02 4.449281e+07
9.820000e+02 4.480731e+07
9.830000e+02 4.643880e+07
9.840000e+02 8.819504e+06
9.850000e+02 4.854570e+07
9.860000e+02 4.960355e+07
9.870000e+02 5.064085e+07
9.880000e+02 5.133116e+07
9.890000e+02 2.679571e+07
9.900000e+02 2.900917e+06
9.910000e+02 5.441621e+07
9.920000e+02 5.314113e+07
9.930000e+02 5.336498e+07
9.940000e+02 6.093984e+06
9.950000e+02 6.471263e+06
9.960000e+02 1.156357e+07
9.970000e+02 9.612344e+06
9.980000e+02 6.367042e+07
9.990000e+02 6.377605e+07
1.000000e+03 6.694323e+07
1.001000e+03 6.837068e+07
1.002000e+03 6.975852e+07
1.003000e+03 5.696684e+07
1.004000e+03 7.275425e+07
1.005000e+03 6.223055e+07
1.006000e+03 7.586390e+07
1.007000e+03 7.745011e+07
1.008000e+03 7.896243e+07
1.009000e+03 7.436327e+07
1.010000e+03 8.233087e+07
1.011000e+03 8.401534e+07
1.012000e+03 8.568962e+07
1.013000e+03 8.746450e+07
1.014000e+03 8.897630e+07
1.015000e+03 8.739757e+07
1.016000e+03 9.251586e+07
1.017000e+03 9.429662e+07
1.018000e+03 9.629116e+07
1.019000e+03 9.793828e+07
1.020000e+03 9.954818e+07
1.021000e+03 8.568751e+07
1.022000e+03 9.878147e+07
1.023000e+03 1.006198e+08
1.024000e+03 9.304482e+07
1.025000e+03 5.446375e+07
1.026000e+03 1.703635e+07
1.027000e+03 8.764095e+07
1.028000e+03 2.946456e+07
1.029000e+03 1.158415e+08
1.030000e+03 1.178559e+08
1.031000e+03 1.243632e+08
1.032000e+03 1.257047e+08
1.033000e+03 7.054931e+07
1.034000e+03 1.334106e+08
1.035000e+03 2.435546e+07
1.036000e+03 1.367891e+08
1.037000e+03 9.616024e+06
1.038000e+03 1.446931e+08
1.039000e+03 1.459921e+08
1.040000e+03 1.508042e+08
1.041000e+03 1.534208e+08
1.042000e+03 1.489247e+08
1.043000e+03 1.580389e+08
1.044000e+03 1.623432e+08
1.045000e+03 1.659649e+08
1.046000e+03 1.695590e+08
1.047000e+03 1.729095e+08
1.048000e+03 1.740977e+08
1.049000e+03 1.782610e+08
1.050000e+03 1.832305e+08
1.051000e+03 1.867517e+08
1.052000e+03 1.903576e+08
1.053000e+03 1.873228e+08
1.054000e+03 1.971161e+08
1.055000e+03 2.014386e+08
1.056000e+03 2.053321e+08
1.057000e+03 2.090992e+08
1.058000e+03 2.131036e+08
1.059000e+03 2.171123e+08
1.060000e+03 2.211842e+08
1.061000e+03 2.254716e+08
1.062000e+03 2.296819e+08
1.063000e+03 1.745016e+08
1.064000e+03 3.699608e+07
1.065000e+03 2.468789e+08
1.066000e+03 2.496952e+08
1.067000e+03 2.378834e+08
1.068000e+03 2.614187e+08
1.069000e+03 2.656857e+08
1.070000e+03 2.641693e+08
1.071000e+03 2.766756e+08
1.072000e+03 2.816892e+08
1.073000e+03 2.864732e+08
1.074000e+03 2.921032e+08
1.075000e+03 2.971459e+08
1.076000e+03 3.029284e+08
1.077000e+03 3.079264e+08
1.078000e+03 3.140149e+08
1.079000e+03 3.173338e+08
1.080000e+03 3.249174e+08
1.081000e+03 3.313857e+08
1.082000e+03 3.369658e+08
1.083000e+03 3.433945e+08
1.084000e+03 3.016588e+08
1.085000e+03 2.960415e+08
1.086000e+03 3.622189e+08
1.087000e+03 3.683421e+08
1.088000e+03 3.727986e+08
1.089000e+03 3.816446e+08
1.090000e+03 3.880197e+08
1.091000e+03 3.953725e+08
1.092000e+03 4.022737e+08
1.093000e+03 4.087507e+08
1.094000e+03 4.166714e+08
1.095000e+03 4.227744e+08
1.096000e+03 4.312419e+08
1.097000e+03 4.331627e+08
1.098000e+03 4.402277e+08
1.099000e+03 4.536241e+08
1.100000e+03 4.514130e+08
1.101000e+03 4.228393e+08
1.102000e+03 1.048188e+09
1.103000e+03 3.699633e+09
1.104000e+03 1.184517e+09
1.105000e+03 4.628762e+08
1.106000e+03 8.929692e+09
1.107000e+03 8.181941e+09
1.108000e+03 9.199277e+09
1.109000e+03 5.031924e+09
1.110000e+03 9.363405e+08
1.111000e+03 1.111718e+09
1.112000e+03 8.529154e+09
1.113000e+03 9.811100e+09
1.114000e+03 3.458278e+08
1.115000e+03 9.494153e+09
1.116000e+03 9.879263e+09
1.117000e+03 3.290030e+08
1.118000e+03 8.950135e+09
1.119000e+03 1.035038e+10
1.120000e+03 1.043599e+10
1.121000e+03 6.360304e+09
1.122000e+03 6.918861e+07
1.123000e+03 1.187623e+09
1.124000e+03 1.095077e+10
1.125000e+03 3.495507e+09
1.126000e+03 1.133052e+10
1.127000e+03 1.061055e+10
1.128000e+03 5.118500e+09
1.129000e+03 1.146096e+10
1.130000e+03 7.621425e+09
1.131000e+03 1.213753e+10
1.132000e+03 2.167941e+08
1.133000e+03 1.153316e+10
1.134000e+03 1.175817e+10
1.135000e+03 1.515290e+08
1.136000e+03 1.244312e+10
1.137000e+03 1.298590e+10
1.138000e+03 1.326168e+10
1.139000e+03 1.301221e+10
1.140000e+03 1.512376e+08
1.141000e+03 1.378910e+10
1.142000e+03 1.243762e+10
1.143000e+03 1.402156e+10
1.144000e+03 1.424024e+10
1.145000e+03 9.735675e+09
1.146000e+03 1.454525e+10
1.147000e+03 1.426179e+10
1.148000e+03 1.440279e+10
1.149000e+03 1.505825e+10
1.150000e+03 1.383407e+10
1.151000e+03 1.518864e+10
1.152000e+03 1.530491e+10
1.153000e+03 2.953773e+09
1.154000e+03 3.276022e+08
1.155000e+03 1.302421e+10
1.156000e+03 5.429384e+09
1.157000e+03 1.642851e+10
1.158000e+03 3.030543e+08
1.159000e+03 1.390904e+10
1.160000e+03 1.690838e+10
1.161000e+03 1.737938e+10
1.162000e+03 1.310837e+09
1.163000e+03 1.675089e+10
1.164000e+03 5.766810e+08
1.165000e+03 1.811619e+10
1.166000e+03 1.774682e+10
1.167000e+03 1.580146e+10
1.168000e+03 1.871285e+10
1.169000e+03 1.798087e+10
1.170000e+03 1.911706e+10
1.171000e+03 1.930753e+10
1.172000e+03 1.764251e+10
1.173000e+03 1.961227e+10
1.174000e+03 1.891322e+10
1.175000e+03 5.437153e+08
1.176000e+03 3.500667e+08
1.177000e+03 1.988052e+10
1.178000e+03 1.764539e+10
1.179000e+03 2.055017e+10
1.180000e+03 1.494058e+10
1.181000e+03 1.988050e+10
1.182000e+03 2.091705e+10
1.183000e+03 2.096350e+10
1.184000e+03 2.105674e+10
1.185000e+03 1.994008e+10
1.186000e+03 2.106086e+10
1.187000e+03 2.109013e+10
1.188000e+03 1.989942e+10
1.189000e+03 3.527608e+08
1.190000e+03 4.408672e+09
1.191000e+03 1.992842e+10
1.192000e+03 1.990680e+10
1.193000e+03 2.692526e+08
1.194000e+03 4.058706e+08
1.195000e+03 7.972531e+09
1.196000e+03 1.881721e+10
1.197000e+03 1.952790e+10
1.198000e+03 1.972401e+10
1.199000e+03 1.874002e+10
1.200000e+03 1.591017e+10
1.201000e+03 1.669235e+10
1.202000e+03 1.624053e+10
1.203000e+03 1.581557e+10
1.204000e+03 1.405806e+10
1.205000e+03 1.277756e+10
1.206000e+03 9.825466e+09
1.207000e+03 5.859859e+09
1.208000e+03 7.931226e+09
1.209000e+03 5.945863e+09
1.210000e+03 7.097137e+08
1.211000e+03 3.388439e+09
1.212000e+03 2.218265e+09
1.213000e+03 1.334256e+09
1.214000e+03 7.559986e+08
1.215000e+03 4.521554e+08
1.216000e+03 3.965453e+08
1.217000e+03 6.544758e+08
1.218000e+03 1.190375e+09
1.219000e+03 2.097422e+09
1.220000e+03 3.390405e+09
1.221000e+03 5.033076e+09
1.222000e+03 6.968573e+09
1.223000e+03 9.140349e+09
1.224000e+03 1.149445e+10
1.225000e+03 1.397712e+10
1.226000e+03 1.643442e+10
1.227000e+03 1.903601e+10
1.228000e+03 2.191640e+10
1.229000e+03 2.454734e+10
1.230000e+03 2.717727e+10
1.231000e+03 2.993508e+10
1.232000e+03 3.260828e+10
1.233000e+03 3.519440e+10
1.234000e+03 2.088585e+10
1.235000e+03 4.010274e+10
1.236000e+03 4.251885e+10
1.237000e+03 4.483317e+10
1.238000e+03 4.716835e+10
1.239000e+03 4.941018e+10
1.240000e+03 4.707019e+10
1.241000e+03 7.884487e+10
1.242000e+03 4.552620e+10
1.243000e+03 6.877289e+10
1.244000e+03 2.903929e+10
1.245000e+03 4.355333e+10
1.246000e+03 1.234249e+11
1.247000e+03 1.351587e+11
1.248000e+03 3.165938e+10
1.249000e+03 4.137162e+10
1.250000e+03 1.585177e+11
1.251000e+03 1.634886e+11
1.252000e+03 1.648265e+11
1.253000e+03 1.831162e+11
1.254000e+03 1.868758e+11
1.255000e+03 1.948202e+11
1.256000e+03 2.004267e+11
1.257000e+03 2.138253e+11
1.258000e+03 2.141666e+11
1.259000e+03 2.002811e+11
1.260000e+03 1.539178e+11
1.261000e+03 9.531023e+08
1.262000e+03 1.908605e+10
1.263000e+03 2.437068e+11
1.264000e+03 2.015050e+11
1.265000e+03 8.262984e+08
1.266000e+03 2.561909e+11
1.267000e+03 2.852154e+11
