# wavelength_A flux
5.000000e+02 1.443710e-23
5.010000e+02 1.756808e-23
5.020000e+02 2.136101e-23
5.030000e+02 2.595219e-23
5.040000e+02 3.150530e-23
5.050000e+02 3.925265e-23
5.060000e+02 4.755735e-23
5.070000e+02 5.755992e-23
5.080000e+02 6.963680e-23
5.090000e+02 8.416833e-23
5.100000e+02 9.846053e-23
5.110000e+02 1.226849e-22
5.120000e+02 1.479179e-22
5.130000e+02 1.782949e-22
5.140000e+02 2.147008e-22
5.150000e+02 2.583488e-22
5.160000e+02 3.106422e-22
5.170000e+02 3.732652e-22
5.180000e+02 4.481819e-22
5.190000e+02 5.377484e-22
5.200000e+02 6.447555e-22
5.210000e+02 7.725080e-22
5.220000e+02 9.247882e-22
5.230000e+02 1.106637e-21
5.240000e+02 1.323147e-21
5.250000e+02 1.580912e-21
5.260000e+02 1.887592e-21
5.270000e+02 2.252226e-21
5.280000e+02 2.685472e-21
5.290000e+02 3.199851e-21
5.300000e+02 3.810297e-21
5.310000e+02 4.534106e-21
5.320000e+02 5.391826e-21
5.330000e+02 6.407563e-21
5.340000e+02 7.609643e-21
5.350000e+02 9.031320e-21
5.360000e+02 1.071156e-20
5.370000e+02 1.256632e-20
5.380000e+02 1.503909e-20
5.390000e+02 1.780302e-20
5.400000e+02 2.106131e-20
5.410000e+02 2.489939e-20
5.420000e+02 2.942015e-20
5.430000e+02 3.473893e-20
5.440000e+02 4.099372e-20
5.450000e+02 4.834475e-20
5.460000e+02 5.697854e-20
5.470000e+02 6.711389e-20
5.480000e+02 7.900352e-20
5.490000e+02 9.294314e-20
5.500000e+02 1.092764e-19
5.510000e+02 1.284030e-19
5.520000e+02 1.507875e-19
5.530000e+02 1.769691e-19
5.540000e+02 2.075744e-19
5.550000e+02 2.433297e-19
5.560000e+02 2.850775e-19
5.570000e+02 3.337941e-19
5.580000e+02 3.906103e-19
5.590000e+02 4.568349e-19
5.600000e+02 5.339821e-19
5.610000e+02 6.238027e-19
5.620000e+02 7.283202e-19
5.630000e+02 8.498714e-19
5.640000e+02 9.911539e-19
5.650000e+02 1.155280e-18
5.660000e+02 1.345839e-18
5.670000e+02 1.566967e-18
5.680000e+02 1.823428e-18
5.690000e+02 2.120707e-18
5.700000e+02 2.465116e-18
5.710000e+02 2.863913e-18
5.720000e+02 3.325441e-18
5.730000e+02 3.859286e-18
5.740000e+02 4.476454e-18
5.750000e+02 5.189576e-18
5.760000e+02 6.013096e-18
5.770000e+02 6.963852e-18
5.780000e+02 8.060576e-18
5.790000e+02 9.325193e-18
5.800000e+02 1.078266e-17
5.810000e+02 1.246153e-17
5.820000e+02 1.439446e-17
5.830000e+02 1.661868e-17
5.840000e+02 1.917393e-17
5.850000e+02 2.211749e-17
5.860000e+02 2.549778e-17
5.870000e+02 2.937916e-17
5.880000e+02 3.383456e-17
5.890000e+02 3.894644e-17
5.900000e+02 4.480871e-17
5.910000e+02 5.152830e-17
5.920000e+02 5.922687e-17
5.930000e+02 6.804286e-17
5.940000e+02 7.813365e-17
5.950000e+02 8.967813e-17
5.960000e+02 1.028795e-16
5.970000e+02 1.179685e-16
5.980000e+02 1.352071e-16
5.990000e+02 1.548922e-16
6.000000e+02 1.773608e-16
6.010000e+02 2.029948e-16
6.020000e+02 2.322266e-16
6.030000e+02 2.655462e-16
6.040000e+02 3.035081e-16
6.050000e+02 3.467395e-16
6.060000e+02 3.959499e-16
6.070000e+02 4.519414e-16
6.080000e+02 5.156200e-16
6.090000e+02 5.880094e-16
6.100000e+02 6.702649e-16
6.110000e+02 7.636905e-16
6.120000e+02 8.697570e-16
6.130000e+02 9.901228e-16
6.140000e+02 1.126657e-15
6.150000e+02 1.281464e-15
6.160000e+02 1.456917e-15
6.170000e+02 1.655684e-15
6.180000e+02 1.880767e-15
6.190000e+02 2.135544e-15
6.200000e+02 2.423813e-15
6.210000e+02 2.749840e-15
6.220000e+02 3.118419e-15
6.230000e+02 3.534931e-15
6.240000e+02 4.005418e-15
6.250000e+02 4.536658e-15
6.260000e+02 5.136253e-15
6.270000e+02 5.812725e-15
6.280000e+02 6.575623e-15
6.290000e+02 7.435646e-15
6.300000e+02 8.404771e-15
6.310000e+02 9.494686e-15
6.320000e+02 1.072557e-14
6.330000e+02 1.210902e-14
6.340000e+02 1.366554e-14
6.350000e+02 1.541600e-14
6.360000e+02 1.738407e-14
6.370000e+02 1.959567e-14
6.380000e+02 2.208009e-14
6.390000e+02 2.486992e-14
6.400000e+02 2.800152e-14
6.410000e+02 3.151542e-14
6.420000e+02 3.545681e-14
6.430000e+02 3.987606e-14
6.440000e+02 4.482924e-14
6.450000e+02 5.037883e-14
6.460000e+02 5.659432e-14
6.470000e+02 6.355306e-14
6.480000e+02 7.134111e-14
6.490000e+02 8.005413e-14
6.500000e+02 8.979844e-14
6.510000e+02 1.006922e-13
6.520000e+02 1.128666e-13
6.530000e+02 1.264673e-13
6.540000e+02 1.416561e-13
6.550000e+02 1.586124e-13
6.560000e+02 1.775352e-13
6.570000e+02 1.986452e-13
6.580000e+02 2.221870e-13
6.590000e+02 2.484315e-13
6.600000e+02 2.776791e-13
6.610000e+02 3.102620e-13
6.620000e+02 3.465483e-13
6.630000e+02 3.869451e-13
6.640000e+02 4.319027e-13
6.650000e+02 4.819192e-13
6.660000e+02 5.375459e-13
6.670000e+02 5.993897e-13
6.680000e+02 6.681237e-13
6.690000e+02 7.444898e-13
6.700000e+02 8.293078e-13
6.710000e+02 9.234820e-13
6.720000e+02 1.028010e-12
6.730000e+02 1.143993e-12
6.740000e+02 1.272645e-12
6.750000e+02 1.415302e-12
6.760000e+02 1.573439e-12
6.770000e+02 1.748680e-12
6.780000e+02 1.942812e-12
6.790000e+02 2.157805e-12
6.800000e+02 2.395824e-12
6.810000e+02 2.659253e-12
6.820000e+02 2.950713e-12
6.830000e+02 3.273088e-12
6.840000e+02 3.629544e-12
6.850000e+02 4.023564e-12
6.860000e+02 4.458973e-12
6.870000e+02 4.939971e-12
6.880000e+02 5.471169e-12
6.890000e+02 6.057629e-12
6.900000e+02 6.704904e-12
6.910000e+02 7.419087e-12
6.920000e+02 8.206858e-12
6.930000e+02 9.075540e-12
6.940000e+02 1.003316e-11
6.950000e+02 1.108851e-11
6.960000e+02 1.225123e-11
6.970000e+02 1.353185e-11
6.980000e+02 1.494194e-11
6.990000e+02 1.649411e-11
7.000000e+02 1.820221e-11
7.010000e+02 2.008135e-11
7.020000e+02 2.214806e-11
7.030000e+02 2.442043e-11
7.040000e+02 2.691820e-11
7.050000e+02 2.966296e-11
7.060000e+02 3.267807e-11
7.070000e+02 3.598992e-11
7.080000e+02 3.962596e-11
7.090000e+02 4.361707e-11
7.100000e+02 4.799673e-11
7.110000e+02 5.280143e-11
7.120000e+02 5.807098e-11
7.130000e+02 6.384877e-11
7.140000e+02 7.018209e-11
7.150000e+02 7.712248e-11
7.160000e+02 8.472609e-11
7.170000e+02 9.305405e-11
7.180000e+02 1.021729e-10
7.190000e+02 1.121552e-10
7.200000e+02 1.230796e-10
7.210000e+02 1.350321e-10
7.220000e+02 1.481059e-10
7.230000e+02 1.624024e-10
7.240000e+02 1.780319e-10
7.250000e+02 1.951143e-10
7.260000e+02 2.137798e-10
7.270000e+02 2.341699e-10
7.280000e+02 2.564383e-10
7.290000e+02 2.807516e-10
7.300000e+02 3.072910e-10
7.310000e+02 3.362530e-10
7.320000e+02 3.678507e-10
7.330000e+02 4.023154e-10
7.340000e+02 4.398977e-10
7.350000e+02 4.808695e-10
7.360000e+02 5.255253e-10
7.370000e+02 5.741845e-10
7.380000e+02 6.271930e-10
7.390000e+02 6.849252e-10
7.400000e+02 7.477868e-10
7.410000e+02 8.162170e-10
7.420000e+02 8.906910e-10
7.430000e+02 9.717231e-10
7.440000e+02 1.059870e-09
7.450000e+02 1.155732e-09
7.460000e+02 1.259962e-09
7.470000e+02 1.373262e-09
7.480000e+02 1.496392e-09
7.490000e+02 1.630174e-09
7.500000e+02 1.775496e-09
7.510000e+02 1.933315e-09
7.520000e+02 2.104668e-09
7.530000e+02 2.290671e-09
7.540000e+02 2.492530e-09
7.550000e+02 2.711548e-09
7.560000e+02 2.949127e-09
7.570000e+02 3.206784e-09
7.580000e+02 3.486150e-09
7.590000e+02 3.788988e-09
7.600000e+02 4.117195e-09
7.610000e+02 4.472816e-09
7.620000e+02 4.858056e-09
7.630000e+02 5.275289e-09
7.640000e+02 5.727071e-09
7.650000e+02 6.216156e-09
7.660000e+02 6.745509e-09
7.670000e+02 7.318317e-09
7.680000e+02 7.938016e-09
7.690000e+02 8.608286e-09
7.700000e+02 9.333130e-09
7.710000e+02 1.011679e-08
7.720000e+02 1.096387e-08
7.730000e+02 1.187930e-08
7.740000e+02 1.286840e-08
7.750000e+02 1.393686e-08
7.760000e+02 1.509080e-08
7.770000e+02 1.633681e-08
7.780000e+02 1.768194e-08
7.790000e+02 1.913379e-08
7.800000e+02 2.070049e-08
7.810000e+02 2.239077e-08
7.820000e+02 2.421402e-08
7.830000e+02 2.618028e-08
7.840000e+02 2.830034e-08
7.850000e+02 3.058577e-08
7.860000e+02 3.304896e-08
7.870000e+02 3.570321e-08
7.880000e+02 3.856276e-08
7.890000e+02 4.164286e-08
7.900000e+02 4.495988e-08
7.910000e+02 4.853131e-08
7.920000e+02 5.237590e-08
7.930000e+02 5.651377e-08
7.940000e+02 6.096639e-08
7.950000e+02 6.575674e-08
7.960000e+02 7.090944e-08
7.970000e+02 7.645085e-08
7.980000e+02 8.240910e-08
7.990000e+02 8.881435e-08
8.000000e+02 9.569878e-08
8.010000e+02 1.030968e-07
8.020000e+02 1.110453e-07
8.030000e+02 1.195836e-07
8.040000e+02 1.287536e-07
8.050000e+02 1.385969e-07
8.060000e+02 1.491716e-07
8.070000e+02 1.605188e-07
8.080000e+02 1.726964e-07
8.090000e+02 1.857629e-07
8.100000e+02 1.997805e-07
8.110000e+02 2.148157e-07
8.120000e+02 2.309394e-07
8.130000e+02 2.482272e-07
8.140000e+02 2.667599e-07
8.150000e+02 2.866234e-07
8.160000e+02 3.079094e-07
8.170000e+02 3.307158e-07
8.180000e+02 3.551468e-07
8.190000e+02 3.813133e-07
8.200000e+02 4.093337e-07
8.210000e+02 4.393339e-07
8.220000e+02 4.714483e-07
8.230000e+02 5.058197e-07
8.240000e+02 5.426004e-07
8.250000e+02 5.819522e-07
8.260000e+02 6.240476e-07
8.270000e+02 6.690701e-07
8.280000e+02 7.172148e-07
8.290000e+02 7.686895e-07
8.300000e+02 8.237150e-07
8.310000e+02 8.825261e-07
8.320000e+02 9.453726e-07
8.330000e+02 1.012520e-06
8.340000e+02 1.084251e-06
8.350000e+02 1.160863e-06
8.360000e+02 1.242679e-06
8.370000e+02 1.330035e-06
8.380000e+02 1.423290e-06
8.390000e+02 1.522827e-06
8.400000e+02 1.629051e-06
8.410000e+02 1.742393e-06
8.420000e+02 1.863310e-06
8.430000e+02 1.992287e-06
8.440000e+02 2.129839e-06
8.450000e+02 2.276513e-06
8.460000e+02 2.432887e-06
8.470000e+02 2.599577e-06
8.480000e+02 2.777233e-06
8.490000e+02 2.966549e-06
8.500000e+02 3.168256e-06
8.510000e+02 3.383132e-06
8.520000e+02 3.611999e-06
8.530000e+02 3.855730e-06
8.540000e+02 4.115251e-06
8.550000e+02 4.391541e-06
8.560000e+02 4.685636e-06
8.570000e+02 4.998636e-06
8.580000e+02 5.331701e-06
8.590000e+02 5.686074e-06
8.600000e+02 6.063047e-06
8.610000e+02 6.464005e-06
8.620000e+02 6.890410e-06
8.630000e+02 7.343806e-06
8.640000e+02 7.825828e-06
8.650000e+02 8.338208e-06
8.660000e+02 8.882775e-06
8.670000e+02 9.461462e-06
8.680000e+02 1.007632e-05
8.690000e+02 1.072950e-05
8.700000e+02 1.142331e-05
8.710000e+02 1.216015e-05
8.720000e+02 1.294257e-05
8.730000e+02 1.377328e-05
8.740000e+02 1.465512e-05
8.750000e+02 1.559112e-05
8.760000e+02 1.658444e-05
8.770000e+02 1.763845e-05
8.780000e+02 1.875668e-05
8.790000e+02 1.994290e-05
8.800000e+02 2.120104e-05
8.810000e+02 2.253527e-05
8.820000e+02 2.395001e-05
8.830000e+02 2.544989e-05
8.840000e+02 2.703981e-05
8.850000e+02 2.872493e-05
8.860000e+02 3.051072e-05
8.870000e+02 3.240292e-05
8.880000e+02 3.440758e-05
8.890000e+02 3.653109e-05
8.900000e+02 3.878020e-05
8.910000e+02 4.116201e-05
8.920000e+02 4.368398e-05
8.930000e+02 4.635401e-05
8.940000e+02 4.918039e-05
8.950000e+02 5.217189e-05
8.960000e+02 5.533771e-05
8.970000e+02 5.868756e-05
8.980000e+02 6.223166e-05
8.990000e+02 6.598077e-05
9.000000e+02 6.994622e-05
9.010000e+02 7.413993e-05
9.020000e+02 7.857444e-05
9.030000e+02 8.326294e-05
9.040000e+02 8.821942e-05
9.050000e+02 9.345841e-05
9.060000e+02 9.899530e-05
9.070000e+02 1.048463e-04
9.080000e+02 1.110283e-04
9.090000e+02 1.175594e-04
9.100000e+02 1.244582e-04
9.110000e+02 1.317446e-04
9.120000e+02 1.394394e-04
9.130000e+02 1.475640e-04
9.140000e+02 1.592143e-04
9.150000e+02 2.125231e-02
9.160000e+02 8.577039e-02
9.170000e+02 3.738347e-03
9.180000e+02 2.851285e-02
9.190000e+02 2.208891e-01
9.200000e+02 5.092538e-01
9.210000e+02 2.310639e-04
9.220000e+02 1.472191e-01
9.230000e+02 4.192141e-03
9.240000e+02 7.135332e-03
9.250000e+02 3.244881e-02
9.260000e+02 3.774754e-02
9.270000e+02 5.218577e-03
9.280000e+02 1.695897e+00
9.290000e+02 2.076860e+00
9.300000e+02 6.234334e-01
9.310000e+02 5.147801e-03
9.320000e+02 1.756138e+00
9.330000e+02 1.350796e-01
9.340000e+02 5.036807e-02
9.350000e+02 1.425423e-02
9.360000e+02 1.049539e-02
9.370000e+02 3.189610e-03
9.380000e+02 9.191157e-03
9.390000e+02 2.148878e-02
9.400000e+02 9.852337e-01
9.410000e+02 1.908477e-01
9.420000e+02 5.353051e+00
9.430000e+02 3.137755e-02
9.440000e+02 6.153164e+00
9.450000e+02 5.065802e+00
9.460000e+02 3.794253e-01
9.470000e+02 3.244646e-03
9.480000e+02 2.009004e+00
9.490000e+02 3.861444e-01
9.500000e+02 1.396364e-02
9.510000e+02 2.806119e-01
9.520000e+02 5.274432e-01
9.530000e+02 9.063650e-03
9.540000e+02 3.876030e-03
9.550000e+02 8.369970e-02
9.560000e+02 6.476541e+00
9.570000e+02 4.530561e-02
9.580000e+02 2.457991e-03
9.590000e+02 3.395681e+00
9.600000e+02 2.496427e-02
9.610000e+02 4.345427e-01
9.620000e+02 1.769329e-01
9.630000e+02 7.223845e-02
9.640000e+02 8.291528e-03
9.650000e+02 8.386135e-03
9.660000e+02 9.150028e-02
9.670000e+02 2.382195e-02
9.680000e+02 1.596999e-02
9.690000e+02 4.163134e-01
9.700000e+02 3.434477e-01
9.710000e+02 2.887065e-02
9.720000e+02 2.173926e-02
9.730000e+02 1.057808e-01
9.740000e+02 4.353495e-01
9.750000e+02 1.551932e-01
9.760000e+02 2.749106e+00
9.770000e+02 1.487733e+00
9.780000e+02 5.462946e-01
9.790000e+02 1.840211e+01
9.800000e+02 1.783773e+01
9.810000e+02 4.873533e-01
9.820000e+02 1.089184e-01
9.830000e+02 8.685598e+00
9.840000e+02 1.394985e+00
9.850000e+02 2.693097e-01
9.860000e+02 3.699031e-01
9.870000e+02 1.064715e+01
9.880000e+02 2.049351e-02
9.890000e+02 1.687304e+00
9.900000e+02 2.714124e+00
9.910000e+02 9.265534e-02
9.920000e+02 1.174158e-02
9.930000e+02 3.545540e+01
9.940000e+02 1.895696e-02
9.950000e+02 2.834039e+00
9.960000e+02 4.939270e-02
9.970000e+02 2.348138e+00
9.980000e+02 4.639221e+00
9.990000e+02 1.813452e-01
1.000000e+03 5.312751e+01
1.001000e+03 4.465984e+01
1.002000e+03 2.481770e+01
1.003000e+03 2.122707e-01
1.004000e+03 3.765869e-02
1.005000e+03 5.084991e-01
1.006000e+03 1.624466e+01
1.007000e+03 3.163679e+01
1.008000e+03 8.161602e+00
1.009000e+03 3.260989e-01
1.010000e+03 9.013123e+00
1.011000e+03 1.824640e+01
1.012000e+03 1.036258e+01
1.013000e+03 8.859121e+00
1.014000e+03 3.083467e-02
1.015000e+03 5.480766e-02
1.016000e+03 5.717297e-01
1.017000e+03 3.299904e-02
1.018000e+03 3.335075e-01
1.019000e+03 5.823135e-02
1.020000e+03 2.800166e+01
1.021000e+03 3.848019e-01
1.022000e+03 5.780106e-01
1.023000e+03 8.943939e-02
1.024000e+03 7.004675e+00
1.025000e+03 4.384792e-02
1.026000e+03 7.600729e-02
1.027000e+03 1.727231e+00
1.028000e+03 3.650999e-01
1.029000e+03 5.795288e-02
1.030000e+03 2.611439e+00
1.031000e+03 2.620739e+00
1.032000e+03 2.639430e+01
1.033000e+03 2.621504e+00
1.034000e+03 4.467533e+00
1.035000e+03 2.525730e-01
1.036000e+03 8.449173e-02
1.037000e+03 2.137988e+01
1.038000e+03 1.163834e+02
1.039000e+03 2.336359e+01
1.040000e+03 2.955883e+01
1.041000e+03 1.944432e+02
1.042000e+03 7.684427e+01
1.043000e+03 7.531293e+01
1.044000e+03 3.780197e+02
1.045000e+03 2.229846e-01
1.046000e+03 3.548593e+01
1.047000e+03 7.932495e+00
1.048000e+03 4.539223e-01
1.049000e+03 1.022367e+01
1.050000e+03 4.336185e+00
1.051000e+03 2.526794e+00
1.052000e+03 7.868299e+01
1.053000e+03 1.911634e+02
1.054000e+03 1.655426e-01
1.055000e+03 2.622999e+02
1.056000e+03 2.618260e+02
1.057000e+03 2.010325e+01
1.058000e+03 3.016626e+00
1.059000e+03 1.477821e+00
1.060000e+03 7.069244e-01
1.061000e+03 2.884680e+01
1.062000e+03 1.759480e+00
1.063000e+03 2.744557e+01
1.064000e+03 3.920898e-01
1.065000e+03 2.653351e-01
1.066000e+03 3.990446e+01
1.067000e+03 1.418309e+00
1.068000e+03 6.130909e+02
1.069000e+03 6.089296e-01
1.070000e+03 1.788263e+01
1.071000e+03 2.164979e+02
1.072000e+03 3.223135e+02
1.073000e+03 4.180908e-01
1.074000e+03 2.060964e+01
1.075000e+03 1.289758e+01
1.076000e+03 3.806360e+02
1.077000e+03 2.087326e+00
1.078000e+03 3.793213e+00
1.079000e+03 1.289066e+01
1.080000e+03 3.163368e+01
1.081000e+03 9.106835e+01
1.082000e+03 6.242548e+01
1.083000e+03 3.700122e+01
1.084000e+03 1.017040e+03
1.085000e+03 1.252594e+01
1.086000e+03 7.474371e+02
1.087000e+03 3.342468e+00
1.088000e+03 1.527613e+03
1.089000e+03 1.438088e+03
1.090000e+03 1.021236e+01
1.091000e+03 1.243445e+01
1.092000e+03 8.925412e+02
1.093000e+03 1.023806e+03
1.094000e+03 9.981587e+01
1.095000e+03 1.697427e+03
1.096000e+03 2.990492e+02
1.097000e+03 2.369555e+02
1.098000e+03 1.528801e+03
1.099000e+03 3.577783e+01
1.100000e+03 2.014763e+00
1.101000e+03 3.771368e+00
1.102000e+03 1.958757e+01
1.103000e+03 1.138133e+03
1.104000e+03 2.251805e+03
1.105000e+03 1.575181e+03
1.106000e+03 8.009225e+01
1.107000e+03 2.470947e+00
1.108000e+03 3.566438e+02
1.109000e+03 1.257819e+01
1.110000e+03 2.754699e+03
1.111000e+03 9.675092e+02
1.112000e+03 1.895183e+02
1.113000e+03 1.719888e+03
1.114000e+03 1.253044e+02
1.115000e+03 1.898074e+01
1.116000e+03 1.169237e+01
1.117000e+03 9.070863e+02
1.118000e+03 1.937224e+01
1.119000e+03 2.665229e+02
1.120000e+03 1.276575e+01
1.121000e+03 7.524866e+02
1.122000e+03 2.191390e+03
1.123000e+03 1.330814e+03
1.124000e+03 1.444332e+03
1.125000e+03 7.091414e+02
1.126000e+03 5.340204e+03
1.127000e+03 1.226980e+03
1.128000e+03 2.943487e+03
1.129000e+03 5.176721e+02
1.130000e+03 2.030285e+03
1.131000e+03 3.219773e+03
1.132000e+03 2.225851e+01
1.133000e+03 6.502222e+01
1.134000e+03 5.303794e+02
1.135000e+03 1.900348e+03
1.136000e+03 1.456034e+02
1.137000e+03 1.813432e+03
1.138000e+03 4.765145e+02
1.139000e+03 3.412184e+03
1.140000e+03 4.063751e+03
1.141000e+03 2.656864e+03
1.142000e+03 4.458951e+03
1.143000e+03 8.998101e+02
1.144000e+03 4.282008e+03
1.145000e+03 1.355859e+01
1.146000e+03 5.155933e+03
1.147000e+03 3.498735e+03
1.148000e+03 5.436072e+01
1.149000e+03 2.092744e+03
1.150000e+03 1.228967e+03
1.151000e+03 5.071318e+03
1.152000e+03 3.180977e+03
1.153000e+03 3.643075e+03
1.154000e+03 5.316561e+03
1.155000e+03 1.703946e+03
1.156000e+03 4.731763e+03
1.157000e+03 5.252597e+03
1.158000e+03 9.278252e+02
1.159000e+03 4.318057e+03
1.160000e+03 8.845617e+02
1.161000e+03 3.935032e+03
1.162000e+03 1.855181e+02
1.163000e+03 4.658032e+02
1.164000e+03 5.855762e+01
1.165000e+03 2.492958e+03
1.166000e+03 1.453693e+03
1.167000e+03 1.295392e+03
1.168000e+03 5.651215e+03
1.169000e+03 6.007417e+03
1.170000e+03 1.126150e+03
1.171000e+03 2.954559e+03
1.172000e+03 1.142995e+03
1.173000e+03 2.993062e+03
1.174000e+03 5.927618e+01
1.175000e+03 4.035718e+01
1.176000e+03 1.866003e+01
1.177000e+03 7.262687e+03
1.178000e+03 7.167841e+03
1.179000e+03 5.800558e+03
1.180000e+03 2.321415e+03
1.181000e+03 6.687817e+03
1.182000e+03 5.307180e+03
1.183000e+03 2.717897e+03
1.184000e+03 2.223250e+03
1.185000e+03 3.068013e+03
1.186000e+03 2.322469e+02
1.187000e+03 4.065700e+03
1.188000e+03 1.591565e+03
1.189000e+03 5.818091e+03
1.190000e+03 5.548210e+03
1.191000e+03 3.647572e+03
1.192000e+03 4.707873e+03
1.193000e+03 3.034759e+03
1.194000e+03 4.473430e+03
1.195000e+03 4.368374e+03
1.196000e+03 1.140867e+04
1.197000e+03 2.077617e+04
1.198000e+03 5.776851e+02
1.199000e+03 2.015205e+04
1.200000e+03 1.273261e+03
1.201000e+03 1.712186e+04
1.202000e+03 4.454963e+03
1.203000e+03 1.224479e+04
1.204000e+03 1.137044e+03
1.205000e+03 9.221776e+03
1.206000e+03 1.005572e+04
1.207000e+03 3.376602e+03
1.208000e+03 6.431954e+03
1.209000e+03 6.304293e+03
1.210000e+03 6.784229e+01
1.211000e+03 3.041431e+03
1.212000e+03 1.376456e+03
1.213000e+03 9.347912e+02
1.214000e+03 3.244545e+02
1.215000e+03 6.712011e+01
1.216000e+03 4.877280e+01
1.217000e+03 2.138597e+02
1.218000e+03 7.820085e+02
1.219000e+03 1.796752e+03
1.220000e+03 1.121263e+03
1.221000e+03 5.269435e+03
1.222000e+03 5.863505e+03
1.223000e+03 6.184294e+03
1.224000e+03 1.287273e+04
1.225000e+03 7.985869e+02
1.226000e+03 2.052302e+04
1.227000e+03 2.128868e+04
1.228000e+03 3.572833e+03
1.229000e+03 1.758647e+04
1.230000e+03 1.276356e+04
1.231000e+03 2.510004e+03
1.232000e+03 4.030810e+04
1.233000e+03 4.475654e+04
1.234000e+03 4.047743e+04
1.235000e+03 3.795034e+04
1.236000e+03 5.004748e+03
1.237000e+03 5.050209e+04
1.238000e+03 4.112724e+04
1.239000e+03 2.433541e+04
1.240000e+03 3.653104e+04
1.241000e+03 2.239210e+04
1.242000e+03 4.022350e+04
1.243000e+03 6.341298e+04
1.244000e+03 7.092453e+04
1.245000e+03 5.935705e+04
1.246000e+03 4.017451e+04
1.247000e+03 5.131607e+04
1.248000e+03 6.891930e+04
1.249000e+03 8.434029e+04
1.250000e+03 5.742566e+04
1.251000e+03 8.248380e+04
1.252000e+03 6.075352e+04
1.253000e+03 8.783462e+04
1.254000e+03 6.561666e+04
1.255000e+03 5.140474e+04
1.256000e+03 5.772076e+04
1.257000e+03 7.263774e+04
1.258000e+03 3.106546e+04
1.259000e+03 4.996975e+04
1.260000e+03 9.313174e+04
1.261000e+03 1.074681e+04
1.262000e+03 1.052081e+05
1.263000e+03 8.345686e+04
1.264000e+03 4.080862e+04
1.265000e+03 7.555438e+03
1.266000e+03 9.962420e+04
1.267000e+03 5.484919e+04
