# wavelength_A flux
5.000000e+02 1.379074e-39
5.010000e+02 1.806710e-39
5.020000e+02 2.364356e-39
5.030000e+02 3.090753e-39
5.040000e+02 4.035948e-39
5.050000e+02 5.265899e-39
5.060000e+02 6.861468e-39
5.070000e+02 8.930950e-39
5.080000e+02 1.161240e-38
5.090000e+02 1.508304e-38
5.100000e+02 1.956643e-38
5.110000e+02 2.536674e-38
5.120000e+02 3.284561e-38
5.130000e+02 4.248618e-38
5.140000e+02 5.490013e-38
5.150000e+02 7.086939e-38
5.160000e+02 9.139158e-38
5.170000e+02 1.177385e-37
5.180000e+02 1.515299e-37
5.190000e+02 1.948263e-37
5.200000e+02 2.502472e-37
5.210000e+02 3.211188e-37
5.220000e+02 4.116599e-37
5.230000e+02 5.272209e-37
5.240000e+02 6.745714e-37
5.250000e+02 8.622789e-37
5.260000e+02 1.101170e-36
5.270000e+02 1.404916e-36
5.280000e+02 1.790761e-36
5.290000e+02 2.280441e-36
5.300000e+02 2.901325e-36
5.310000e+02 3.687841e-36
5.320000e+02 4.683267e-36
5.330000e+02 5.941944e-36
5.340000e+02 7.532055e-36
5.350000e+02 9.539066e-36
5.360000e+02 1.207002e-35
5.370000e+02 1.525814e-35
5.380000e+02 1.927302e-35
5.390000e+02 2.432171e-35
5.400000e+02 3.066597e-35
5.410000e+02 3.863133e-35
5.420000e+02 4.862340e-35
5.430000e+02 6.114707e-35
5.440000e+02 7.683034e-35
5.450000e+02 9.645365e-35
5.460000e+02 1.209861e-34
5.470000e+02 1.516300e-34
5.480000e+02 1.898759e-34
5.490000e+02 2.375700e-34
5.500000e+02 2.969971e-34
5.510000e+02 3.709827e-34
5.520000e+02 4.630181e-34
5.530000e+02 5.774139e-34
5.540000e+02 7.194874e-34
5.550000e+02 8.957935e-34
5.560000e+02 1.114405e-33
5.570000e+02 1.385259e-33
5.580000e+02 1.720573e-33
5.590000e+02 2.135361e-33
5.600000e+02 2.648060e-33
5.610000e+02 3.281287e-33
5.620000e+02 4.062770e-33
5.630000e+02 5.026480e-33
5.640000e+02 6.213997e-33
5.650000e+02 7.676182e-33
5.660000e+02 9.475201e-33
5.670000e+02 1.168698e-32
5.680000e+02 1.440418e-32
5.690000e+02 1.773981e-32
5.700000e+02 2.183159e-32
5.710000e+02 2.684723e-32
5.720000e+02 3.299080e-32
5.730000e+02 4.051046e-32
5.740000e+02 4.970776e-32
5.750000e+02 6.094886e-32
5.760000e+02 7.467805e-32
5.770000e+02 9.143409e-32
5.780000e+02 1.118697e-31
5.790000e+02 1.367753e-31
5.800000e+02 1.671074e-31
5.810000e+02 2.040223e-31
5.820000e+02 2.489174e-31
5.830000e+02 3.034800e-31
5.840000e+02 3.697463e-31
5.850000e+02 4.501716e-31
5.860000e+02 5.477145e-31
5.870000e+02 6.659381e-31
5.880000e+02 8.091304e-31
5.890000e+02 9.824481e-31
5.900000e+02 1.192089e-30
5.910000e+02 1.445498e-30
5.920000e+02 1.751609e-30
5.930000e+02 2.121140e-30
5.940000e+02 2.566938e-30
5.950000e+02 3.104394e-30
5.960000e+02 3.751933e-30
5.970000e+02 4.531601e-30
5.980000e+02 5.469756e-30
5.990000e+02 6.597893e-30
6.000000e+02 7.953625e-30
6.010000e+02 9.581839e-30
6.020000e+02 1.153607e-29
6.030000e+02 1.388013e-29
6.040000e+02 1.669004e-29
6.050000e+02 2.005628e-29
6.060000e+02 2.408653e-29
6.070000e+02 2.890880e-29
6.080000e+02 3.467523e-29
6.090000e+02 4.156650e-29
6.100000e+02 4.979704e-29
6.110000e+02 5.962124e-29
6.120000e+02 7.134065e-29
6.130000e+02 8.531258e-29
6.140000e+02 1.019601e-28
6.150000e+02 1.217839e-28
6.160000e+02 1.453763e-28
6.170000e+02 1.734371e-28
6.180000e+02 2.067934e-28
6.190000e+02 2.464217e-28
6.200000e+02 2.934742e-28
6.210000e+02 3.493098e-28
6.220000e+02 4.155304e-28
6.230000e+02 4.940231e-28
6.240000e+02 5.870096e-28
6.250000e+02 6.971046e-28
6.260000e+02 8.273831e-28
6.270000e+02 9.814597e-28
6.280000e+02 1.163581e-27
6.290000e+02 1.378733e-27
6.300000e+02 1.632767e-27
6.310000e+02 1.932547e-27
6.320000e+02 2.286120e-27
6.330000e+02 2.702911e-27
6.340000e+02 3.193962e-27
6.350000e+02 3.772193e-27
6.360000e+02 4.452722e-27
6.370000e+02 5.253221e-27
6.380000e+02 6.194344e-27
6.390000e+02 7.300215e-27
6.400000e+02 8.598996e-27
6.410000e+02 1.012355e-26
6.420000e+02 1.191219e-26
6.430000e+02 1.400959e-26
6.440000e+02 1.646778e-26
6.450000e+02 1.934737e-26
6.460000e+02 2.271888e-26
6.470000e+02 2.666435e-26
6.480000e+02 3.127918e-26
6.490000e+02 3.667421e-26
6.500000e+02 4.297823e-26
6.510000e+02 5.034073e-26
6.520000e+02 5.893519e-26
6.530000e+02 6.896284e-26
6.540000e+02 8.065695e-26
6.550000e+02 9.428784e-26
6.560000e+02 1.101686e-25
6.570000e+02 1.286616e-25
6.580000e+02 1.501863e-25
6.590000e+02 1.752277e-25
6.600000e+02 2.043466e-25
6.610000e+02 2.381908e-25
6.620000e+02 2.775086e-25
6.630000e+02 3.231639e-25
6.640000e+02 3.761535e-25
6.650000e+02 4.376270e-25
6.660000e+02 5.089098e-25
6.670000e+02 5.915291e-25
6.680000e+02 6.872439e-25
6.690000e+02 7.980794e-25
6.700000e+02 9.263662e-25
6.710000e+02 1.074785e-24
6.720000e+02 1.246417e-24
6.730000e+02 1.444805e-24
6.740000e+02 1.674017e-24
6.750000e+02 1.938725e-24
6.760000e+02 2.244292e-24
6.770000e+02 2.596868e-24
6.780000e+02 3.003508e-24
6.790000e+02 3.472297e-24
6.800000e+02 4.012499e-24
6.810000e+02 4.634725e-24
6.820000e+02 5.351120e-24
6.830000e+02 6.175583e-24
6.840000e+02 7.124011e-24
6.850000e+02 8.214581e-24
6.860000e+02 9.468067e-24
6.870000e+02 1.090820e-23
6.880000e+02 1.256208e-23
6.890000e+02 1.446063e-23
6.900000e+02 1.663916e-23
6.910000e+02 1.913791e-23
6.920000e+02 2.200277e-23
6.930000e+02 2.528605e-23
6.940000e+02 2.904732e-23
6.950000e+02 3.335441e-23
6.960000e+02 3.828454e-23
6.970000e+02 4.392557e-23
6.980000e+02 5.037740e-23
6.990000e+02 5.775365e-23
7.000000e+02 6.618340e-23
7.010000e+02 7.581331e-23
7.020000e+02 8.680993e-23
7.030000e+02 9.936229e-23
7.040000e+02 1.136849e-22
7.050000e+02 1.300210e-22
7.060000e+02 1.486466e-22
7.070000e+02 1.698742e-22
7.080000e+02 1.940581e-22
7.090000e+02 2.215996e-22
7.100000e+02 2.529527e-22
7.110000e+02 2.886314e-22
7.120000e+02 3.292174e-22
7.130000e+02 3.753681e-22
7.140000e+02 4.278269e-22
7.150000e+02 4.874337e-22
7.160000e+02 5.551377e-22
7.170000e+02 6.320100e-22
7.180000e+02 7.192604e-22
7.190000e+02 8.182535e-22
7.200000e+02 9.305289e-22
7.210000e+02 1.057823e-21
7.220000e+02 1.202091e-21
7.230000e+02 1.365539e-21
7.240000e+02 1.550650e-21
7.250000e+02 1.760220e-21
7.260000e+02 1.997397e-21
7.270000e+02 2.265722e-21
7.280000e+02 2.569179e-21
7.290000e+02 2.912247e-21
7.300000e+02 3.299963e-21
7.310000e+02 3.737982e-21
7.320000e+02 4.232659e-21
7.330000e+02 4.791133e-21
7.340000e+02 5.421411e-21
7.350000e+02 6.132484e-21
7.360000e+02 6.934435e-21
7.370000e+02 7.838570e-21
7.380000e+02 8.857566e-21
7.390000e+02 1.000563e-20
7.400000e+02 1.129867e-20
7.410000e+02 1.275451e-20
7.420000e+02 1.439310e-20
7.430000e+02 1.623678e-20
7.440000e+02 1.831051e-20
7.450000e+02 2.064226e-20
7.460000e+02 2.326326e-20
7.470000e+02 2.620842e-20
7.480000e+02 2.951678e-20
7.490000e+02 3.323190e-20
7.500000e+02 3.740248e-20
7.510000e+02 4.208283e-20
7.520000e+02 4.733359e-20
7.530000e+02 5.322241e-20
7.540000e+02 5.982473e-20
7.550000e+02 6.722465e-20
7.560000e+02 7.551592e-20
7.570000e+02 8.480302e-20
7.580000e+02 9.520230e-20
7.590000e+02 1.068433e-19
7.600000e+02 1.198703e-19
7.610000e+02 1.344438e-19
7.620000e+02 1.507425e-19
7.630000e+02 1.689649e-19
7.640000e+02 1.893319e-19
7.650000e+02 2.120889e-19
7.660000e+02 2.375089e-19
7.670000e+02 2.658949e-19
7.680000e+02 2.975834e-19
7.690000e+02 3.329481e-19
7.700000e+02 3.724037e-19
7.710000e+02 4.164104e-19
7.720000e+02 4.654788e-19
7.730000e+02 5.201750e-19
7.740000e+02 5.811265e-19
7.750000e+02 6.490290e-19
7.760000e+02 7.246532e-19
7.770000e+02 8.088529e-19
7.780000e+02 9.025734e-19
7.790000e+02 1.006861e-18
7.800000e+02 1.122875e-18
7.810000e+02 1.251897e-18
7.820000e+02 1.395343e-18
7.830000e+02 1.554783e-18
7.840000e+02 1.731949e-18
7.850000e+02 1.928757e-18
7.860000e+02 2.147324e-18
7.870000e+02 2.389987e-18
7.880000e+02 2.659328e-18
7.890000e+02 2.958198e-18
7.900000e+02 3.289744e-18
7.910000e+02 3.657436e-18
7.920000e+02 4.065105e-18
7.930000e+02 4.516974e-18
7.940000e+02 5.017699e-18
7.950000e+02 5.572414e-18
7.960000e+02 6.186774e-18
7.970000e+02 6.867011e-18
7.980000e+02 7.619988e-18
7.990000e+02 8.453261e-18
8.000000e+02 9.375151e-18
8.010000e+02 1.039481e-17
8.020000e+02 1.152231e-17
8.030000e+02 1.276874e-17
8.040000e+02 1.414628e-17
8.050000e+02 1.566831e-17
8.060000e+02 1.734958e-17
8.070000e+02 1.920625e-17
8.080000e+02 2.125610e-17
8.090000e+02 2.351865e-17
8.100000e+02 2.601533e-17
8.110000e+02 2.876968e-17
8.120000e+02 3.180751e-17
8.130000e+02 3.515716e-17
8.140000e+02 3.884972e-17
8.150000e+02 4.291926e-17
8.160000e+02 4.740316e-17
8.170000e+02 5.234237e-17
8.180000e+02 5.778180e-17
8.190000e+02 6.377061e-17
8.200000e+02 7.036269e-17
8.210000e+02 7.761702e-17
8.220000e+02 8.559820e-17
8.230000e+02 9.437691e-17
8.240000e+02 1.040305e-16
8.250000e+02 1.146437e-16
8.260000e+02 1.263089e-16
8.270000e+02 1.391275e-16
8.280000e+02 1.532101e-16
8.290000e+02 1.686777e-16
8.300000e+02 1.856625e-16
8.310000e+02 2.043088e-16
8.320000e+02 2.247745e-16
8.330000e+02 2.472318e-16
8.340000e+02 2.718688e-16
8.350000e+02 2.988907e-16
8.360000e+02 3.285215e-16
8.370000e+02 3.610057e-16
8.380000e+02 3.966099e-16
8.390000e+02 4.356247e-16
8.400000e+02 4.783672e-16
8.410000e+02 5.251829e-16
8.420000e+02 5.764482e-16
8.430000e+02 6.325736e-16
8.440000e+02 6.940058e-16
8.450000e+02 7.612317e-16
8.460000e+02 8.347812e-16
8.470000e+02 9.152312e-16
8.480000e+02 1.003210e-15
8.490000e+02 1.099400e-15
8.500000e+02 1.204545e-15
8.510000e+02 1.319454e-15
8.520000e+02 1.445006e-15
8.530000e+02 1.582156e-15
8.540000e+02 1.731944e-15
8.550000e+02 1.895499e-15
8.560000e+02 2.074048e-15
8.570000e+02 2.268923e-15
8.580000e+02 2.481572e-15
8.590000e+02 2.713566e-15
8.600000e+02 2.966612e-15
8.610000e+02 3.242562e-15
8.620000e+02 3.543424e-15
8.630000e+02 3.871381e-15
8.640000e+02 4.228796e-15
8.650000e+02 4.618234e-15
8.660000e+02 5.042477e-15
8.670000e+02 5.504539e-15
8.680000e+02 6.007688e-15
8.690000e+02 6.555465e-15
8.700000e+02 7.151705e-15
8.710000e+02 7.800565e-15
8.720000e+02 8.506544e-15
8.730000e+02 9.274514e-15
8.740000e+02 1.010975e-14
8.750000e+02 1.101796e-14
8.760000e+02 1.200533e-14
8.770000e+02 1.307853e-14
8.780000e+02 1.424480e-14
8.790000e+02 1.551195e-14
8.800000e+02 1.688844e-14
8.810000e+02 1.838342e-14
8.820000e+02 2.000675e-14
8.830000e+02 2.176911e-14
8.840000e+02 2.368205e-14
8.850000e+02 2.575801e-14
8.860000e+02 2.801046e-14
8.870000e+02 3.045393e-14
8.880000e+02 3.310410e-14
8.890000e+02 3.597792e-14
8.900000e+02 3.909366e-14
8.910000e+02 4.247103e-14
8.920000e+02 4.613133e-14
8.930000e+02 5.009749e-14
8.940000e+02 5.439426e-14
8.950000e+02 5.904833e-14
8.960000e+02 6.408846e-14
8.970000e+02 6.954567e-14
8.980000e+02 7.545336e-14
8.990000e+02 8.184754e-14
9.000000e+02 8.876699e-14
9.010000e+02 9.625348e-14
9.020000e+02 1.043520e-13
9.030000e+02 1.131110e-13
9.040000e+02 1.225825e-13
9.050000e+02 1.328227e-13
9.060000e+02 1.438921e-13
9.070000e+02 1.558554e-13
9.080000e+02 1.687828e-13
9.090000e+02 1.827492e-13
9.100000e+02 1.978355e-13
9.110000e+02 2.141286e-13
9.120000e+02 2.317220e-13
9.130000e+02 2.507161e-13
9.140000e+02 2.732398e-13
9.150000e+02 1.328962e-10
9.160000e+02 1.605521e-09
9.170000e+02 5.347993e-10
9.180000e+02 1.784909e-10
9.190000e+02 6.093821e-09
9.200000e+02 2.439913e-08
9.210000e+02 4.678788e-13
9.220000e+02 3.782818e-08
9.230000e+02 6.845439e-11
9.240000e+02 3.933376e-09
9.250000e+02 3.380960e-08
9.260000e+02 2.713545e-10
9.270000e+02 3.259528e-09
9.280000e+02 2.368865e-07
9.290000e+02 2.096435e-07
9.300000e+02 2.849314e-08
9.310000e+02 2.055788e-10
9.320000e+02 1.545737e-07
9.330000e+02 3.839588e-07
9.340000e+02 4.701397e-07
9.350000e+02 1.852997e-10
9.360000e+02 1.907756e-08
9.370000e+02 3.905076e-11
9.380000e+02 4.615559e-11
9.390000e+02 3.129361e-08
9.400000e+02 4.575730e-07
9.410000e+02 2.478379e-09
9.420000e+02 8.695939e-07
9.430000e+02 1.976609e-07
9.440000e+02 9.773092e-07
9.450000e+02 9.679511e-07
9.460000e+02 7.384590e-07
9.470000e+02 4.880008e-10
9.480000e+02 6.177352e-08
9.490000e+02 8.827935e-09
9.500000e+02 2.697332e-11
9.510000e+02 8.900111e-08
9.520000e+02 5.255632e-07
9.530000e+02 1.685000e-08
9.540000e+02 6.534933e-10
9.550000e+02 3.356563e-07
9.560000e+02 1.230175e-07
9.570000e+02 3.590435e-08
9.580000e+02 1.618901e-10
9.590000e+02 2.616134e-06
9.600000e+02 2.426077e-10
9.610000e+02 2.360332e-06
9.620000e+02 1.706461e-06
9.630000e+02 1.466401e-07
9.640000e+02 9.799805e-10
9.650000e+02 1.957915e-09
9.660000e+02 5.580991e-07
9.670000e+02 3.435207e-08
9.680000e+02 1.843352e-08
9.690000e+02 1.255628e-06
9.700000e+02 6.449809e-07
9.710000e+02 2.409891e-08
9.720000e+02 1.077646e-09
9.730000e+02 1.001897e-09
9.740000e+02 1.216556e-07
9.750000e+02 4.232835e-07
9.760000e+02 2.228791e-06
9.770000e+02 3.311651e-06
9.780000e+02 3.397593e-06
9.790000e+02 5.777076e-06
9.800000e+02 6.605666e-06
9.810000e+02 4.291381e-06
9.820000e+02 9.729138e-07
9.830000e+02 8.402276e-06
9.840000e+02 1.153116e-07
9.850000e+02 2.219356e-06
9.860000e+02 2.164748e-06
9.870000e+02 1.077991e-05
9.880000e+02 5.914444e-09
9.890000e+02 1.024223e-05
9.900000e+02 1.833556e-06
9.910000e+02 6.471831e-07
9.920000e+02 8.813039e-10
9.930000e+02 9.040306e-06
9.940000e+02 1.632543e-10
9.950000e+02 3.078699e-07
9.960000e+02 3.484092e-08
9.970000e+02 2.769298e-09
9.980000e+02 1.621166e-05
9.990000e+02 8.337457e-07
1.000000e+03 1.898661e-05
1.001000e+03 1.786257e-05
1.002000e+03 2.309753e-05
1.003000e+03 1.215210e-06
1.004000e+03 1.035187e-08
1.005000e+03 7.038860e-06
1.006000e+03 2.683859e-05
1.007000e+03 2.792096e-05
1.008000e+03 2.730792e-05
1.009000e+03 8.581610e-07
1.010000e+03 2.926411e-05
1.011000e+03 3.097446e-05
1.012000e+03 3.080021e-05
1.013000e+03 3.099636e-05
1.014000e+03 3.496098e-09
1.015000e+03 1.885201e-08
1.016000e+03 4.216545e-06
1.017000e+03 2.595698e-09
1.018000e+03 1.508683e-06
1.019000e+03 2.019806e-08
1.020000e+03 1.835409e-05
1.021000e+03 2.367278e-07
1.022000e+03 1.657286e-06
1.023000e+03 6.916275e-08
1.024000e+03 3.704327e-07
1.025000e+03 1.711857e-09
1.026000e+03 9.771961e-10
1.027000e+03 1.545720e-07
1.028000e+03 1.051842e-08
1.029000e+03 5.833499e-09
1.030000e+03 1.575427e-05
1.031000e+03 4.047863e-05
1.032000e+03 5.724787e-05
1.033000e+03 2.769375e-07
1.034000e+03 7.801411e-05
1.035000e+03 4.423782e-09
1.036000e+03 1.874287e-08
1.037000e+03 2.775681e-04
1.038000e+03 3.298964e-04
1.039000e+03 3.224298e-04
1.040000e+03 3.917388e-04
1.041000e+03 3.590505e-04
1.042000e+03 4.558884e-04
1.043000e+03 2.585513e-04
1.044000e+03 5.311734e-04
1.045000e+03 8.844310e-09
1.046000e+03 4.716163e-04
1.047000e+03 3.243656e-04
1.048000e+03 2.162240e-06
1.049000e+03 3.746348e-04
1.050000e+03 8.413702e-05
1.051000e+03 2.204202e-05
1.052000e+03 7.550722e-04
1.053000e+03 8.244278e-04
1.054000e+03 3.178138e-08
1.055000e+03 5.250430e-04
1.056000e+03 8.925998e-04
1.057000e+03 5.350762e-04
1.058000e+03 4.329659e-05
1.059000e+03 3.886642e-06
1.060000e+03 1.797336e-06
1.061000e+03 1.013189e-03
1.062000e+03 1.399009e-05
1.063000e+03 2.279459e-07
1.064000e+03 1.024455e-08
1.065000e+03 5.471520e-08
1.066000e+03 3.614341e-05
1.067000e+03 1.555626e-05
1.068000e+03 1.513421e-03
1.069000e+03 1.711426e-06
1.070000e+03 6.035392e-04
1.071000e+03 1.625466e-03
1.072000e+03 1.746601e-03
1.073000e+03 1.906883e-07
1.074000e+03 1.236296e-03
1.075000e+03 1.005684e-03
1.076000e+03 5.975285e-04
1.077000e+03 9.122305e-07
1.078000e+03 4.619407e-05
1.079000e+03 5.202316e-04
1.080000e+03 9.951782e-04
1.081000e+03 2.352387e-03
1.082000e+03 2.140770e-03
1.083000e+03 1.747924e-03
1.084000e+03 2.364433e-03
1.085000e+03 4.677349e-04
1.086000e+03 3.001081e-03
1.087000e+03 4.377612e-05
1.088000e+03 3.211581e-03
1.089000e+03 3.283770e-03
1.090000e+03 4.636238e-04
1.091000e+03 8.505859e-04
1.092000e+03 2.263459e-03
1.093000e+03 3.449954e-03
1.094000e+03 2.797302e-03
1.095000e+03 4.123694e-03
1.096000e+03 8.439855e-05
1.097000e+03 4.210871e-03
1.098000e+03 3.648075e-03
1.099000e+03 1.342338e-03
1.100000e+03 3.970046e-06
1.101000e+03 1.598379e-05
1.102000e+03 1.262237e-03
1.103000e+03 5.416661e-03
1.104000e+03 5.669404e-03
1.105000e+03 5.852912e-03
1.106000e+03 3.257993e-03
1.107000e+03 1.160661e-05
1.108000e+03 6.296277e-03
1.109000e+03 5.307221e-04
1.110000e+03 6.240023e-03
1.111000e+03 6.563156e-03
1.112000e+03 6.545928e-03
1.113000e+03 5.926979e-03
1.114000e+03 3.662119e-03
1.115000e+03 3.994247e-04
1.116000e+03 9.024247e-05
1.117000e+03 8.743020e-03
1.118000e+03 9.422628e-04
1.119000e+03 7.958241e-03
1.120000e+03 2.104314e-04
1.121000e+03 9.760119e-03
1.122000e+03 8.257424e-03
1.123000e+03 1.330539e-02
1.124000e+03 1.550424e-02
1.125000e+03 1.378595e-02
1.126000e+03 1.316284e-02
1.127000e+03 1.285167e-02
1.128000e+03 1.068686e-02
1.129000e+03 1.107920e-02
1.130000e+03 1.167182e-02
1.131000e+03 1.002174e-02
1.132000e+03 2.841000e-04
1.133000e+03 4.884864e-03
1.134000e+03 1.025461e-02
1.135000e+03 1.220121e-03
1.136000e+03 6.026353e-03
1.137000e+03 8.619384e-03
1.138000e+03 9.571233e-03
1.139000e+03 1.028503e-02
1.140000e+03 1.004319e-02
1.141000e+03 9.044948e-03
1.142000e+03 1.017029e-02
1.143000e+03 8.639098e-03
1.144000e+03 9.698562e-03
1.145000e+03 1.040809e-04
1.146000e+03 1.056463e-02
1.147000e+03 1.066389e-02
1.148000e+03 2.383089e-03
1.149000e+03 1.052040e-02
1.150000e+03 1.039749e-02
1.151000e+03 1.046014e-02
1.152000e+03 1.027571e-02
1.153000e+03 1.009602e-02
1.154000e+03 9.791302e-03
1.155000e+03 9.774261e-03
1.156000e+03 6.814634e-03
1.157000e+03 9.404671e-03
1.158000e+03 9.168843e-03
1.159000e+03 9.565771e-03
1.160000e+03 9.219015e-03
1.161000e+03 8.876382e-03
1.162000e+03 4.456291e-03
1.163000e+03 6.841405e-03
1.164000e+03 1.245504e-05
1.165000e+03 5.118969e-03
1.166000e+03 2.575589e-03
1.167000e+03 1.598701e-03
1.168000e+03 9.969188e-03
1.169000e+03 1.008494e-02
1.170000e+03 1.688014e-03
1.171000e+03 4.538151e-03
1.172000e+03 3.618746e-03
1.173000e+03 3.000275e-03
1.174000e+03 8.282224e-04
1.175000e+03 1.338637e-05
1.176000e+03 3.533904e-06
1.177000e+03 1.282274e-02
1.178000e+03 1.211145e-02
1.179000e+03 1.153720e-02
1.180000e+03 1.054079e-02
1.181000e+03 1.041404e-02
1.182000e+03 1.005597e-02
1.183000e+03 9.546131e-03
1.184000e+03 9.184036e-03
1.185000e+03 8.852268e-03
1.186000e+03 3.639912e-03
1.187000e+03 8.267989e-03
1.188000e+03 7.886196e-03
1.189000e+03 7.831984e-03
1.190000e+03 7.579022e-03
1.191000e+03 7.128093e-03
1.192000e+03 6.362968e-03
1.193000e+03 6.227233e-03
1.194000e+03 6.037770e-03
1.195000e+03 5.728134e-03
1.196000e+03 8.467852e-02
1.197000e+03 8.105934e-02
1.198000e+03 3.235533e-02
1.199000e+03 7.164786e-02
1.200000e+03 4.743682e-02
1.201000e+03 5.944795e-02
1.202000e+03 5.132420e-02
1.203000e+03 4.580193e-02
1.204000e+03 3.105645e-02
1.205000e+03 3.123215e-02
1.206000e+03 2.426656e-02
1.207000e+03 2.215965e-03
1.208000e+03 1.097857e-02
1.209000e+03 7.793165e-03
1.210000e+03 2.213940e-05
1.211000e+03 2.364998e-03
1.212000e+03 1.032629e-03
1.213000e+03 3.725694e-04
1.214000e+03 9.151596e-05
1.215000e+03 1.415850e-05
1.216000e+03 1.239332e-05
1.217000e+03 5.469084e-05
1.218000e+03 2.936242e-04
1.219000e+03 9.666310e-04
1.220000e+03 2.468239e-03
1.221000e+03 5.270027e-03
1.222000e+03 1.029107e-02
1.223000e+03 1.702007e-02
1.224000e+03 2.502364e-02
1.225000e+03 2.175543e-02
1.226000e+03 5.282851e-02
1.227000e+03 7.019882e-02
1.228000e+03 8.388440e-02
1.229000e+03 1.095548e-01
1.230000e+03 2.235048e-02
1.231000e+03 1.006152e-01
1.232000e+03 1.718490e-01
1.233000e+03 1.950457e-01
1.234000e+03 1.653917e-01
1.235000e+03 2.388699e-01
1.236000e+03 2.383603e-01
1.237000e+03 2.814436e-01
1.238000e+03 3.027501e-01
1.239000e+03 3.161095e-01
1.240000e+03 4.614308e-02
1.241000e+03 3.362677e-01
1.242000e+03 3.833437e-01
1.243000e+03 4.041295e-01
1.244000e+03 4.248210e-01
1.245000e+03 4.259432e-01
1.246000e+03 4.584830e-01
1.247000e+03 4.734588e-01
1.248000e+03 2.345639e-01
1.249000e+03 5.097366e-01
1.250000e+03 4.851272e-01
1.251000e+03 5.630079e-01
1.252000e+03 5.492388e-01
1.253000e+03 5.934538e-01
1.254000e+03 5.929517e-01
1.255000e+03 1.353532e-01
1.256000e+03 5.759100e-01
1.257000e+03 4.665211e-01
1.258000e+03 5.905792e-01
1.259000e+03 6.327149e-01
1.260000e+03 6.961533e-01
1.261000e+03 2.511799e-02
1.262000e+03 7.257488e-01
1.263000e+03 5.904890e-01
1.264000e+03 7.177818e-01
1.265000e+03 1.332353e-01
1.266000e+03 8.480738e-01
1.267000e+03 8.927578e-01
