# wavelength_A flux
5.000000e+02 1.999960e-09
5.010000e+02 2.280589e-09
5.020000e+02 2.599186e-09
5.030000e+02 2.960694e-09
5.040000e+02 3.370676e-09
5.050000e+02 3.895176e-09
5.060000e+02 4.429273e-09
5.070000e+02 5.033963e-09
5.080000e+02 5.718221e-09
5.090000e+02 6.492133e-09
5.100000e+02 7.366978e-09
5.110000e+02 8.355431e-09
5.120000e+02 9.471682e-09
5.130000e+02 1.073162e-08
5.140000e+02 1.215305e-08
5.150000e+02 1.375577e-08
5.160000e+02 1.556231e-08
5.170000e+02 1.759679e-08
5.180000e+02 1.988857e-08
5.190000e+02 2.246722e-08
5.200000e+02 2.536786e-08
5.210000e+02 2.862913e-08
5.220000e+02 3.229185e-08
5.230000e+02 3.641095e-08
5.240000e+02 4.103305e-08
5.250000e+02 4.622049e-08
5.260000e+02 5.203895e-08
5.270000e+02 5.856252e-08
5.280000e+02 6.587331e-08
5.290000e+02 7.405116e-08
5.300000e+02 8.323174e-08
5.310000e+02 9.349342e-08
5.320000e+02 1.049727e-07
5.330000e+02 1.178083e-07
5.340000e+02 1.321540e-07
5.350000e+02 1.481804e-07
5.360000e+02 1.660760e-07
5.370000e+02 1.846493e-07
5.380000e+02 2.083368e-07
5.390000e+02 2.331956e-07
5.400000e+02 2.609036e-07
5.410000e+02 2.917605e-07
5.420000e+02 3.261633e-07
5.430000e+02 3.644509e-07
5.440000e+02 4.070575e-07
5.450000e+02 4.544536e-07
5.460000e+02 5.070982e-07
5.470000e+02 5.657336e-07
5.480000e+02 6.308154e-07
5.490000e+02 7.030955e-07
5.500000e+02 7.833358e-07
5.510000e+02 8.723777e-07
5.520000e+02 9.711473e-07
5.530000e+02 1.080663e-06
5.540000e+02 1.202048e-06
5.550000e+02 1.336533e-06
5.560000e+02 1.485476e-06
5.570000e+02 1.650365e-06
5.580000e+02 1.832837e-06
5.590000e+02 2.034691e-06
5.600000e+02 2.257899e-06
5.610000e+02 2.504626e-06
5.620000e+02 2.777247e-06
5.630000e+02 3.078366e-06
5.640000e+02 3.410838e-06
5.650000e+02 3.777790e-06
5.660000e+02 4.182649e-06
5.670000e+02 4.629166e-06
5.680000e+02 5.121445e-06
5.690000e+02 5.663980e-06
5.700000e+02 6.261681e-06
5.710000e+02 6.919931e-06
5.720000e+02 7.644592e-06
5.730000e+02 8.442084e-06
5.740000e+02 9.319414e-06
5.750000e+02 1.028433e-05
5.760000e+02 1.134448e-05
5.770000e+02 1.251063e-05
5.780000e+02 1.379116e-05
5.790000e+02 1.519742e-05
5.800000e+02 1.674124e-05
5.810000e+02 1.843547e-05
5.820000e+02 2.029414e-05
5.830000e+02 2.233240e-05
5.840000e+02 2.456316e-05
5.850000e+02 2.701549e-05
5.860000e+02 2.969981e-05
5.870000e+02 3.263883e-05
5.880000e+02 3.585657e-05
5.890000e+02 3.937822e-05
5.900000e+02 4.323181e-05
5.910000e+02 4.744666e-05
5.920000e+02 5.205535e-05
5.930000e+02 5.709309e-05
5.940000e+02 6.259804e-05
5.950000e+02 6.861154e-05
5.960000e+02 7.517877e-05
5.970000e+02 8.234817e-05
5.980000e+02 9.017260e-05
5.990000e+02 9.870925e-05
6.000000e+02 1.080201e-04
6.010000e+02 1.181718e-04
6.020000e+02 1.292380e-04
6.030000e+02 1.412963e-04
6.040000e+02 1.544321e-04
6.050000e+02 1.687373e-04
6.060000e+02 1.843110e-04
6.070000e+02 2.012615e-04
6.080000e+02 2.197042e-04
6.090000e+02 2.397648e-04
6.100000e+02 2.615787e-04
6.110000e+02 2.852922e-04
6.120000e+02 3.110634e-04
6.130000e+02 3.390625e-04
6.140000e+02 3.694734e-04
6.150000e+02 4.024945e-04
6.160000e+02 4.383393e-04
6.170000e+02 4.772384e-04
6.180000e+02 5.194400e-04
6.190000e+02 5.652116e-04
6.200000e+02 6.148414e-04
6.210000e+02 6.686394e-04
6.220000e+02 7.269396e-04
6.230000e+02 7.901013e-04
6.240000e+02 8.585112e-04
6.250000e+02 9.325849e-04
6.260000e+02 1.012770e-03
6.270000e+02 1.099546e-03
6.280000e+02 1.193431e-03
6.290000e+02 1.294978e-03
6.300000e+02 1.404786e-03
6.310000e+02 1.523192e-03
6.320000e+02 1.651786e-03
6.330000e+02 1.790400e-03
6.340000e+02 1.940140e-03
6.350000e+02 2.101832e-03
6.360000e+02 2.276327e-03
6.370000e+02 2.464851e-03
6.380000e+02 2.668183e-03
6.390000e+02 2.887539e-03
6.400000e+02 3.124119e-03
6.410000e+02 3.379214e-03
6.420000e+02 3.654201e-03
6.430000e+02 3.950559e-03
6.440000e+02 4.269867e-03
6.450000e+02 4.613817e-03
6.460000e+02 4.984224e-03
6.470000e+02 5.383016e-03
6.480000e+02 5.812273e-03
6.490000e+02 6.274203e-03
6.500000e+02 6.771172e-03
6.510000e+02 7.305716e-03
6.520000e+02 7.880529e-03
6.530000e+02 8.498502e-03
6.540000e+02 9.162715e-03
6.550000e+02 9.876462e-03
6.560000e+02 1.064325e-02
6.570000e+02 1.146676e-02
6.580000e+02 1.235121e-02
6.590000e+02 1.330065e-02
6.600000e+02 1.431970e-02
6.610000e+02 1.541322e-02
6.620000e+02 1.658637e-02
6.630000e+02 1.784466e-02
6.640000e+02 1.919397e-02
6.650000e+02 2.064056e-02
6.660000e+02 2.219110e-02
6.670000e+02 2.385267e-02
6.680000e+02 2.563283e-02
6.690000e+02 2.753963e-02
6.700000e+02 2.958160e-02
6.710000e+02 3.176789e-02
6.720000e+02 3.410814e-02
6.730000e+02 3.661267e-02
6.740000e+02 3.929243e-02
6.750000e+02 4.215905e-02
6.760000e+02 4.522490e-02
6.770000e+02 4.850314e-02
6.780000e+02 5.200772e-02
6.790000e+02 5.575348e-02
6.800000e+02 5.975617e-02
6.810000e+02 6.403252e-02
6.820000e+02 6.860028e-02
6.830000e+02 7.347830e-02
6.840000e+02 7.868655e-02
6.850000e+02 8.424625e-02
6.860000e+02 9.017991e-02
6.870000e+02 9.651134e-02
6.880000e+02 1.032659e-01
6.890000e+02 1.104704e-01
6.900000e+02 1.181532e-01
6.910000e+02 1.263444e-01
6.920000e+02 1.350760e-01
6.930000e+02 1.443817e-01
6.940000e+02 1.542973e-01
6.950000e+02 1.648607e-01
6.960000e+02 1.761121e-01
6.970000e+02 1.880923e-01
6.980000e+02 2.008507e-01
6.990000e+02 2.144305e-01
7.000000e+02 2.288834e-01
7.010000e+02 2.442625e-01
7.020000e+02 2.606241e-01
7.030000e+02 2.780277e-01
7.040000e+02 2.965361e-01
7.050000e+02 3.162156e-01
7.060000e+02 3.371365e-01
7.070000e+02 3.593730e-01
7.080000e+02 3.830032e-01
7.090000e+02 4.081099e-01
7.100000e+02 4.347806e-01
7.110000e+02 4.631073e-01
7.120000e+02 4.931873e-01
7.130000e+02 5.251234e-01
7.140000e+02 5.590239e-01
7.150000e+02 5.950030e-01
7.160000e+02 6.331816e-01
7.170000e+02 6.736858e-01
7.180000e+02 7.166483e-01
7.190000e+02 7.622197e-01
7.200000e+02 8.105382e-01
7.210000e+02 8.617647e-01
7.220000e+02 9.160646e-01
7.230000e+02 9.736124e-01
7.240000e+02 1.034592e+00
7.250000e+02 1.099196e+00
7.260000e+02 1.167628e+00
7.270000e+02 1.240104e+00
7.280000e+02 1.316848e+00
7.290000e+02 1.398098e+00
7.300000e+02 1.484104e+00
7.310000e+02 1.575130e+00
7.320000e+02 1.671451e+00
7.330000e+02 1.773360e+00
7.340000e+02 1.881161e+00
7.350000e+02 1.995177e+00
7.360000e+02 2.115745e+00
7.370000e+02 2.243223e+00
7.380000e+02 2.377984e+00
7.390000e+02 2.520419e+00
7.400000e+02 2.670941e+00
7.410000e+02 2.829986e+00
7.420000e+02 2.998006e+00
7.430000e+02 3.175482e+00
7.440000e+02 3.362914e+00
7.450000e+02 3.560829e+00
7.460000e+02 3.769781e+00
7.470000e+02 3.990350e+00
7.480000e+02 4.223145e+00
7.490000e+02 4.468807e+00
7.500000e+02 4.728004e+00
7.510000e+02 5.001442e+00
7.520000e+02 5.289856e+00
7.530000e+02 5.594020e+00
7.540000e+02 5.914747e+00
7.550000e+02 6.252883e+00
7.560000e+02 6.609324e+00
7.570000e+02 6.984987e+00
7.580000e+02 7.380888e+00
7.590000e+02 7.798008e+00
7.600000e+02 8.237455e+00
7.610000e+02 8.700335e+00
7.620000e+02 9.187827e+00
7.630000e+02 9.701164e+00
7.640000e+02 1.024164e+01
7.650000e+02 1.081060e+01
7.660000e+02 1.140947e+01
7.670000e+02 1.203972e+01
7.680000e+02 1.270288e+01
7.690000e+02 1.340062e+01
7.700000e+02 1.413460e+01
7.710000e+02 1.490658e+01
7.720000e+02 1.571844e+01
7.730000e+02 1.657211e+01
7.740000e+02 1.746960e+01
7.750000e+02 1.841304e+01
7.760000e+02 1.940449e+01
7.770000e+02 2.044673e+01
7.780000e+02 2.154170e+01
7.790000e+02 2.269209e+01
7.800000e+02 2.390053e+01
7.810000e+02 2.516978e+01
7.820000e+02 2.650272e+01
7.830000e+02 2.790234e+01
7.840000e+02 2.937178e+01
7.850000e+02 3.091433e+01
7.860000e+02 3.253339e+01
7.870000e+02 3.423256e+01
7.880000e+02 3.601550e+01
7.890000e+02 3.788614e+01
7.900000e+02 3.984851e+01
7.910000e+02 4.190684e+01
7.920000e+02 4.406555e+01
7.930000e+02 4.632923e+01
7.940000e+02 4.870267e+01
7.950000e+02 5.119086e+01
7.960000e+02 5.379903e+01
7.970000e+02 5.653260e+01
7.980000e+02 5.939722e+01
7.990000e+02 6.239880e+01
8.000000e+02 6.554348e+01
8.010000e+02 6.883765e+01
8.020000e+02 7.228802e+01
8.030000e+02 7.590150e+01
8.040000e+02 7.968532e+01
8.050000e+02 8.364703e+01
8.060000e+02 8.779448e+01
8.070000e+02 9.213582e+01
8.080000e+02 9.667955e+01
8.090000e+02 1.014345e+02
8.100000e+02 1.064100e+02
8.110000e+02 1.116154e+02
8.120000e+02 1.170609e+02
8.130000e+02 1.227567e+02
8.140000e+02 1.287137e+02
8.150000e+02 1.349431e+02
8.160000e+02 1.414566e+02
8.170000e+02 1.482662e+02
8.180000e+02 1.553846e+02
8.190000e+02 1.628250e+02
8.200000e+02 1.706009e+02
8.210000e+02 1.787266e+02
8.220000e+02 1.872167e+02
8.230000e+02 1.960866e+02
8.240000e+02 2.053522e+02
8.250000e+02 2.150300e+02
8.260000e+02 2.251371e+02
8.270000e+02 2.356914e+02
8.280000e+02 2.467114e+02
8.290000e+02 2.582164e+02
8.300000e+02 2.702263e+02
8.310000e+02 2.827618e+02
8.320000e+02 2.958445e+02
8.330000e+02 3.094966e+02
8.340000e+02 3.237415e+02
8.350000e+02 3.385936e+02
8.360000e+02 3.541057e+02
8.370000e+02 3.702773e+02
8.380000e+02 3.871427e+02
8.390000e+02 4.047306e+02
8.400000e+02 4.230697e+02
8.410000e+02 4.421900e+02
8.420000e+02 4.621199e+02
8.430000e+02 4.829004e+02
8.440000e+02 5.045560e+02
8.450000e+02 5.271244e+02
8.460000e+02 5.506414e+02
8.470000e+02 5.751445e+02
8.480000e+02 6.006721e+02
8.490000e+02 6.272643e+02
8.500000e+02 6.549625e+02
8.510000e+02 6.838096e+02
8.520000e+02 7.138502e+02
8.530000e+02 7.451304e+02
8.540000e+02 7.776989e+02
8.550000e+02 8.116031e+02
8.560000e+02 8.468954e+02
8.570000e+02 8.836285e+02
8.580000e+02 9.218576e+02
8.590000e+02 9.616393e+02
8.600000e+02 1.003033e+03
8.610000e+02 1.046098e+03
8.620000e+02 1.090899e+03
8.630000e+02 1.137501e+03
8.640000e+02 1.185970e+03
8.650000e+02 1.236378e+03
8.660000e+02 1.288796e+03
8.670000e+02 1.343298e+03
8.680000e+02 1.399963e+03
8.690000e+02 1.458869e+03
8.700000e+02 1.520099e+03
8.710000e+02 1.583742e+03
8.720000e+02 1.649882e+03
8.730000e+02 1.718612e+03
8.740000e+02 1.790026e+03
8.750000e+02 1.864223e+03
8.760000e+02 1.941302e+03
8.770000e+02 2.021368e+03
8.780000e+02 2.104530e+03
8.790000e+02 2.190898e+03
8.800000e+02 2.280587e+03
8.810000e+02 2.373717e+03
8.820000e+02 2.470409e+03
8.830000e+02 2.570792e+03
8.840000e+02 2.674996e+03
8.850000e+02 2.783156e+03
8.860000e+02 2.895412e+03
8.870000e+02 3.011908e+03
8.880000e+02 3.132794e+03
8.890000e+02 3.258223e+03
8.900000e+02 3.388353e+03
8.910000e+02 3.523349e+03
8.920000e+02 3.662173e+03
8.930000e+02 3.808620e+03
8.940000e+02 3.959250e+03
8.950000e+02 4.115454e+03
8.960000e+02 4.277426e+03
8.970000e+02 4.445363e+03
8.980000e+02 4.619468e+03
8.990000e+02 4.799953e+03
9.000000e+02 4.987034e+03
9.010000e+02 5.180936e+03
9.020000e+02 5.381889e+03
9.030000e+02 5.590130e+03
9.040000e+02 5.805907e+03
9.050000e+02 6.029472e+03
9.060000e+02 6.261086e+03
9.070000e+02 6.501005e+03
9.080000e+02 6.749543e+03
9.090000e+02 7.006949e+03
9.100000e+02 7.273531e+03
9.110000e+02 7.549596e+03
9.120000e+02 7.835483e+03
9.130000e+02 8.117054e+03
9.140000e+02 8.485673e+03
9.150000e+02 2.263530e+04
9.160000e+02 4.541201e+04
9.170000e+02 4.595481e+04
9.180000e+02 3.924871e+04
9.190000e+02 8.375289e+04
9.200000e+02 1.085708e+05
9.210000e+02 1.088344e+04
9.220000e+02 1.211079e+05
9.230000e+02 5.015698e+04
9.240000e+02 9.636971e+04
9.250000e+02 1.221270e+05
9.260000e+02 7.877330e+04
9.270000e+02 1.013065e+05
9.280000e+02 1.586314e+05
9.290000e+02 1.440286e+05
9.300000e+02 1.559427e+05
9.310000e+02 8.275162e+04
9.320000e+02 1.773352e+05
9.330000e+02 1.725810e+05
9.340000e+02 1.669957e+05
9.350000e+02 3.215155e+04
9.360000e+02 1.240476e+05
9.370000e+02 2.801329e+04
9.380000e+02 7.997670e+04
9.390000e+02 1.436677e+05
9.400000e+02 2.264133e+05
9.410000e+02 8.873277e+04
9.420000e+02 2.422071e+05
9.430000e+02 1.765017e+05
9.440000e+02 2.002871e+05
9.450000e+02 2.640081e+05
9.460000e+02 2.589711e+05
9.470000e+02 1.347847e+05
9.480000e+02 2.669066e+05
9.490000e+02 2.680945e+05
9.500000e+02 5.113748e+04
9.510000e+02 2.727215e+05
9.520000e+02 3.012729e+05
9.530000e+02 1.477311e+05
9.540000e+02 1.541651e+05
9.550000e+02 2.908299e+05
9.560000e+02 3.480815e+05
9.570000e+02 1.689648e+05
9.580000e+02 1.214394e+05
9.590000e+02 3.928942e+05
9.600000e+02 6.018622e+04
9.610000e+02 3.824264e+05
9.620000e+02 3.521361e+05
9.630000e+02 3.720546e+05
9.640000e+02 5.018809e+04
9.650000e+02 2.244045e+05
9.660000e+02 3.845004e+05
9.670000e+02 3.032650e+05
9.680000e+02 2.380358e+05
9.690000e+02 4.441676e+05
9.700000e+02 4.401205e+05
9.710000e+02 3.104177e+05
9.720000e+02 3.553026e+05
9.730000e+02 4.255576e+05
9.740000e+02 5.121957e+05
9.750000e+02 4.836124e+05
9.760000e+02 6.084019e+05
9.770000e+02 6.096996e+05
9.780000e+02 5.590822e+05
9.790000e+02 6.807332e+05
9.800000e+02 6.993242e+05
9.810000e+02 6.368575e+05
9.820000e+02 5.033821e+05
9.830000e+02 7.501282e+05
9.840000e+02 2.967230e+05
9.850000e+02 6.607430e+05
9.860000e+02 6.637981e+05
9.870000e+02 8.326251e+05
9.880000e+02 3.949609e+05
9.890000e+02 6.531764e+05
9.900000e+02 1.334362e+05
9.910000e+02 4.983433e+05
9.920000e+02 3.011372e+05
9.930000e+02 9.477288e+05
9.940000e+02 1.412728e+05
9.950000e+02 2.773266e+05
9.960000e+02 5.384808e+05
9.970000e+02 2.555024e+05
9.980000e+02 1.053261e+06
9.990000e+02 7.278845e+05
1.000000e+03 1.173595e+06
1.001000e+03 1.211761e+06
1.002000e+03 1.231123e+06
1.003000e+03 8.685640e+05
1.004000e+03 6.552322e+05
1.005000e+03 9.603381e+05
1.006000e+03 1.355064e+06
1.007000e+03 1.402918e+06
1.008000e+03 1.400742e+06
1.009000e+03 1.093483e+06
1.010000e+03 1.470698e+06
1.011000e+03 1.537659e+06
1.012000e+03 1.537762e+06
1.013000e+03 1.557569e+06
1.014000e+03 5.216154e+05
1.015000e+03 7.419903e+05
1.016000e+03 1.192227e+06
1.017000e+03 5.801538e+05
1.018000e+03 1.326881e+06
1.019000e+03 8.416896e+05
1.020000e+03 1.919178e+06
1.021000e+03 9.091403e+05
1.022000e+03 1.297125e+06
1.023000e+03 9.085759e+05
1.024000e+03 1.955057e+06
1.025000e+03 6.413991e+05
1.026000e+03 6.990826e+05
1.027000e+03 1.809394e+06
1.028000e+03 4.731132e+05
1.029000e+03 8.134771e+05
1.030000e+03 2.176068e+06
1.031000e+03 1.890619e+06
1.032000e+03 2.486543e+06
1.033000e+03 8.227875e+05
1.034000e+03 2.397227e+06
1.035000e+03 5.113200e+05
1.036000e+03 1.005885e+06
1.037000e+03 2.632356e+06
1.038000e+03 2.981842e+06
1.039000e+03 2.947952e+06
1.040000e+03 3.031728e+06
1.041000e+03 3.210902e+06
1.042000e+03 3.244647e+06
1.043000e+03 3.183995e+06
1.044000e+03 3.466035e+06
1.045000e+03 3.442589e+06
1.046000e+03 3.592401e+06
1.047000e+03 3.155184e+06
1.048000e+03 1.994881e+06
1.049000e+03 3.562032e+06
1.050000e+03 3.457542e+06
1.051000e+03 3.174248e+06
1.052000e+03 4.076734e+06
1.053000e+03 4.225789e+06
1.054000e+03 1.499799e+06
1.055000e+03 4.466361e+06
1.056000e+03 4.575580e+06
1.057000e+03 4.232253e+06
1.058000e+03 4.102196e+06
1.059000e+03 2.965047e+06
1.060000e+03 2.729928e+06
1.061000e+03 4.684740e+06
1.062000e+03 4.027826e+06
1.063000e+03 2.512970e+06
1.064000e+03 1.056834e+06
1.065000e+03 2.106026e+06
1.066000e+03 5.113035e+06
1.067000e+03 3.315842e+06
1.068000e+03 6.043916e+06
1.069000e+03 2.659610e+06
1.070000e+03 5.816923e+06
1.071000e+03 6.443194e+06
1.072000e+03 6.554976e+06
1.073000e+03 2.774948e+06
1.074000e+03 5.808926e+06
1.075000e+03 5.594368e+06
1.076000e+03 7.174402e+06
1.077000e+03 4.785516e+06
1.078000e+03 5.983248e+06
1.079000e+03 6.805802e+06
1.080000e+03 7.193906e+06
1.081000e+03 7.598300e+06
1.082000e+03 7.747021e+06
1.083000e+03 7.675961e+06
1.084000e+03 8.597030e+06
1.085000e+03 6.672862e+06
1.086000e+03 8.959681e+06
1.087000e+03 5.638864e+06
1.088000e+03 9.358289e+06
1.089000e+03 9.581157e+06
1.090000e+03 7.538493e+06
1.091000e+03 7.533809e+06
1.092000e+03 1.016971e+07
1.093000e+03 1.037554e+07
1.094000e+03 1.018190e+07
1.095000e+03 1.086289e+07
1.096000e+03 1.063453e+07
1.097000e+03 1.080341e+07
1.098000e+03 1.153232e+07
1.099000e+03 1.073087e+07
1.100000e+03 6.590295e+06
1.101000e+03 7.621471e+06
1.102000e+03 1.382971e+07
1.103000e+03 6.970086e+07
1.104000e+03 2.899449e+07
1.105000e+03 1.248726e+07
1.106000e+03 5.203291e+07
1.107000e+03 7.865704e+06
1.108000e+03 8.702325e+07
1.109000e+03 1.683750e+07
1.110000e+03 5.080852e+07
1.111000e+03 2.772330e+07
1.112000e+03 7.334782e+07
1.113000e+03 1.328089e+08
1.114000e+03 1.015032e+07
1.115000e+03 2.963830e+07
1.116000e+03 2.394582e+07
1.117000e+03 9.915440e+06
1.118000e+03 2.216566e+07
1.119000e+03 9.389254e+07
1.120000e+03 2.611479e+07
1.121000e+03 1.171040e+08
1.122000e+03 4.111440e+06
1.123000e+03 3.369220e+07
1.124000e+03 1.346948e+08
1.125000e+03 9.235723e+07
1.126000e+03 1.730822e+08
1.127000e+03 1.525232e+08
1.128000e+03 6.711067e+07
1.129000e+03 1.035908e+08
1.130000e+03 1.479284e+08
1.131000e+03 1.739919e+08
1.132000e+03 1.282610e+07
1.133000e+03 3.388328e+07
1.134000e+03 1.049901e+08
1.135000e+03 1.018058e+07
1.136000e+03 6.411298e+07
1.137000e+03 1.785770e+08
1.138000e+03 1.063121e+08
1.139000e+03 1.906050e+08
1.140000e+03 7.542956e+06
1.141000e+03 1.826920e+08
1.142000e+03 2.133428e+08
1.143000e+03 1.726490e+08
1.144000e+03 2.218745e+08
1.145000e+03 2.454491e+07
1.146000e+03 2.345154e+08
1.147000e+03 2.145931e+08
1.148000e+03 4.694614e+07
1.149000e+03 2.115353e+08
1.150000e+03 1.521885e+08
1.151000e+03 2.496260e+08
1.152000e+03 2.323234e+08
1.153000e+03 1.317882e+08
1.154000e+03 2.015648e+08
1.155000e+03 1.945492e+08
1.156000e+03 1.515104e+08
1.157000e+03 2.718278e+08
1.158000e+03 1.424328e+07
1.159000e+03 2.341424e+08
1.160000e+03 1.479752e+08
1.161000e+03 2.718372e+08
1.162000e+03 5.988467e+07
1.163000e+03 1.223221e+08
1.164000e+03 1.371757e+07
1.165000e+03 2.882966e+08
1.166000e+03 2.485311e+08
1.167000e+03 2.316880e+08
1.168000e+03 3.212031e+08
1.169000e+03 3.216356e+08
1.170000e+03 2.748038e+08
1.171000e+03 2.888622e+08
1.172000e+03 1.730636e+08
1.173000e+03 3.398017e+08
1.174000e+03 6.433739e+07
1.175000e+03 1.615498e+07
1.176000e+03 1.483906e+07
1.177000e+03 3.728089e+08
1.178000e+03 3.735081e+08
1.179000e+03 3.632198e+08
1.180000e+03 2.257584e+08
1.181000e+03 3.944260e+08
1.182000e+03 3.638402e+08
1.183000e+03 3.196762e+08
1.184000e+03 2.985797e+08
1.185000e+03 3.606372e+08
1.186000e+03 1.552284e+08
1.187000e+03 3.624451e+08
1.188000e+03 2.315127e+08
1.189000e+03 2.081744e+07
1.190000e+03 1.585281e+08
1.191000e+03 3.511818e+08
1.192000e+03 4.163162e+08
1.193000e+03 1.955901e+07
1.194000e+03 2.364893e+07
1.195000e+03 3.476308e+08
1.196000e+03 4.063130e+08
1.197000e+03 5.961692e+08
1.198000e+03 2.655904e+08
1.199000e+03 5.892017e+08
1.200000e+03 2.878013e+08
1.201000e+03 5.601807e+08
1.202000e+03 3.782227e+08
1.203000e+03 6.000280e+08
1.204000e+03 2.375902e+08
1.205000e+03 5.071592e+08
1.206000e+03 5.145896e+08
1.207000e+03 1.099068e+08
1.208000e+03 4.021556e+08
1.209000e+03 3.384372e+08
1.210000e+03 3.076590e+07
1.211000e+03 2.071263e+08
1.212000e+03 1.396025e+08
1.213000e+03 9.530255e+07
1.214000e+03 5.802674e+07
1.215000e+03 3.661577e+07
1.216000e+03 3.285250e+07
1.217000e+03 5.162374e+07
1.218000e+03 8.807685e+07
1.219000e+03 1.449546e+08
1.220000e+03 1.728008e+08
1.221000e+03 3.057145e+08
1.222000e+03 3.729967e+08
1.223000e+03 4.739053e+08
1.224000e+03 6.002790e+08
1.225000e+03 2.760531e+08
1.226000e+03 7.962116e+08
1.227000e+03 8.544773e+08
1.228000e+03 5.267274e+08
1.229000e+03 8.578199e+08
1.230000e+03 7.765288e+08
1.231000e+03 5.451729e+08
1.232000e+03 1.271240e+09
1.233000e+03 1.360637e+09
1.234000e+03 1.040624e+09
1.235000e+03 1.406225e+09
1.236000e+03 6.604874e+08
1.237000e+03 1.543063e+09
1.238000e+03 1.381079e+09
1.239000e+03 1.376510e+09
1.240000e+03 1.416266e+09
1.241000e+03 1.400531e+09
1.242000e+03 1.397345e+09
1.243000e+03 1.940001e+09
1.244000e+03 1.380050e+09
1.245000e+03 1.550262e+09
1.246000e+03 2.022339e+09
1.247000e+03 2.024803e+09
1.248000e+03 1.375923e+09
1.249000e+03 1.735341e+09
1.250000e+03 2.243555e+09
1.251000e+03 2.713427e+09
1.252000e+03 2.410104e+09
1.253000e+03 2.740724e+09
1.254000e+03 2.423479e+09
1.255000e+03 2.880902e+09
1.256000e+03 2.486338e+09
1.257000e+03 2.811935e+09
1.258000e+03 1.923730e+09
1.259000e+03 2.569085e+09
1.260000e+03 2.937111e+09
1.261000e+03 7.541488e+07
1.262000e+03 1.048555e+09
1.263000e+03 3.070031e+09
1.264000e+03 2.243835e+09
1.265000e+03 7.889267e+07
1.266000e+03 3.078433e+09
1.267000e+03 2.497638e+09
