# wavelength_A flux
5.000000e+02 2.379757e-33
5.010000e+02 3.029558e-33
5.020000e+02 3.853005e-33
5.030000e+02 4.895489e-33
5.040000e+02 6.214002e-33
5.050000e+02 7.883464e-33
5.060000e+02 9.987352e-33
5.070000e+02 1.264057e-32
5.080000e+02 1.598368e-32
5.090000e+02 2.019183e-32
5.100000e+02 2.547493e-32
5.110000e+02 3.213348e-32
5.120000e+02 4.048022e-32
5.130000e+02 5.094886e-32
5.140000e+02 6.406586e-32
5.150000e+02 8.048676e-32
5.160000e+02 1.010253e-31
5.170000e+02 1.266912e-31
5.180000e+02 1.587359e-31
5.190000e+02 1.987094e-31
5.200000e+02 2.485300e-31
5.210000e+02 3.105691e-31
5.220000e+02 3.877555e-31
5.230000e+02 4.837085e-31
5.240000e+02 6.028845e-31
5.250000e+02 7.507793e-31
5.260000e+02 9.341582e-31
5.270000e+02 1.161344e-30
5.280000e+02 1.442565e-30
5.290000e+02 1.790384e-30
5.300000e+02 2.220216e-30
5.310000e+02 2.750964e-30
5.320000e+02 3.405784e-30
5.330000e+02 4.213022e-30
5.340000e+02 5.207350e-30
5.350000e+02 6.431147e-30
5.360000e+02 7.936160e-30
5.370000e+02 9.784695e-30
5.380000e+02 1.205630e-29
5.390000e+02 1.484223e-29
5.400000e+02 1.825755e-29
5.410000e+02 2.244120e-29
5.420000e+02 2.756206e-29
5.430000e+02 3.382527e-29
5.440000e+02 4.147979e-29
5.450000e+02 5.082758e-29
5.460000e+02 6.223458e-29
5.470000e+02 7.614395e-29
5.480000e+02 9.309195e-29
5.490000e+02 1.137271e-28
5.500000e+02 1.388328e-28
5.510000e+02 1.693553e-28
5.520000e+02 2.064362e-28
5.530000e+02 2.514518e-28
5.540000e+02 3.060605e-28
5.550000e+02 3.722590e-28
5.560000e+02 4.524497e-28
5.570000e+02 5.495209e-28
5.580000e+02 6.669428e-28
5.590000e+02 8.088819e-28
5.600000e+02 9.803372e-28
5.610000e+02 1.187302e-27
5.620000e+02 1.436959e-27
5.630000e+02 1.737905e-27
5.640000e+02 2.100429e-27
5.650000e+02 2.536834e-27
5.660000e+02 3.061819e-27
5.670000e+02 3.692939e-27
5.680000e+02 4.451142e-27
5.690000e+02 5.361410e-27
5.700000e+02 6.453515e-27
5.710000e+02 7.762918e-27
5.720000e+02 9.331825e-27
5.730000e+02 1.121043e-26
5.740000e+02 1.345842e-26
5.750000e+02 1.614668e-26
5.760000e+02 1.935937e-26
5.770000e+02 2.319635e-26
5.780000e+02 2.777600e-26
5.790000e+02 3.323862e-26
5.800000e+02 3.975034e-26
5.810000e+02 4.750780e-26
5.820000e+02 5.674356e-26
5.830000e+02 6.773250e-26
5.840000e+02 8.079932e-26
5.850000e+02 9.632755e-26
5.860000e+02 1.147695e-25
5.870000e+02 1.366585e-25
5.880000e+02 1.626233e-25
5.890000e+02 1.934042e-25
5.900000e+02 2.298729e-25
5.910000e+02 2.730547e-25
5.920000e+02 3.241549e-25
5.930000e+02 3.845901e-25
5.940000e+02 4.560238e-25
5.950000e+02 5.404084e-25
5.960000e+02 6.400341e-25
5.970000e+02 7.575858e-25
5.980000e+02 8.962096e-25
5.990000e+02 1.059589e-24
6.000000e+02 1.252037e-24
6.010000e+02 1.478596e-24
6.020000e+02 1.745163e-24
6.030000e+02 2.058626e-24
6.040000e+02 2.427033e-24
6.050000e+02 2.859773e-24
6.060000e+02 3.367800e-24
6.070000e+02 3.963886e-24
6.080000e+02 4.662913e-24
6.090000e+02 5.482213e-24
6.100000e+02 6.441964e-24
6.110000e+02 7.565636e-24
6.120000e+02 8.880524e-24
6.130000e+02 1.041835e-23
6.140000e+02 1.221596e-23
6.150000e+02 1.431613e-23
6.160000e+02 1.676850e-23
6.170000e+02 1.963065e-23
6.180000e+02 2.296930e-23
6.190000e+02 2.686179e-23
6.200000e+02 3.139764e-23
6.210000e+02 3.668050e-23
6.220000e+02 4.283026e-23
6.230000e+02 4.998555e-23
6.240000e+02 5.830659e-23
6.250000e+02 6.797844e-23
6.260000e+02 7.921479e-23
6.270000e+02 9.226222e-23
6.280000e+02 1.074052e-22
6.290000e+02 1.249715e-22
6.300000e+02 1.453391e-22
6.310000e+02 1.689432e-22
6.320000e+02 1.962849e-22
6.330000e+02 2.279405e-22
6.340000e+02 2.645733e-22
6.350000e+02 3.069455e-22
6.360000e+02 3.559329e-22
6.370000e+02 4.125417e-22
6.380000e+02 4.779267e-22
6.390000e+02 5.534131e-22
6.400000e+02 6.405207e-22
6.410000e+02 7.409921e-22
6.420000e+02 8.568239e-22
6.430000e+02 9.903031e-22
6.440000e+02 1.144048e-21
6.450000e+02 1.321054e-21
6.460000e+02 1.524749e-21
6.470000e+02 1.759051e-21
6.480000e+02 2.028439e-21
6.490000e+02 2.338026e-21
6.500000e+02 2.693654e-21
6.510000e+02 3.101989e-21
6.520000e+02 3.570636e-21
6.530000e+02 4.108267e-21
6.540000e+02 4.724766e-21
6.550000e+02 5.431397e-21
6.560000e+02 6.240986e-21
6.570000e+02 7.168133e-21
6.580000e+02 8.229456e-21
6.590000e+02 9.443852e-21
6.600000e+02 1.083281e-20
6.610000e+02 1.242075e-20
6.620000e+02 1.423541e-20
6.630000e+02 1.630829e-20
6.640000e+02 1.867515e-20
6.650000e+02 2.137657e-20
6.660000e+02 2.445856e-20
6.670000e+02 2.797328e-20
6.680000e+02 3.197985e-20
6.690000e+02 3.654524e-20
6.700000e+02 4.174528e-20
6.710000e+02 4.766580e-20
6.720000e+02 5.440392e-20
6.730000e+02 6.206947e-20
6.740000e+02 7.078662e-20
6.750000e+02 8.069571e-20
6.760000e+02 9.195528e-20
6.770000e+02 1.047443e-19
6.780000e+02 1.192649e-19
6.790000e+02 1.357451e-19
6.800000e+02 1.544421e-19
6.810000e+02 1.756459e-19
6.820000e+02 1.996833e-19
6.830000e+02 2.269225e-19
6.840000e+02 2.577784e-19
6.850000e+02 2.927177e-19
6.860000e+02 3.322661e-19
6.870000e+02 3.770147e-19
6.880000e+02 4.276282e-19
6.890000e+02 4.848540e-19
6.900000e+02 5.495320e-19
6.910000e+02 6.226057e-19
6.920000e+02 7.051344e-19
6.930000e+02 7.983075e-19
6.940000e+02 9.034594e-19
6.950000e+02 1.022087e-18
6.960000e+02 1.155869e-18
6.970000e+02 1.306688e-18
6.980000e+02 1.476651e-18
6.990000e+02 1.668120e-18
7.000000e+02 1.883741e-18
7.010000e+02 2.126474e-18
7.020000e+02 2.399632e-18
7.030000e+02 2.706919e-18
7.040000e+02 3.052481e-18
7.050000e+02 3.440949e-18
7.060000e+02 3.877500e-18
7.070000e+02 4.367915e-18
7.080000e+02 4.918653e-18
7.090000e+02 5.536922e-18
7.100000e+02 6.230765e-18
7.110000e+02 7.009159e-18
7.120000e+02 7.882110e-18
7.130000e+02 8.860777e-18
7.140000e+02 9.957596e-18
7.150000e+02 1.118642e-17
7.160000e+02 1.256268e-17
7.170000e+02 1.410357e-17
7.180000e+02 1.582819e-17
7.190000e+02 1.775783e-17
7.200000e+02 1.991616e-17
7.210000e+02 2.232950e-17
7.220000e+02 2.502710e-17
7.230000e+02 2.804149e-17
7.240000e+02 3.140877e-17
7.250000e+02 3.516906e-17
7.260000e+02 3.936689e-17
7.270000e+02 4.405171e-17
7.280000e+02 4.927834e-17
7.290000e+02 5.510763e-17
7.300000e+02 6.160703e-17
7.310000e+02 6.885132e-17
7.320000e+02 7.692337e-17
7.330000e+02 8.591498e-17
7.340000e+02 9.592784e-17
7.350000e+02 1.070745e-16
7.360000e+02 1.194796e-16
7.370000e+02 1.332810e-16
7.380000e+02 1.486313e-16
7.390000e+02 1.656990e-16
7.400000e+02 1.846708e-16
7.410000e+02 2.057526e-16
7.420000e+02 2.291723e-16
7.430000e+02 2.551812e-16
7.440000e+02 2.840574e-16
7.450000e+02 3.161072e-16
7.460000e+02 3.516693e-16
7.470000e+02 3.911169e-16
7.480000e+02 4.348620e-16
7.490000e+02 4.833585e-16
7.500000e+02 5.371073e-16
7.510000e+02 5.966600e-16
7.520000e+02 6.626245e-16
7.530000e+02 7.356703e-16
7.540000e+02 8.165349e-16
7.550000e+02 9.060296e-16
7.560000e+02 1.005048e-15
7.570000e+02 1.114573e-15
7.580000e+02 1.235685e-15
7.590000e+02 1.369573e-15
7.600000e+02 1.517544e-15
7.610000e+02 1.681034e-15
7.620000e+02 1.861622e-15
7.630000e+02 2.061040e-15
7.640000e+02 2.281193e-15
7.650000e+02 2.524170e-15
7.660000e+02 2.792266e-15
7.670000e+02 3.087998e-15
7.680000e+02 3.414127e-15
7.690000e+02 3.773681e-15
7.700000e+02 4.169981e-15
7.710000e+02 4.606667e-15
7.720000e+02 5.087728e-15
7.730000e+02 5.617534e-15
7.740000e+02 6.200872e-15
7.750000e+02 6.842982e-15
7.760000e+02 7.549604e-15
7.770000e+02 8.327017e-15
7.780000e+02 9.182095e-15
7.790000e+02 1.012235e-14
7.800000e+02 1.115601e-14
7.810000e+02 1.229207e-14
7.820000e+02 1.354034e-14
7.830000e+02 1.491157e-14
7.840000e+02 1.641749e-14
7.850000e+02 1.807091e-14
7.860000e+02 1.988584e-14
7.870000e+02 2.187755e-14
7.880000e+02 2.406271e-14
7.890000e+02 2.645954e-14
7.900000e+02 2.908788e-14
7.910000e+02 3.196939e-14
7.920000e+02 3.512769e-14
7.930000e+02 3.858853e-14
7.940000e+02 4.237997e-14
7.950000e+02 4.653258e-14
7.960000e+02 5.107969e-14
7.970000e+02 5.605758e-14
7.980000e+02 6.150576e-14
7.990000e+02 6.746724e-14
8.000000e+02 7.398886e-14
8.010000e+02 8.112155e-14
8.020000e+02 8.892075e-14
8.030000e+02 9.744674e-14
8.040000e+02 1.067651e-13
8.050000e+02 1.169470e-13
8.060000e+02 1.280701e-13
8.070000e+02 1.402184e-13
8.080000e+02 1.534835e-13
8.090000e+02 1.679647e-13
8.100000e+02 1.837699e-13
8.110000e+02 2.010162e-13
8.120000e+02 2.198307e-13
8.130000e+02 2.403515e-13
8.140000e+02 2.627283e-13
8.150000e+02 2.871235e-13
8.160000e+02 3.137132e-13
8.170000e+02 3.426884e-13
8.180000e+02 3.742563e-13
8.190000e+02 4.086411e-13
8.200000e+02 4.460860e-13
8.210000e+02 4.868545e-13
8.220000e+02 5.312319e-13
8.230000e+02 5.795272e-13
8.240000e+02 6.320750e-13
8.250000e+02 6.892373e-13
8.260000e+02 7.514061e-13
8.270000e+02 8.190055e-13
8.280000e+02 8.924941e-13
8.290000e+02 9.723680e-13
8.300000e+02 1.059164e-12
8.310000e+02 1.153462e-12
8.320000e+02 1.255888e-12
8.330000e+02 1.367121e-12
8.340000e+02 1.487892e-12
8.350000e+02 1.618992e-12
8.360000e+02 1.761274e-12
8.370000e+02 1.915662e-12
8.380000e+02 2.083150e-12
8.390000e+02 2.264814e-12
8.400000e+02 2.461811e-12
8.410000e+02 2.675395e-12
8.420000e+02 2.906913e-12
8.430000e+02 3.157823e-12
8.440000e+02 3.429692e-12
8.450000e+02 3.724213e-12
8.460000e+02 4.043210e-12
8.470000e+02 4.388649e-12
8.480000e+02 4.762646e-12
8.490000e+02 5.167484e-12
8.500000e+02 5.605620e-12
8.510000e+02 6.079698e-12
8.520000e+02 6.592568e-12
8.530000e+02 7.147296e-12
8.540000e+02 7.747183e-12
8.550000e+02 8.395778e-12
8.560000e+02 9.096903e-12
8.570000e+02 9.854667e-12
8.580000e+02 1.067349e-11
8.590000e+02 1.155812e-11
8.600000e+02 1.251366e-11
8.610000e+02 1.354562e-11
8.620000e+02 1.465988e-11
8.630000e+02 1.586279e-11
8.640000e+02 1.716115e-11
8.650000e+02 1.856228e-11
8.660000e+02 2.007404e-11
8.670000e+02 2.170485e-11
8.680000e+02 2.346377e-11
8.690000e+02 2.536051e-11
8.700000e+02 2.740550e-11
8.710000e+02 2.960992e-11
8.720000e+02 3.198577e-11
8.730000e+02 3.454592e-11
8.740000e+02 3.730417e-11
8.750000e+02 4.027531e-11
8.760000e+02 4.347520e-11
8.770000e+02 4.692084e-11
8.780000e+02 5.063043e-11
8.790000e+02 5.462349e-11
8.800000e+02 5.892093e-11
8.810000e+02 6.354513e-11
8.820000e+02 6.852006e-11
8.830000e+02 7.387139e-11
8.840000e+02 7.962660e-11
8.850000e+02 8.581508e-11
8.860000e+02 9.246831e-11
8.870000e+02 9.961996e-11
8.880000e+02 1.073060e-10
8.890000e+02 1.155651e-10
8.900000e+02 1.244383e-10
8.910000e+02 1.339696e-10
8.920000e+02 1.442063e-10
8.930000e+02 1.551986e-10
8.940000e+02 1.670003e-10
8.950000e+02 1.796689e-10
8.960000e+02 1.932657e-10
8.970000e+02 2.078564e-10
8.980000e+02 2.235111e-10
8.990000e+02 2.403044e-10
9.000000e+02 2.583164e-10
9.010000e+02 2.776321e-10
9.020000e+02 2.983426e-10
9.030000e+02 3.205451e-10
9.040000e+02 3.443430e-10
9.050000e+02 3.698469e-10
9.060000e+02 3.971748e-10
9.070000e+02 4.264522e-10
9.080000e+02 4.578133e-10
9.090000e+02 4.914009e-10
9.100000e+02 5.273675e-10
9.110000e+02 5.658754e-10
9.120000e+02 6.070976e-10
9.130000e+02 6.512184e-10
9.140000e+02 7.049366e-10
9.150000e+02 1.557090e-07
9.160000e+02 9.529643e-07
9.170000e+02 2.785888e-08
9.180000e+02 2.009178e-07
9.190000e+02 2.647289e-06
9.200000e+02 7.216503e-06
9.210000e+02 1.135005e-09
9.220000e+02 3.616987e-06
9.230000e+02 2.831840e-08
9.240000e+02 4.590311e-08
9.250000e+02 5.539067e-07
9.260000e+02 2.908730e-07
9.270000e+02 4.176729e-08
9.280000e+02 4.027170e-05
9.290000e+02 4.020782e-05
9.300000e+02 9.157330e-06
9.310000e+02 5.049653e-08
9.320000e+02 3.239079e-05
9.330000e+02 3.993795e-06
9.340000e+02 9.646028e-07
9.350000e+02 8.645855e-08
9.360000e+02 1.394263e-07
9.370000e+02 2.044033e-08
9.380000e+02 6.541533e-08
9.390000e+02 4.415272e-07
9.400000e+02 3.553158e-05
9.410000e+02 4.373852e-06
9.420000e+02 1.339816e-04
9.430000e+02 6.972405e-07
9.440000e+02 1.518684e-04
9.450000e+02 1.398988e-04
9.460000e+02 1.326139e-05
9.470000e+02 1.576700e-08
9.480000e+02 4.291329e-05
9.490000e+02 4.920942e-06
9.500000e+02 1.061635e-07
9.510000e+02 9.160895e-06
9.520000e+02 2.425954e-05
9.530000e+02 1.470527e-07
9.540000e+02 1.825740e-08
9.550000e+02 1.730179e-06
9.560000e+02 1.878236e-04
9.570000e+02 7.991184e-07
9.580000e+02 1.364560e-08
9.590000e+02 8.791956e-05
9.600000e+02 2.196975e-07
9.610000e+02 1.979698e-05
9.620000e+02 6.560260e-06
9.630000e+02 9.400101e-07
9.640000e+02 2.092374e-07
9.650000e+02 5.528273e-08
9.660000e+02 1.850116e-06
9.670000e+02 2.950619e-07
9.680000e+02 1.998706e-07
9.690000e+02 1.213051e-05
9.700000e+02 1.682220e-05
9.710000e+02 4.691586e-07
9.720000e+02 1.743549e-07
9.730000e+02 1.112026e-06
9.740000e+02 1.370879e-05
9.750000e+02 4.056993e-06
9.760000e+02 1.651193e-04
9.770000e+02 8.322096e-05
9.780000e+02 3.130082e-05
9.790000e+02 7.770360e-04
9.800000e+02 7.248312e-04
9.810000e+02 1.842156e-05
9.820000e+02 3.021836e-06
9.830000e+02 5.974516e-04
9.840000e+02 2.492047e-05
9.850000e+02 7.828061e-06
9.860000e+02 1.320918e-05
9.870000e+02 6.424499e-04
9.880000e+02 1.869921e-07
9.890000e+02 1.130658e-04
9.900000e+02 3.471255e-04
9.910000e+02 3.236214e-06
9.920000e+02 1.068488e-07
9.930000e+02 1.564983e-03
9.940000e+02 1.859353e-07
9.950000e+02 6.424565e-05
9.960000e+02 7.866765e-07
9.970000e+02 8.630355e-05
9.980000e+02 4.364852e-04
9.990000e+02 5.504282e-06
1.000000e+03 2.689879e-03
1.001000e+03 2.216935e-03
1.002000e+03 1.882793e-03
1.003000e+03 5.638401e-06
1.004000e+03 3.314344e-07
1.005000e+03 2.291519e-05
1.006000e+03 1.427007e-03
1.007000e+03 2.372538e-03
1.008000e+03 7.551311e-04
1.009000e+03 8.755305e-06
1.010000e+03 7.643486e-04
1.011000e+03 1.047825e-03
1.012000e+03 1.086373e-03
1.013000e+03 1.011382e-03
1.014000e+03 3.785535e-07
1.015000e+03 6.409246e-07
1.016000e+03 2.994272e-05
1.017000e+03 4.402827e-07
1.018000e+03 8.560775e-06
1.019000e+03 6.386545e-07
1.020000e+03 1.652129e-03
1.021000e+03 1.841306e-05
1.022000e+03 2.666528e-05
1.023000e+03 1.445005e-06
1.024000e+03 1.803279e-04
1.025000e+03 6.853497e-07
1.026000e+03 1.050752e-06
1.027000e+03 5.731252e-05
1.028000e+03 5.999435e-06
1.029000e+03 8.575735e-07
1.030000e+03 1.155550e-04
1.031000e+03 2.731913e-04
1.032000e+03 3.654517e-03
1.033000e+03 5.645095e-05
1.034000e+03 3.500182e-04
1.035000e+03 4.087808e-06
1.036000e+03 1.282198e-06
1.037000e+03 3.427653e-03
1.038000e+03 2.085090e-02
1.039000e+03 3.737461e-03
1.040000e+03 3.253524e-03
1.041000e+03 2.344075e-02
1.042000e+03 1.394023e-02
1.043000e+03 1.403870e-02
1.044000e+03 5.355498e-02
1.045000e+03 3.586138e-06
1.046000e+03 3.153622e-03
1.047000e+03 1.049245e-03
1.048000e+03 1.634285e-05
1.049000e+03 9.882248e-04
1.050000e+03 2.332889e-04
1.051000e+03 1.206379e-04
1.052000e+03 1.877574e-02
1.053000e+03 3.511965e-02
1.054000e+03 3.252178e-06
1.055000e+03 4.124887e-02
1.056000e+03 4.705651e-02
1.057000e+03 3.402007e-03
1.058000e+03 1.167282e-04
1.059000e+03 9.530969e-05
1.060000e+03 2.526585e-05
1.061000e+03 6.652869e-03
1.062000e+03 6.125604e-05
1.063000e+03 3.678548e-03
1.064000e+03 8.225441e-06
1.065000e+03 5.716458e-06
1.066000e+03 9.785066e-03
1.067000e+03 8.747601e-05
1.068000e+03 1.079856e-01
1.069000e+03 2.023488e-05
1.070000e+03 1.273856e-03
1.071000e+03 3.138886e-02
1.072000e+03 1.043061e-01
1.073000e+03 8.977950e-06
1.074000e+03 3.749224e-03
1.075000e+03 2.014369e-03
1.076000e+03 1.158073e-01
1.077000e+03 7.765507e-05
1.078000e+03 1.696721e-04
1.079000e+03 8.799007e-04
1.080000e+03 4.283864e-03
1.081000e+03 2.693638e-02
1.082000e+03 1.328662e-02
1.083000e+03 6.313547e-03
1.084000e+03 2.716389e-01
1.085000e+03 1.287110e-03
1.086000e+03 1.867490e-01
1.087000e+03 2.351254e-04
1.088000e+03 3.161615e-01
1.089000e+03 3.357429e-01
1.090000e+03 9.996579e-04
1.091000e+03 1.582474e-03
1.092000e+03 2.819281e-01
1.093000e+03 3.553902e-01
1.094000e+03 1.636666e-02
1.095000e+03 4.532207e-01
1.096000e+03 2.142393e-02
1.097000e+03 1.087954e-01
1.098000e+03 4.138781e-01
1.099000e+03 3.990412e-03
1.100000e+03 6.181328e-05
1.101000e+03 1.804423e-04
1.102000e+03 2.684258e-03
1.103000e+03 4.679087e-01
1.104000e+03 5.763256e-01
1.105000e+03 5.473667e-01
1.106000e+03 1.524714e-02
1.107000e+03 1.160502e-04
1.108000e+03 1.349950e-01
1.109000e+03 1.495719e-03
1.110000e+03 6.701691e-01
1.111000e+03 3.944087e-01
1.112000e+03 5.325204e-02
1.113000e+03 4.869833e-01
1.114000e+03 2.798320e-02
1.115000e+03 1.779573e-03
1.116000e+03 6.079949e-04
1.117000e+03 4.771533e-01
1.118000e+03 2.581507e-03
1.119000e+03 5.870989e-02
1.120000e+03 9.464622e-04
1.121000e+03 3.173258e-01
1.122000e+03 1.233759e+00
1.123000e+03 7.203255e-01
1.124000e+03 8.725564e-01
1.125000e+03 3.729968e-01
1.126000e+03 1.810909e+00
1.127000e+03 4.622269e-01
1.128000e+03 9.267864e-01
1.129000e+03 1.897905e-01
1.130000e+03 9.943123e-01
1.131000e+03 1.026328e+00
1.132000e+03 1.753416e-03
1.133000e+03 1.606572e-02
1.134000e+03 2.446801e-01
1.135000e+03 9.258726e-01
1.136000e+03 3.434759e-02
1.137000e+03 6.911610e-01
1.138000e+03 1.846435e-01
1.139000e+03 1.086311e+00
1.140000e+03 1.000033e+00
1.141000e+03 1.029383e+00
1.142000e+03 1.145348e+00
1.143000e+03 2.275487e-01
1.144000e+03 1.134283e+00
1.145000e+03 9.877682e-04
1.146000e+03 1.211170e+00
1.147000e+03 1.105751e+00
1.148000e+03 8.266747e-03
1.149000e+03 7.419695e-01
1.150000e+03 5.739310e-01
1.151000e+03 1.156391e+00
1.152000e+03 8.326310e-01
1.153000e+03 1.082235e+00
1.154000e+03 1.190366e+00
1.155000e+03 6.900104e-01
1.156000e+03 9.158395e-01
1.157000e+03 1.072334e+00
1.158000e+03 2.575679e-01
1.159000e+03 1.085283e+00
1.160000e+03 3.435540e-01
1.161000e+03 9.798089e-01
1.162000e+03 3.795558e-02
1.163000e+03 1.466405e-01
1.164000e+03 3.785998e-03
1.165000e+03 5.250578e-01
1.166000e+03 2.958919e-01
1.167000e+03 2.248331e-01
1.168000e+03 1.165171e+00
1.169000e+03 1.216795e+00
1.170000e+03 1.910828e-01
1.171000e+03 5.835047e-01
1.172000e+03 3.456838e-01
1.173000e+03 4.353808e-01
1.174000e+03 6.276399e-03
1.175000e+03 2.542287e-03
1.176000e+03 1.093790e-03
1.177000e+03 1.526039e+00
1.178000e+03 1.459139e+00
1.179000e+03 1.348674e+00
1.180000e+03 8.518302e-01
1.181000e+03 1.278529e+00
1.182000e+03 1.198223e+00
1.183000e+03 8.118431e-01
1.184000e+03 7.079570e-01
1.185000e+03 7.991050e-01
1.186000e+03 3.352875e-02
1.187000e+03 9.781873e-01
1.188000e+03 5.584954e-01
1.189000e+03 1.026809e+00
1.190000e+03 9.965925e-01
1.191000e+03 8.748137e-01
1.192000e+03 8.588306e-01
1.193000e+03 7.727238e-01
1.194000e+03 8.290096e-01
1.195000e+03 7.907580e-01
1.196000e+03 7.675197e+00
1.197000e+03 9.485962e+00
1.198000e+03 1.141734e-01
1.199000e+03 8.243743e+00
1.200000e+03 4.177611e-01
1.201000e+03 6.502102e+00
1.202000e+03 2.654467e+00
1.203000e+03 4.757721e+00
1.204000e+03 4.407057e-01
1.205000e+03 3.235677e+00
1.206000e+03 2.706765e+00
1.207000e+03 4.653037e-01
1.208000e+03 1.430973e+00
1.209000e+03 1.107140e+00
1.210000e+03 5.179226e-03
1.211000e+03 4.348130e-01
1.212000e+03 2.081943e-01
1.213000e+03 9.934427e-02
1.214000e+03 2.969634e-02
1.215000e+03 5.272536e-03
1.216000e+03 4.533465e-03
1.217000e+03 1.871395e-02
1.218000e+03 8.201455e-02
1.219000e+03 2.183449e-01
1.220000e+03 2.650191e-01
1.221000e+03 8.700848e-01
1.222000e+03 1.347339e+00
1.223000e+03 1.674525e+00
1.224000e+03 2.869889e+00
1.225000e+03 1.951137e-01
1.226000e+03 5.851664e+00
1.227000e+03 7.582041e+00
1.228000e+03 1.706635e+00
1.229000e+03 1.008640e+01
1.230000e+03 8.256896e+00
1.231000e+03 9.254484e-01
1.232000e+03 1.862600e+01
1.233000e+03 2.148783e+01
1.234000e+03 2.042677e+01
1.235000e+03 2.411749e+01
1.236000e+03 3.120887e+00
1.237000e+03 3.116344e+01
1.238000e+03 3.183072e+01
1.239000e+03 1.876624e+01
1.240000e+03 1.293370e+01
1.241000e+03 2.151884e+01
1.242000e+03 3.660522e+01
1.243000e+03 4.567628e+01
1.244000e+03 4.893014e+01
1.245000e+03 4.932355e+01
1.246000e+03 3.777572e+01
1.247000e+03 4.736477e+01
1.248000e+03 4.609408e+01
1.249000e+03 6.162846e+01
1.250000e+03 4.310214e+01
1.251000e+03 6.465193e+01
1.252000e+03 5.716016e+01
1.253000e+03 6.882055e+01
1.254000e+03 6.176547e+01
1.255000e+03 2.091548e+01
1.256000e+03 5.067133e+01
1.257000e+03 4.507634e+01
1.258000e+03 3.520904e+01
1.259000e+03 4.945049e+01
1.260000e+03 7.743132e+01
1.261000e+03 2.176514e+00
1.262000e+03 8.141531e+01
1.263000e+03 7.503173e+01
1.264000e+03 4.384568e+01
1.265000e+03 3.828751e+01
1.266000e+03 9.303589e+01
1.267000e+03 6.761366e+01
