# wavelength_A flux
5.000000e+02 1.933175e-09
5.010000e+02 2.204146e-09
5.020000e+02 2.511722e-09
5.030000e+02 2.860695e-09
5.040000e+02 3.256411e-09
5.050000e+02 3.821488e-09
5.060000e+02 4.344779e-09
5.070000e+02 4.937138e-09
5.080000e+02 5.607313e-09
5.090000e+02 6.365490e-09
5.100000e+02 7.222104e-09
5.110000e+02 8.189838e-09
5.120000e+02 9.282497e-09
5.130000e+02 1.051562e-08
5.140000e+02 1.190655e-08
5.150000e+02 1.347456e-08
5.160000e+02 1.524190e-08
5.170000e+02 1.723149e-08
5.180000e+02 1.947306e-08
5.190000e+02 2.199443e-08
5.200000e+02 2.483021e-08
5.210000e+02 2.801802e-08
5.220000e+02 3.159571e-08
5.230000e+02 3.562276e-08
5.240000e+02 4.013875e-08
5.250000e+02 4.520648e-08
5.260000e+02 5.088964e-08
5.270000e+02 5.726055e-08
5.280000e+02 6.439891e-08
5.290000e+02 7.237328e-08
5.300000e+02 8.134472e-08
5.310000e+02 9.136028e-08
5.320000e+02 1.025630e-07
5.330000e+02 1.150870e-07
5.340000e+02 1.290825e-07
5.350000e+02 1.447152e-07
5.360000e+02 1.621677e-07
5.370000e+02 1.787050e-07
5.380000e+02 2.033745e-07
5.390000e+02 2.276067e-07
5.400000e+02 2.546192e-07
5.410000e+02 2.846856e-07
5.420000e+02 3.182161e-07
5.430000e+02 3.555217e-07
5.440000e+02 3.970288e-07
5.450000e+02 4.431953e-07
5.460000e+02 4.944185e-07
5.470000e+02 5.515626e-07
5.480000e+02 6.149276e-07
5.490000e+02 6.852949e-07
5.500000e+02 7.633982e-07
5.510000e+02 8.500587e-07
5.520000e+02 9.461717e-07
5.530000e+02 1.052729e-06
5.540000e+02 1.170811e-06
5.550000e+02 1.301627e-06
5.560000e+02 1.446486e-06
5.570000e+02 1.606834e-06
5.580000e+02 1.784256e-06
5.590000e+02 1.980498e-06
5.600000e+02 2.197472e-06
5.610000e+02 2.437276e-06
5.620000e+02 2.702214e-06
5.630000e+02 2.994808e-06
5.640000e+02 3.317826e-06
5.650000e+02 3.674269e-06
5.660000e+02 4.067522e-06
5.670000e+02 4.501157e-06
5.680000e+02 4.979192e-06
5.690000e+02 5.505944e-06
5.700000e+02 6.086190e-06
5.710000e+02 6.725157e-06
5.720000e+02 7.428488e-06
5.730000e+02 8.202414e-06
5.740000e+02 9.053711e-06
5.750000e+02 9.989991e-06
5.760000e+02 1.101706e-05
5.770000e+02 1.214958e-05
5.780000e+02 1.339152e-05
5.790000e+02 1.475523e-05
5.800000e+02 1.625214e-05
5.810000e+02 1.789470e-05
5.820000e+02 1.969633e-05
5.830000e+02 2.167175e-05
5.840000e+02 2.382866e-05
5.850000e+02 2.620896e-05
5.860000e+02 2.881110e-05
5.870000e+02 3.165859e-05
5.880000e+02 3.477570e-05
5.890000e+02 3.818609e-05
5.900000e+02 4.191889e-05
5.910000e+02 4.600030e-05
5.920000e+02 5.046281e-05
5.930000e+02 5.534007e-05
5.940000e+02 6.066905e-05
5.950000e+02 6.648631e-05
5.960000e+02 7.284554e-05
5.970000e+02 7.978341e-05
5.980000e+02 8.735355e-05
5.990000e+02 9.561262e-05
6.000000e+02 1.046197e-04
6.010000e+02 1.144183e-04
6.020000e+02 1.251420e-04
6.030000e+02 1.368028e-04
6.040000e+02 1.495048e-04
6.050000e+02 1.633357e-04
6.060000e+02 1.783913e-04
6.070000e+02 1.947765e-04
6.080000e+02 2.126019e-04
6.090000e+02 2.319891e-04
6.100000e+02 2.530680e-04
6.110000e+02 2.759812e-04
6.120000e+02 3.008793e-04
6.130000e+02 3.279252e-04
6.140000e+02 3.572996e-04
6.150000e+02 3.891920e-04
6.160000e+02 4.238079e-04
6.170000e+02 4.613696e-04
6.180000e+02 5.021160e-04
6.190000e+02 5.463049e-04
6.200000e+02 5.942135e-04
6.210000e+02 6.461407e-04
6.220000e+02 7.024055e-04
6.230000e+02 7.633581e-04
6.240000e+02 8.293689e-04
6.250000e+02 9.008346e-04
6.260000e+02 9.781917e-04
6.270000e+02 1.061893e-03
6.280000e+02 1.152449e-03
6.290000e+02 1.250386e-03
6.300000e+02 1.356279e-03
6.310000e+02 1.470719e-03
6.320000e+02 1.594437e-03
6.330000e+02 1.728074e-03
6.340000e+02 1.872417e-03
6.350000e+02 2.028278e-03
6.360000e+02 2.192341e-03
6.370000e+02 2.378129e-03
6.380000e+02 2.574063e-03
6.390000e+02 2.785417e-03
6.400000e+02 3.013348e-03
6.410000e+02 3.259090e-03
6.420000e+02 3.523952e-03
6.430000e+02 3.809393e-03
6.440000e+02 4.116911e-03
6.450000e+02 4.448128e-03
6.460000e+02 4.804794e-03
6.470000e+02 5.188754e-03
6.480000e+02 5.602013e-03
6.490000e+02 6.046685e-03
6.500000e+02 6.525021e-03
6.510000e+02 7.039496e-03
6.520000e+02 7.592687e-03
6.530000e+02 8.187359e-03
6.540000e+02 8.826471e-03
6.550000e+02 9.513154e-03
6.560000e+02 1.025084e-02
6.570000e+02 1.104279e-02
6.580000e+02 1.189375e-02
6.590000e+02 1.280691e-02
6.600000e+02 1.378688e-02
6.610000e+02 1.483850e-02
6.620000e+02 1.596653e-02
6.630000e+02 1.717633e-02
6.640000e+02 1.847354e-02
6.650000e+02 1.986409e-02
6.660000e+02 2.135457e-02
6.670000e+02 2.295158e-02
6.680000e+02 2.466234e-02
6.690000e+02 2.649474e-02
6.700000e+02 2.845690e-02
6.710000e+02 3.055753e-02
6.720000e+02 3.280557e-02
6.730000e+02 3.521196e-02
6.740000e+02 3.778597e-02
6.750000e+02 4.053940e-02
6.760000e+02 4.348396e-02
6.770000e+02 4.663226e-02
6.780000e+02 4.999766e-02
6.790000e+02 5.359438e-02
6.800000e+02 5.743751e-02
6.810000e+02 6.154306e-02
6.820000e+02 6.592805e-02
6.830000e+02 7.061049e-02
6.840000e+02 7.560958e-02
6.850000e+02 8.094513e-02
6.860000e+02 8.664005e-02
6.870000e+02 9.271494e-02
6.880000e+02 9.919714e-02
6.890000e+02 1.061096e-01
6.900000e+02 1.134805e-01
6.910000e+02 1.213387e-01
6.920000e+02 1.297145e-01
6.930000e+02 1.386404e-01
6.940000e+02 1.481506e-01
6.950000e+02 1.582814e-01
6.960000e+02 1.690705e-01
6.970000e+02 1.805565e-01
6.980000e+02 1.927916e-01
6.990000e+02 2.058114e-01
7.000000e+02 2.196673e-01
7.010000e+02 2.344101e-01
7.020000e+02 2.500937e-01
7.030000e+02 2.667749e-01
7.040000e+02 2.845137e-01
7.050000e+02 3.033737e-01
7.060000e+02 3.234216e-01
7.070000e+02 3.447295e-01
7.080000e+02 3.673709e-01
7.090000e+02 3.914228e-01
7.100000e+02 4.169749e-01
7.110000e+02 4.441105e-01
7.120000e+02 4.729239e-01
7.130000e+02 5.035130e-01
7.140000e+02 5.359815e-01
7.150000e+02 5.704383e-01
7.160000e+02 6.069995e-01
7.170000e+02 6.457797e-01
7.180000e+02 6.869103e-01
7.190000e+02 7.305480e-01
7.200000e+02 7.768070e-01
7.210000e+02 8.258466e-01
7.220000e+02 8.778241e-01
7.230000e+02 9.329089e-01
7.240000e+02 9.912736e-01
7.250000e+02 1.053103e+00
7.260000e+02 1.118592e+00
7.270000e+02 1.187948e+00
7.280000e+02 1.261382e+00
7.290000e+02 1.339124e+00
7.300000e+02 1.421412e+00
7.310000e+02 1.508496e+00
7.320000e+02 1.600640e+00
7.330000e+02 1.698124e+00
7.340000e+02 1.801238e+00
7.350000e+02 1.910290e+00
7.360000e+02 2.025600e+00
7.370000e+02 2.147505e+00
7.380000e+02 2.276374e+00
7.390000e+02 2.412574e+00
7.400000e+02 2.556485e+00
7.410000e+02 2.708563e+00
7.420000e+02 2.869182e+00
7.430000e+02 3.038865e+00
7.440000e+02 3.218038e+00
7.450000e+02 3.407222e+00
7.460000e+02 3.606944e+00
7.470000e+02 3.817742e+00
7.480000e+02 4.040227e+00
7.490000e+02 4.274996e+00
7.500000e+02 4.522685e+00
7.510000e+02 4.783967e+00
7.520000e+02 5.059545e+00
7.530000e+02 5.350154e+00
7.540000e+02 5.656570e+00
7.550000e+02 5.979602e+00
7.560000e+02 6.320101e+00
7.570000e+02 6.678670e+00
7.580000e+02 7.057060e+00
7.590000e+02 7.455420e+00
7.600000e+02 7.875148e+00
7.610000e+02 8.317211e+00
7.620000e+02 8.782754e+00
7.630000e+02 9.272942e+00
7.640000e+02 9.789016e+00
7.650000e+02 1.033226e+01
7.660000e+02 1.090403e+01
7.670000e+02 1.150573e+01
7.680000e+02 1.213874e+01
7.690000e+02 1.280488e+01
7.700000e+02 1.350549e+01
7.710000e+02 1.424235e+01
7.720000e+02 1.501723e+01
7.730000e+02 1.583196e+01
7.740000e+02 1.668848e+01
7.750000e+02 1.758872e+01
7.760000e+02 1.853182e+01
7.770000e+02 1.952930e+01
7.780000e+02 2.057406e+01
7.790000e+02 2.167165e+01
7.800000e+02 2.282456e+01
7.810000e+02 2.403543e+01
7.820000e+02 2.530687e+01
7.830000e+02 2.664195e+01
7.840000e+02 2.804361e+01
7.850000e+02 2.951491e+01
7.860000e+02 3.105904e+01
7.870000e+02 3.267972e+01
7.880000e+02 3.438006e+01
7.890000e+02 3.616394e+01
7.900000e+02 3.803507e+01
7.910000e+02 3.999775e+01
7.920000e+02 4.205605e+01
7.930000e+02 4.421408e+01
7.940000e+02 4.647689e+01
7.950000e+02 4.884900e+01
7.960000e+02 5.133536e+01
7.970000e+02 5.394114e+01
7.980000e+02 5.667172e+01
7.990000e+02 5.953271e+01
8.000000e+02 6.252997e+01
8.010000e+02 6.566933e+01
8.020000e+02 6.895788e+01
8.030000e+02 7.240147e+01
8.040000e+02 7.600726e+01
8.050000e+02 7.978238e+01
8.060000e+02 8.373431e+01
8.070000e+02 8.787080e+01
8.080000e+02 9.219995e+01
8.090000e+02 9.673017e+01
8.100000e+02 1.014699e+02
8.110000e+02 1.064289e+02
8.120000e+02 1.116162e+02
8.130000e+02 1.170419e+02
8.140000e+02 1.227155e+02
8.150000e+02 1.286486e+02
8.160000e+02 1.348525e+02
8.170000e+02 1.413378e+02
8.180000e+02 1.481169e+02
8.190000e+02 1.552025e+02
8.200000e+02 1.626073e+02
8.210000e+02 1.703448e+02
8.220000e+02 1.784290e+02
8.230000e+02 1.868744e+02
8.240000e+02 1.956963e+02
8.250000e+02 2.049103e+02
8.260000e+02 2.145326e+02
8.270000e+02 2.245802e+02
8.280000e+02 2.350708e+02
8.290000e+02 2.460225e+02
8.300000e+02 2.574545e+02
8.310000e+02 2.693863e+02
8.320000e+02 2.818384e+02
8.330000e+02 2.948321e+02
8.340000e+02 3.083892e+02
8.350000e+02 3.224941e+02
8.360000e+02 3.372842e+02
8.370000e+02 3.526749e+02
8.380000e+02 3.687167e+02
8.390000e+02 3.854591e+02
8.400000e+02 4.029088e+02
8.410000e+02 4.211012e+02
8.420000e+02 4.400548e+02
8.430000e+02 4.598335e+02
8.440000e+02 4.804332e+02
8.450000e+02 5.019028e+02
8.460000e+02 5.242742e+02
8.470000e+02 5.475826e+02
8.480000e+02 5.718646e+02
8.490000e+02 5.971584e+02
8.500000e+02 6.235007e+02
8.510000e+02 6.509374e+02
8.520000e+02 6.795061e+02
8.530000e+02 7.092561e+02
8.540000e+02 7.402327e+02
8.550000e+02 7.724747e+02
8.560000e+02 8.060352e+02
8.570000e+02 8.409648e+02
8.580000e+02 8.773152e+02
8.590000e+02 9.151414e+02
8.600000e+02 9.544980e+02
8.610000e+02 9.954432e+02
8.620000e+02 1.038037e+03
8.630000e+02 1.082339e+03
8.640000e+02 1.128420e+03
8.650000e+02 1.176334e+03
8.660000e+02 1.226167e+03
8.670000e+02 1.277975e+03
8.680000e+02 1.331837e+03
8.690000e+02 1.387828e+03
8.700000e+02 1.446023e+03
8.710000e+02 1.506514e+03
8.720000e+02 1.569366e+03
8.730000e+02 1.634685e+03
8.740000e+02 1.702553e+03
8.750000e+02 1.773062e+03
8.760000e+02 1.846309e+03
8.770000e+02 1.922384e+03
8.780000e+02 2.001414e+03
8.790000e+02 2.083480e+03
8.800000e+02 2.168699e+03
8.810000e+02 2.257184e+03
8.820000e+02 2.349052e+03
8.830000e+02 2.444422e+03
8.840000e+02 2.543419e+03
8.850000e+02 2.646172e+03
8.860000e+02 2.752813e+03
8.870000e+02 2.863479e+03
8.880000e+02 2.978310e+03
8.890000e+02 3.097454e+03
8.900000e+02 3.221060e+03
8.910000e+02 3.349284e+03
8.920000e+02 3.475868e+03
8.930000e+02 3.620231e+03
8.940000e+02 3.763291e+03
8.950000e+02 3.911637e+03
8.960000e+02 4.065465e+03
8.970000e+02 4.224948e+03
8.980000e+02 4.390284e+03
8.990000e+02 4.561647e+03
9.000000e+02 4.739295e+03
9.010000e+02 4.923415e+03
9.020000e+02 5.114223e+03
9.030000e+02 5.311945e+03
9.040000e+02 5.516700e+03
9.050000e+02 5.729036e+03
9.060000e+02 5.948953e+03
9.070000e+02 6.176570e+03
9.080000e+02 6.412678e+03
9.090000e+02 6.657042e+03
9.100000e+02 6.910109e+03
9.110000e+02 7.172208e+03
9.120000e+02 7.443813e+03
9.130000e+02 7.553974e+03
9.140000e+02 8.207484e+03
9.150000e+02 4.276995e+04
9.160000e+02 1.293659e+05
9.170000e+02 1.345609e+05
9.180000e+02 1.358768e+05
9.190000e+02 1.449815e+05
9.200000e+02 1.498079e+05
9.210000e+02 9.841935e+03
9.220000e+02 1.589094e+05
9.230000e+02 1.591656e+05
9.240000e+02 1.546182e+05
9.250000e+02 1.711902e+05
9.260000e+02 1.767116e+05
9.270000e+02 1.839928e+05
9.280000e+02 1.898441e+05
9.290000e+02 1.745571e+05
9.300000e+02 1.986634e+05
9.310000e+02 2.040291e+05
9.320000e+02 2.133786e+05
9.330000e+02 2.190710e+05
9.340000e+02 2.259797e+05
9.350000e+02 6.744012e+04
9.360000e+02 2.386508e+05
9.370000e+02 4.737824e+04
9.380000e+02 1.087816e+05
9.390000e+02 2.608735e+05
9.400000e+02 2.685949e+05
9.410000e+02 1.256838e+05
9.420000e+02 2.844631e+05
9.430000e+02 2.924847e+05
9.440000e+02 2.037911e+05
9.450000e+02 3.095651e+05
9.460000e+02 3.184018e+05
9.470000e+02 2.080885e+05
9.480000e+02 2.826602e+05
9.490000e+02 3.428953e+05
9.500000e+02 6.631572e+04
9.510000e+02 3.550868e+05
9.520000e+02 3.766772e+05
9.530000e+02 3.832717e+05
9.540000e+02 3.273793e+05
9.550000e+02 4.098058e+05
9.560000e+02 3.224099e+05
9.570000e+02 3.254750e+05
9.580000e+02 4.414928e+05
9.590000e+02 4.595563e+05
9.600000e+02 9.976153e+04
9.610000e+02 4.838291e+05
9.620000e+02 4.989132e+05
9.630000e+02 5.131119e+05
9.640000e+02 4.925603e+04
9.650000e+02 4.935097e+05
9.660000e+02 5.565708e+05
9.670000e+02 5.670157e+05
9.680000e+02 5.837258e+05
9.690000e+02 5.993129e+05
9.700000e+02 6.178611e+05
9.710000e+02 6.292738e+05
9.720000e+02 5.937898e+05
9.730000e+02 5.932964e+05
9.740000e+02 6.784568e+05
9.750000e+02 7.061116e+05
9.760000e+02 7.268899e+05
9.770000e+02 7.473884e+05
9.780000e+02 7.657766e+05
9.790000e+02 7.887417e+05
9.800000e+02 8.096183e+05
9.810000e+02 8.315616e+05
9.820000e+02 8.507536e+05
9.830000e+02 8.759809e+05
9.840000e+02 3.624254e+05
9.850000e+02 9.231304e+05
9.860000e+02 9.473451e+05
9.870000e+02 9.723888e+05
9.880000e+02 9.927752e+05
9.890000e+02 8.258281e+05
9.900000e+02 1.374905e+05
9.910000e+02 1.068886e+06
9.920000e+02 9.470087e+05
9.930000e+02 1.062019e+06
9.940000e+02 1.856222e+05
9.950000e+02 3.249194e+05
9.960000e+02 5.243365e+05
9.970000e+02 2.636419e+05
9.980000e+02 1.286516e+06
9.990000e+02 1.293402e+06
1.000000e+03 1.356903e+06
1.001000e+03 1.391730e+06
1.002000e+03 1.426678e+06
1.003000e+03 1.382090e+06
1.004000e+03 1.497345e+06
1.005000e+03 1.415150e+06
1.006000e+03 1.577211e+06
1.007000e+03 1.610130e+06
1.008000e+03 1.654064e+06
1.009000e+03 1.668891e+06
1.010000e+03 1.741141e+06
1.011000e+03 1.784404e+06
1.012000e+03 1.828507e+06
1.013000e+03 1.873728e+06
1.014000e+03 1.896407e+06
1.015000e+03 1.940712e+06
1.016000e+03 2.010979e+06
1.017000e+03 2.041715e+06
1.018000e+03 2.109902e+06
1.019000e+03 2.154031e+06
1.020000e+03 2.209051e+06
1.021000e+03 1.390390e+06
1.022000e+03 2.153863e+06
1.023000e+03 2.307804e+06
1.024000e+03 2.143643e+06
1.025000e+03 1.688167e+06
1.026000e+03 7.659583e+05
1.027000e+03 2.222804e+06
1.028000e+03 7.493326e+05
1.029000e+03 2.678181e+06
1.030000e+03 2.758232e+06
1.031000e+03 2.873445e+06
1.032000e+03 2.935846e+06
1.033000e+03 1.581985e+06
1.034000e+03 3.103817e+06
1.035000e+03 7.124548e+05
1.036000e+03 3.050411e+06
1.037000e+03 4.871702e+05
1.038000e+03 3.417548e+06
1.039000e+03 3.468367e+06
1.040000e+03 3.583149e+06
1.041000e+03 3.634890e+06
1.042000e+03 3.727118e+06
1.043000e+03 3.747940e+06
1.044000e+03 3.927775e+06
1.045000e+03 4.019661e+06
1.046000e+03 4.123002e+06
1.047000e+03 4.216382e+06
1.048000e+03 4.294770e+06
1.049000e+03 4.234063e+06
1.050000e+03 4.519548e+06
1.051000e+03 4.624248e+06
1.052000e+03 4.733122e+06
1.053000e+03 4.804644e+06
1.054000e+03 4.882896e+06
1.055000e+03 4.982584e+06
1.056000e+03 5.184088e+06
1.057000e+03 5.300776e+06
1.058000e+03 5.419352e+06
1.059000e+03 5.539288e+06
1.060000e+03 5.661404e+06
1.061000e+03 5.801350e+06
1.062000e+03 5.931034e+06
1.063000e+03 2.279162e+06
1.064000e+03 1.323404e+06
1.065000e+03 6.320546e+06
1.066000e+03 5.154587e+06
1.067000e+03 6.531291e+06
1.068000e+03 6.813114e+06
1.069000e+03 6.807800e+06
1.070000e+03 7.067228e+06
1.071000e+03 7.282398e+06
1.072000e+03 7.443552e+06
1.073000e+03 7.563809e+06
1.074000e+03 7.774882e+06
1.075000e+03 7.944408e+06
1.076000e+03 8.123024e+06
1.077000e+03 8.285914e+06
1.078000e+03 8.479493e+06
1.079000e+03 8.647081e+06
1.080000e+03 8.855710e+06
1.081000e+03 9.050683e+06
1.082000e+03 9.243092e+06
1.083000e+03 9.437442e+06
1.084000e+03 9.604903e+06
1.085000e+03 6.849478e+06
1.086000e+03 1.007488e+07
1.087000e+03 1.027551e+07
1.088000e+03 1.047815e+07
1.089000e+03 1.073501e+07
1.090000e+03 1.095180e+07
1.091000e+03 1.116824e+07
1.092000e+03 1.143512e+07
1.093000e+03 1.166905e+07
1.094000e+03 1.192576e+07
1.095000e+03 1.217164e+07
1.096000e+03 1.243213e+07
1.097000e+03 1.242966e+07
1.098000e+03 1.278791e+07
1.099000e+03 1.322384e+07
1.100000e+03 1.297632e+07
1.101000e+03 1.255313e+07
1.102000e+03 2.867078e+07
1.103000e+03 9.521042e+07
1.104000e+03 3.753658e+07
1.105000e+03 1.367037e+07
1.106000e+03 2.484950e+08
1.107000e+03 2.040058e+08
1.108000e+03 2.509134e+08
1.109000e+03 1.418989e+08
1.110000e+03 5.281837e+07
1.111000e+03 3.274598e+07
1.112000e+03 2.216170e+08
1.113000e+03 2.805831e+08
1.114000e+03 1.090803e+07
1.115000e+03 2.698481e+08
1.116000e+03 2.805071e+08
1.117000e+03 1.249923e+07
1.118000e+03 1.813593e+08
1.119000e+03 3.044566e+08
1.120000e+03 3.005731e+08
1.121000e+03 2.776733e+08
1.122000e+03 4.292944e+06
1.123000e+03 2.442186e+07
1.124000e+03 3.284029e+08
1.125000e+03 1.500506e+08
1.126000e+03 3.404871e+08
1.127000e+03 3.304037e+08
1.128000e+03 1.690797e+08
1.129000e+03 3.455014e+08
1.130000e+03 2.829640e+08
1.131000e+03 3.689264e+08
1.132000e+03 1.239178e+07
1.133000e+03 2.914766e+08
1.134000e+03 3.586369e+08
1.135000e+03 6.937152e+06
1.136000e+03 3.890976e+08
1.137000e+03 4.037123e+08
1.138000e+03 4.089107e+08
1.139000e+03 4.047868e+08
1.140000e+03 8.176352e+06
1.141000e+03 4.300830e+08
1.142000e+03 4.271458e+08
1.143000e+03 4.418744e+08
1.144000e+03 4.501915e+08
1.145000e+03 3.462570e+08
1.146000e+03 4.633473e+08
1.147000e+03 4.624298e+08
1.148000e+03 4.585634e+08
1.149000e+03 4.842500e+08
1.150000e+03 4.819702e+08
1.151000e+03 4.956035e+08
1.152000e+03 5.050665e+08
1.153000e+03 1.309466e+08
1.154000e+03 2.417645e+07
1.155000e+03 3.299063e+08
1.156000e+03 9.684467e+07
1.157000e+03 5.428679e+08
1.158000e+03 1.231204e+07
1.159000e+03 4.337997e+08
1.160000e+03 5.480349e+08
1.161000e+03 5.802803e+08
1.162000e+03 1.220958e+08
1.163000e+03 5.871763e+08
1.164000e+03 2.116285e+07
1.165000e+03 6.150769e+08
1.166000e+03 6.201243e+08
1.167000e+03 6.196861e+08
1.168000e+03 6.458098e+08
1.169000e+03 6.332397e+08
1.170000e+03 6.663828e+08
1.171000e+03 6.769827e+08
1.172000e+03 6.757251e+08
1.173000e+03 6.968637e+08
1.174000e+03 6.710292e+08
1.175000e+03 2.434323e+07
1.176000e+03 1.918771e+07
1.177000e+03 7.378165e+08
1.178000e+03 7.067100e+08
1.179000e+03 7.604614e+08
1.180000e+03 6.154259e+08
1.181000e+03 7.757473e+08
1.182000e+03 7.924961e+08
1.183000e+03 8.016452e+08
1.184000e+03 8.108151e+08
1.185000e+03 8.041265e+08
1.186000e+03 8.222595e+08
1.187000e+03 8.364221e+08
1.188000e+03 8.332780e+08
1.189000e+03 2.217792e+07
1.190000e+03 8.923853e+07
1.191000e+03 8.416468e+08
1.192000e+03 8.465498e+08
1.193000e+03 2.003814e+07
1.194000e+03 2.569216e+07
1.195000e+03 6.123774e+08
1.196000e+03 8.516262e+08
1.197000e+03 1.074611e+09
1.198000e+03 1.074515e+09
1.199000e+03 1.046280e+09
1.200000e+03 9.269375e+08
1.201000e+03 9.702804e+08
1.202000e+03 9.536880e+08
1.203000e+03 1.048274e+09
1.204000e+03 9.463352e+08
1.205000e+03 8.763617e+08
1.206000e+03 7.713288e+08
1.207000e+03 2.001356e+08
1.208000e+03 5.842959e+08
1.209000e+03 4.428010e+08
1.210000e+03 4.072560e+07
1.211000e+03 2.580566e+08
1.212000e+03 1.639858e+08
1.213000e+03 1.028043e+08
1.214000e+03 5.909682e+07
1.215000e+03 3.659289e+07
1.216000e+03 3.291090e+07
1.217000e+03 5.188732e+07
1.218000e+03 9.293267e+07
1.219000e+03 1.632158e+08
1.220000e+03 2.634243e+08
1.221000e+03 3.898714e+08
1.222000e+03 5.362282e+08
1.223000e+03 6.971298e+08
1.224000e+03 8.685747e+08
1.225000e+03 1.039593e+09
1.226000e+03 1.221798e+09
1.227000e+03 1.391649e+09
1.228000e+03 1.585477e+09
1.229000e+03 1.765646e+09
1.230000e+03 1.936633e+09
1.231000e+03 2.107714e+09
1.232000e+03 2.292183e+09
1.233000e+03 2.458222e+09
1.234000e+03 1.555800e+09
1.235000e+03 2.772090e+09
1.236000e+03 2.898908e+09
1.237000e+03 3.072105e+09
1.238000e+03 3.213923e+09
1.239000e+03 3.352710e+09
1.240000e+03 3.171636e+09
1.241000e+03 5.733969e+09
1.242000e+03 3.123474e+09
1.243000e+03 4.619623e+09
1.244000e+03 1.922779e+09
1.245000e+03 2.896014e+09
1.246000e+03 9.284395e+09
1.247000e+03 9.532219e+09
1.248000e+03 2.098861e+09
1.249000e+03 2.615934e+09
1.250000e+03 1.152687e+10
1.251000e+03 1.199449e+10
1.252000e+03 1.227068e+10
1.253000e+03 1.323880e+10
1.254000e+03 1.349080e+10
1.255000e+03 1.414815e+10
1.256000e+03 1.438527e+10
1.257000e+03 1.523867e+10
1.258000e+03 1.497800e+10
1.259000e+03 1.493886e+10
1.260000e+03 1.150313e+10
1.261000e+03 7.893577e+07
1.262000e+03 1.263550e+09
1.263000e+03 1.708641e+10
1.264000e+03 1.463609e+10
1.265000e+03 7.826227e+07
1.266000e+03 1.826005e+10
1.267000e+03 1.948517e+10
