# wavelength_A flux
5.000000e+02 1.306178e-37
5.010000e+02 1.695698e-37
5.020000e+02 2.199048e-37
5.030000e+02 2.848811e-37
5.040000e+02 3.686702e-37
5.050000e+02 4.783281e-37
5.060000e+02 6.176668e-37
5.070000e+02 7.967376e-37
5.080000e+02 1.026746e-36
5.090000e+02 1.321769e-36
5.100000e+02 1.694347e-36
5.110000e+02 2.183899e-36
5.120000e+02 2.802865e-36
5.130000e+02 3.594026e-36
5.140000e+02 4.603774e-36
5.150000e+02 5.891442e-36
5.160000e+02 7.531936e-36
5.170000e+02 9.620004e-36
5.180000e+02 1.227510e-35
5.190000e+02 1.564803e-35
5.200000e+02 1.992883e-35
5.210000e+02 2.535677e-35
5.220000e+02 3.223207e-35
5.230000e+02 4.093523e-35
5.240000e+02 5.193903e-35
5.250000e+02 6.583991e-35
5.260000e+02 8.338462e-35
5.270000e+02 1.055082e-34
5.280000e+02 1.333806e-34
5.290000e+02 1.684641e-34
5.300000e+02 2.125848e-34
5.310000e+02 2.680215e-34
5.320000e+02 3.376151e-34
5.330000e+02 4.249042e-34
5.340000e+02 5.342926e-34
5.350000e+02 6.712563e-34
5.360000e+02 8.425982e-34
5.370000e+02 1.055753e-33
5.380000e+02 1.324232e-33
5.390000e+02 1.657981e-33
5.400000e+02 2.074084e-33
5.410000e+02 2.592418e-33
5.420000e+02 3.237594e-33
5.430000e+02 4.039949e-33
5.440000e+02 5.036967e-33
5.450000e+02 6.274858e-33
5.460000e+02 7.810563e-33
5.470000e+02 9.714182e-33
5.480000e+02 1.207196e-32
5.490000e+02 1.498989e-32
5.500000e+02 1.859819e-32
5.510000e+02 2.305665e-32
5.520000e+02 2.856122e-32
5.530000e+02 3.535202e-32
5.540000e+02 4.372305e-32
5.550000e+02 5.403405e-32
5.560000e+02 6.672477e-32
5.570000e+02 8.233244e-32
5.580000e+02 1.015128e-31
5.590000e+02 1.250659e-31
5.600000e+02 1.539666e-31
5.610000e+02 1.894026e-31
5.620000e+02 2.328189e-31
5.630000e+02 2.859734e-31
5.640000e+02 3.510021e-31
5.650000e+02 4.304992e-31
5.660000e+02 5.276125e-31
5.670000e+02 6.461593e-31
5.680000e+02 7.907655e-31
5.690000e+02 9.670324e-31
5.700000e+02 1.181738e-30
5.710000e+02 1.443078e-30
5.720000e+02 1.760957e-30
5.730000e+02 2.147333e-30
5.740000e+02 2.616636e-30
5.750000e+02 3.186268e-30
5.760000e+02 3.877199e-30
5.770000e+02 4.714679e-30
5.780000e+02 5.729091e-30
5.790000e+02 6.956977e-30
5.800000e+02 8.442251e-30
5.810000e+02 1.023765e-29
5.820000e+02 1.240647e-29
5.830000e+02 1.502463e-29
5.840000e+02 1.818295e-29
5.850000e+02 2.199087e-29
5.860000e+02 2.657848e-29
5.870000e+02 3.210189e-29
5.880000e+02 3.874770e-29
5.890000e+02 4.673880e-29
5.900000e+02 5.634132e-29
5.910000e+02 6.787279e-29
5.920000e+02 8.171186e-29
5.930000e+02 9.830974e-29
5.940000e+02 1.182038e-28
5.950000e+02 1.420337e-28
5.960000e+02 1.705602e-28
5.970000e+02 2.046876e-28
5.980000e+02 2.454903e-28
5.990000e+02 2.942441e-28
6.000000e+02 3.524625e-28
6.010000e+02 4.219405e-28
6.020000e+02 5.048054e-28
6.030000e+02 6.035768e-28
6.040000e+02 7.212374e-28
6.050000e+02 8.613155e-28
6.060000e+02 1.027983e-27
6.070000e+02 1.226171e-27
6.080000e+02 1.461700e-27
6.090000e+02 1.741441e-27
6.100000e+02 2.073502e-27
6.110000e+02 2.467438e-27
6.120000e+02 2.934508e-27
6.130000e+02 3.487972e-27
6.140000e+02 4.143435e-27
6.150000e+02 4.919252e-27
6.160000e+02 5.837004e-27
6.170000e+02 6.922046e-27
6.180000e+02 8.204150e-27
6.190000e+02 9.718263e-27
6.200000e+02 1.150538e-26
6.210000e+02 1.361355e-26
6.220000e+02 1.609908e-26
6.230000e+02 1.902793e-26
6.240000e+02 2.247729e-26
6.250000e+02 2.653745e-26
6.260000e+02 3.131399e-26
6.270000e+02 3.693031e-26
6.280000e+02 4.353052e-26
6.290000e+02 5.128285e-26
6.300000e+02 6.038360e-26
6.310000e+02 7.106140e-26
6.320000e+02 8.358397e-26
6.330000e+02 9.826124e-26
6.340000e+02 1.154555e-25
6.350000e+02 1.355878e-25
6.360000e+02 1.591483e-25
6.370000e+02 1.867066e-25
6.380000e+02 2.189246e-25
6.390000e+02 2.565711e-25
6.400000e+02 3.005386e-25
6.410000e+02 3.518626e-25
6.420000e+02 4.117441e-25
6.430000e+02 4.815753e-25
6.440000e+02 5.629689e-25
6.450000e+02 6.577928e-25
6.460000e+02 7.682090e-25
6.470000e+02 8.967185e-25
6.480000e+02 1.046214e-24
6.490000e+02 1.220037e-24
6.500000e+02 1.422051e-24
6.510000e+02 1.656715e-24
6.520000e+02 1.929176e-24
6.530000e+02 2.245372e-24
6.540000e+02 2.612150e-24
6.550000e+02 3.037401e-24
6.560000e+02 3.530218e-24
6.570000e+02 4.101069e-24
6.580000e+02 4.762003e-24
6.590000e+02 5.526884e-24
6.600000e+02 6.411654e-24
6.610000e+02 7.434635e-24
6.620000e+02 8.616879e-24
6.630000e+02 9.982565e-24
6.640000e+02 1.155944e-23
6.650000e+02 1.337935e-23
6.660000e+02 1.547882e-23
6.670000e+02 1.789970e-23
6.680000e+02 2.068998e-23
6.690000e+02 2.390459e-23
6.700000e+02 2.760644e-23
6.710000e+02 3.186753e-23
6.720000e+02 3.677020e-23
6.730000e+02 4.240862e-23
6.740000e+02 4.889040e-23
6.750000e+02 5.633851e-23
6.760000e+02 6.489333e-23
6.770000e+02 7.471516e-23
6.780000e+02 8.598686e-23
6.790000e+02 9.891702e-23
6.800000e+02 1.137434e-22
6.810000e+02 1.307371e-22
6.820000e+02 1.502067e-22
6.830000e+02 1.725037e-22
6.840000e+02 1.980283e-22
6.850000e+02 2.272356e-22
6.860000e+02 2.606435e-22
6.870000e+02 2.988403e-22
6.880000e+02 3.424951e-22
6.890000e+02 3.923675e-22
6.900000e+02 4.493202e-22
6.910000e+02 5.143326e-22
6.920000e+02 5.885155e-22
6.930000e+02 6.731292e-22
6.940000e+02 7.696021e-22
6.950000e+02 8.795534e-22
6.960000e+02 1.004817e-21
6.970000e+02 1.147470e-21
6.980000e+02 1.309864e-21
6.990000e+02 1.494659e-21
7.000000e+02 1.704864e-21
7.010000e+02 1.943882e-21
7.020000e+02 2.215559e-21
7.030000e+02 2.524240e-21
7.040000e+02 2.874834e-21
7.050000e+02 3.272881e-21
7.060000e+02 3.724635e-21
7.070000e+02 4.237153e-21
7.080000e+02 4.818390e-21
7.090000e+02 5.477319e-21
7.100000e+02 6.224049e-21
7.110000e+02 7.069968e-21
7.120000e+02 8.027905e-21
7.130000e+02 9.112298e-21
7.140000e+02 1.033940e-20
7.150000e+02 1.172748e-20
7.160000e+02 1.329711e-20
7.170000e+02 1.507139e-20
7.180000e+02 1.707630e-20
7.190000e+02 1.934100e-20
7.200000e+02 2.189827e-20
7.210000e+02 2.478488e-20
7.220000e+02 2.804211e-20
7.230000e+02 3.171628e-20
7.240000e+02 3.585929e-20
7.250000e+02 4.052939e-20
7.260000e+02 4.579181e-20
7.270000e+02 5.171965e-20
7.280000e+02 5.839478e-20
7.290000e+02 6.590885e-20
7.300000e+02 7.436444e-20
7.310000e+02 8.387633e-20
7.320000e+02 9.457289e-20
7.330000e+02 1.065976e-19
7.340000e+02 1.201110e-19
7.350000e+02 1.352923e-19
7.360000e+02 1.523417e-19
7.370000e+02 1.714828e-19
7.380000e+02 1.929653e-19
7.390000e+02 2.170676e-19
7.400000e+02 2.441006e-19
7.410000e+02 2.744107e-19
7.420000e+02 3.083843e-19
7.430000e+02 3.464520e-19
7.440000e+02 3.890936e-19
7.450000e+02 4.368434e-19
7.460000e+02 4.902966e-19
7.470000e+02 5.501155e-19
7.480000e+02 6.170371e-19
7.490000e+02 6.918814e-19
7.500000e+02 7.755603e-19
7.510000e+02 8.690878e-19
7.520000e+02 9.735904e-19
7.530000e+02 1.090321e-18
7.540000e+02 1.220669e-18
7.550000e+02 1.366179e-18
7.560000e+02 1.528566e-18
7.570000e+02 1.709733e-18
7.580000e+02 1.911790e-18
7.590000e+02 2.137078e-18
7.600000e+02 2.388194e-18
7.610000e+02 2.668015e-18
7.620000e+02 2.979730e-18
7.630000e+02 3.326871e-18
7.640000e+02 3.713351e-18
7.650000e+02 4.143502e-18
7.660000e+02 4.622119e-18
7.670000e+02 5.154508e-18
7.680000e+02 5.746538e-18
7.690000e+02 6.404701e-18
7.700000e+02 7.136176e-18
7.710000e+02 7.948893e-18
7.720000e+02 8.851621e-18
7.730000e+02 9.854043e-18
7.740000e+02 1.096685e-17
7.750000e+02 1.220186e-17
7.760000e+02 1.357210e-17
7.770000e+02 1.509196e-17
7.780000e+02 1.677729e-17
7.790000e+02 1.864561e-17
7.800000e+02 2.071621e-17
7.810000e+02 2.301034e-17
7.820000e+02 2.555147e-17
7.830000e+02 2.836539e-17
7.840000e+02 3.148056e-17
7.850000e+02 3.492828e-17
7.860000e+02 3.874304e-17
7.870000e+02 4.296277e-17
7.880000e+02 4.762920e-17
7.890000e+02 5.278826e-17
7.900000e+02 5.849044e-17
7.910000e+02 6.479124e-17
7.920000e+02 7.175168e-17
7.930000e+02 7.943879e-17
7.940000e+02 8.792621e-17
7.950000e+02 9.729482e-17
7.960000e+02 1.076334e-16
7.970000e+02 1.190395e-16
7.980000e+02 1.316201e-16
7.990000e+02 1.454925e-16
8.000000e+02 1.607854e-16
8.010000e+02 1.776401e-16
8.020000e+02 1.962113e-16
8.030000e+02 2.166687e-16
8.040000e+02 2.391981e-16
8.050000e+02 2.640032e-16
8.060000e+02 2.913071e-16
8.070000e+02 3.213539e-16
8.080000e+02 3.544111e-16
8.090000e+02 3.907712e-16
8.100000e+02 4.307544e-16
8.110000e+02 4.747110e-16
8.120000e+02 5.230241e-16
8.130000e+02 5.761123e-16
8.140000e+02 6.344337e-16
8.150000e+02 6.984885e-16
8.160000e+02 7.688234e-16
8.170000e+02 8.460357e-16
8.180000e+02 9.307776e-16
8.190000e+02 1.023761e-15
8.200000e+02 1.125764e-15
8.210000e+02 1.237634e-15
8.220000e+02 1.360298e-15
8.230000e+02 1.494764e-15
8.240000e+02 1.642134e-15
8.250000e+02 1.803610e-15
8.260000e+02 1.980499e-15
8.270000e+02 2.174230e-15
8.280000e+02 2.386355e-15
8.290000e+02 2.618568e-15
8.300000e+02 2.872714e-15
8.310000e+02 3.150801e-15
8.320000e+02 3.455015e-15
8.330000e+02 3.787736e-15
8.340000e+02 4.151553e-15
8.350000e+02 4.549283e-15
8.360000e+02 4.983989e-15
8.370000e+02 5.459005e-15
8.380000e+02 5.977952e-15
8.390000e+02 6.544767e-15
8.400000e+02 7.163730e-15
8.410000e+02 7.839492e-15
8.420000e+02 8.577101e-15
8.430000e+02 9.382042e-15
8.440000e+02 1.026027e-14
8.450000e+02 1.121826e-14
8.460000e+02 1.226301e-14
8.470000e+02 1.340216e-14
8.480000e+02 1.464395e-14
8.490000e+02 1.599735e-14
8.500000e+02 1.747207e-14
8.510000e+02 1.907866e-14
8.520000e+02 2.082853e-14
8.530000e+02 2.273406e-14
8.540000e+02 2.480866e-14
8.550000e+02 2.706688e-14
8.560000e+02 2.952442e-14
8.570000e+02 3.219836e-14
8.580000e+02 3.510713e-14
8.590000e+02 3.827071e-14
8.600000e+02 4.171071e-14
8.610000e+02 4.545053e-14
8.620000e+02 4.951547e-14
8.630000e+02 5.393288e-14
8.640000e+02 5.873238e-14
8.650000e+02 6.394594e-14
8.660000e+02 6.960817e-14
8.670000e+02 7.575644e-14
8.680000e+02 8.243114e-14
8.690000e+02 8.967591e-14
8.700000e+02 9.753787e-14
8.710000e+02 1.060679e-13
8.720000e+02 1.153210e-13
8.730000e+02 1.253565e-13
8.740000e+02 1.362384e-13
8.750000e+02 1.480358e-13
8.760000e+02 1.608232e-13
8.770000e+02 1.746810e-13
8.780000e+02 1.896960e-13
8.790000e+02 2.059617e-13
8.800000e+02 2.235788e-13
8.810000e+02 2.426560e-13
8.820000e+02 2.633104e-13
8.830000e+02 2.856682e-13
8.840000e+02 3.098653e-13
8.850000e+02 3.360481e-13
8.860000e+02 3.643742e-13
8.870000e+02 3.950133e-13
8.880000e+02 4.281483e-13
8.890000e+02 4.639756e-13
8.900000e+02 5.027070e-13
8.910000e+02 5.445702e-13
8.920000e+02 5.898100e-13
8.930000e+02 6.386899e-13
8.940000e+02 6.914932e-13
8.950000e+02 7.485244e-13
8.960000e+02 8.101109e-13
8.970000e+02 8.766046e-13
8.980000e+02 9.483835e-13
8.990000e+02 1.025854e-12
9.000000e+02 1.109452e-12
9.010000e+02 1.199647e-12
9.020000e+02 1.296941e-12
9.030000e+02 1.401876e-12
9.040000e+02 1.515031e-12
9.050000e+02 1.637028e-12
9.060000e+02 1.768536e-12
9.070000e+02 1.910271e-12
9.080000e+02 2.063003e-12
9.090000e+02 2.227555e-12
9.100000e+02 2.404812e-12
9.110000e+02 2.595723e-12
9.120000e+02 2.801303e-12
9.130000e+02 3.022642e-12
9.140000e+02 3.545421e-12
9.150000e+02 5.918882e-10
9.160000e+02 2.845599e-09
9.170000e+02 2.181378e-11
9.180000e+02 7.677332e-10
9.190000e+02 7.725401e-09
9.200000e+02 1.840425e-08
9.210000e+02 5.519824e-12
9.220000e+02 3.872930e-09
9.230000e+02 3.358283e-11
9.240000e+02 2.836487e-11
9.250000e+02 4.351154e-10
9.260000e+02 1.118003e-09
9.270000e+02 3.292905e-11
9.280000e+02 8.192048e-08
9.290000e+02 8.779998e-08
9.300000e+02 2.648490e-08
9.310000e+02 6.624676e-11
9.320000e+02 7.882113e-08
9.330000e+02 3.030692e-09
9.340000e+02 7.050431e-10
9.350000e+02 3.488013e-10
9.360000e+02 1.234097e-10
9.370000e+02 3.970363e-11
9.380000e+02 2.617410e-10
9.390000e+02 4.689882e-10
9.400000e+02 3.845670e-08
9.410000e+02 6.113604e-09
9.420000e+02 2.814601e-07
9.430000e+02 6.954259e-10
9.440000e+02 3.132248e-07
9.450000e+02 2.553308e-07
9.460000e+02 1.049374e-08
9.470000e+02 3.780753e-11
9.480000e+02 6.835193e-08
9.490000e+02 1.784083e-08
9.500000e+02 6.924584e-10
9.510000e+02 1.321665e-08
9.520000e+02 2.895590e-08
9.530000e+02 1.916118e-10
9.540000e+02 5.986460e-11
9.550000e+02 1.595268e-09
9.560000e+02 1.910482e-07
9.570000e+02 9.372165e-10
9.580000e+02 7.810819e-11
9.590000e+02 4.048026e-08
9.600000e+02 1.399179e-09
9.610000e+02 1.927486e-08
9.620000e+02 6.853462e-09
9.630000e+02 8.050165e-10
9.640000e+02 3.043676e-10
9.650000e+02 1.340865e-10
9.660000e+02 1.807308e-09
9.670000e+02 3.434266e-10
9.680000e+02 2.730616e-10
9.690000e+02 8.810439e-09
9.700000e+02 2.445454e-08
9.710000e+02 6.239149e-10
9.720000e+02 2.917719e-10
9.730000e+02 6.507722e-09
9.740000e+02 2.159275e-08
9.750000e+02 4.681891e-09
9.760000e+02 2.628735e-07
9.770000e+02 9.387218e-08
9.780000e+02 4.085256e-08
9.790000e+02 1.716525e-06
9.800000e+02 9.632474e-07
9.810000e+02 1.992771e-08
9.820000e+02 3.899387e-09
9.830000e+02 7.860837e-07
9.840000e+02 9.985084e-08
9.850000e+02 8.850728e-09
9.860000e+02 1.571213e-08
9.870000e+02 5.800262e-07
9.880000e+02 6.043308e-10
9.890000e+02 1.292738e-07
9.900000e+02 5.047534e-07
9.910000e+02 5.463425e-09
9.920000e+02 7.442365e-10
9.930000e+02 2.679824e-06
9.940000e+02 1.662542e-09
9.950000e+02 1.106375e-07
9.960000e+02 1.517122e-09
9.970000e+02 4.751535e-07
9.980000e+02 5.850958e-07
9.990000e+02 8.474504e-09
1.000000e+03 6.405275e-06
1.001000e+03 4.686172e-06
1.002000e+03 2.572757e-06
1.003000e+03 8.074039e-09
1.004000e+03 1.598664e-09
1.005000e+03 3.403602e-08
1.006000e+03 1.832280e-06
1.007000e+03 3.763175e-06
1.008000e+03 1.015663e-06
1.009000e+03 1.298431e-08
1.010000e+03 8.639723e-07
1.011000e+03 8.088896e-07
1.012000e+03 1.567778e-06
1.013000e+03 1.596292e-06
1.014000e+03 2.943523e-09
1.015000e+03 3.174819e-09
1.016000e+03 5.717993e-08
1.017000e+03 3.533614e-09
1.018000e+03 1.317187e-08
1.019000e+03 3.996320e-09
1.020000e+03 2.568777e-06
1.021000e+03 3.964965e-08
1.022000e+03 5.284437e-08
1.023000e+03 5.488346e-09
1.024000e+03 1.044749e-06
1.025000e+03 5.720807e-09
1.026000e+03 9.379983e-09
1.027000e+03 2.154572e-07
1.028000e+03 5.161792e-08
1.029000e+03 7.257768e-09
1.030000e+03 1.644676e-07
1.031000e+03 5.757190e-07
1.032000e+03 8.230031e-06
1.033000e+03 3.445600e-07
1.034000e+03 5.926624e-07
1.035000e+03 4.502908e-08
1.036000e+03 1.095646e-08
1.037000e+03 4.488787e-06
1.038000e+03 2.987025e-05
1.039000e+03 5.667054e-06
1.040000e+03 2.842633e-06
1.041000e+03 1.998717e-05
1.042000e+03 1.836865e-05
1.043000e+03 2.631816e-05
1.044000e+03 9.863264e-05
1.045000e+03 3.266761e-08
1.046000e+03 3.446254e-06
1.047000e+03 2.223715e-06
1.048000e+03 4.243157e-08
1.049000e+03 1.666660e-06
1.050000e+03 3.753430e-07
1.051000e+03 2.215893e-07
1.052000e+03 2.926053e-05
1.053000e+03 3.848104e-05
1.054000e+03 3.077821e-08
1.055000e+03 4.786117e-05
1.056000e+03 5.829583e-05
1.057000e+03 7.031416e-06
1.058000e+03 1.983437e-07
1.059000e+03 3.276255e-07
1.060000e+03 7.317067e-08
1.061000e+03 1.472369e-05
1.062000e+03 1.226188e-07
1.063000e+03 1.187521e-05
1.064000e+03 8.704956e-08
1.065000e+03 5.683250e-08
1.066000e+03 2.302560e-05
1.067000e+03 2.391877e-07
1.068000e+03 1.493248e-04
1.069000e+03 8.469573e-08
1.070000e+03 2.017099e-06
1.071000e+03 3.426770e-05
1.072000e+03 2.566126e-04
1.073000e+03 8.805364e-08
1.074000e+03 9.195029e-06
1.075000e+03 5.267677e-06
1.076000e+03 2.783526e-04
1.077000e+03 2.598354e-07
1.078000e+03 3.655441e-07
1.079000e+03 1.636416e-06
1.080000e+03 9.380041e-06
1.081000e+03 6.019295e-05
1.082000e+03 2.942747e-05
1.083000e+03 1.449624e-05
1.084000e+03 7.483935e-04
1.085000e+03 3.212030e-06
1.086000e+03 3.042226e-04
1.087000e+03 6.979099e-07
1.088000e+03 7.020206e-04
1.089000e+03 8.525559e-04
1.090000e+03 2.622885e-06
1.091000e+03 4.514004e-06
1.092000e+03 6.983253e-04
1.093000e+03 1.118670e-03
1.094000e+03 2.864360e-05
1.095000e+03 1.486798e-03
1.096000e+03 2.193659e-04
1.097000e+03 3.283842e-04
1.098000e+03 1.115893e-03
1.099000e+03 9.521027e-06
1.100000e+03 3.814712e-07
1.101000e+03 6.189094e-07
1.102000e+03 7.885852e-06
1.103000e+03 1.774734e-03
1.104000e+03 1.378857e-03
1.105000e+03 1.833171e-03
1.106000e+03 3.981128e-05
1.107000e+03 6.165355e-07
1.108000e+03 3.457957e-04
1.109000e+03 4.974892e-06
1.110000e+03 1.512059e-03
1.111000e+03 1.286098e-03
1.112000e+03 1.394011e-04
1.113000e+03 2.172842e-03
1.114000e+03 7.509061e-05
1.115000e+03 5.368431e-06
1.116000e+03 1.620386e-06
1.117000e+03 1.742674e-03
1.118000e+03 8.925635e-06
1.119000e+03 1.280116e-04
1.120000e+03 2.947287e-06
1.121000e+03 9.112062e-04
1.122000e+03 5.997579e-03
1.123000e+03 2.362674e-03
1.124000e+03 2.845370e-03
1.125000e+03 1.203213e-03
1.126000e+03 1.043917e-02
1.127000e+03 1.123593e-03
1.128000e+03 5.213979e-03
1.129000e+03 5.148198e-04
1.130000e+03 4.586149e-03
1.131000e+03 6.106721e-03
1.132000e+03 5.606402e-06
1.133000e+03 6.535137e-05
1.134000e+03 9.370227e-04
1.135000e+03 6.142703e-03
1.136000e+03 1.200282e-04
1.137000e+03 3.099671e-03
1.138000e+03 6.866923e-04
1.139000e+03 6.104514e-03
1.140000e+03 4.252257e-03
1.141000e+03 6.795596e-03
1.142000e+03 7.392324e-03
1.143000e+03 6.117709e-04
1.144000e+03 7.866328e-03
1.145000e+03 4.863366e-06
1.146000e+03 7.826644e-03
1.147000e+03 7.129172e-03
1.148000e+03 3.177929e-05
1.149000e+03 3.574360e-03
1.150000e+03 2.888348e-03
1.151000e+03 7.379259e-03
1.152000e+03 3.226487e-03
1.153000e+03 7.907630e-03
1.154000e+03 9.896529e-03
1.155000e+03 4.035189e-03
1.156000e+03 7.614274e-03
1.157000e+03 8.927177e-03
1.158000e+03 9.299237e-04
1.159000e+03 8.440892e-03
1.160000e+03 1.634418e-03
1.161000e+03 7.771032e-03
1.162000e+03 1.553469e-04
1.163000e+03 6.967373e-04
1.164000e+03 6.213528e-05
1.165000e+03 3.539879e-03
1.166000e+03 2.229764e-03
1.167000e+03 1.960522e-03
1.168000e+03 9.783054e-03
1.169000e+03 1.139721e-02
1.170000e+03 1.252815e-03
1.171000e+03 5.642090e-03
1.172000e+03 2.758287e-03
1.173000e+03 4.502649e-03
1.174000e+03 2.783537e-05
1.175000e+03 4.006724e-05
1.176000e+03 1.793646e-05
1.177000e+03 1.488669e-02
1.178000e+03 1.451776e-02
1.179000e+03 1.303952e-02
1.180000e+03 6.427049e-03
1.181000e+03 1.305879e-02
1.182000e+03 1.163310e-02
1.183000e+03 5.881622e-03
1.184000e+03 4.872235e-03
1.185000e+03 5.615311e-03
1.186000e+03 1.345812e-04
1.187000e+03 9.682233e-03
1.188000e+03 4.092448e-03
1.189000e+03 1.130351e-02
1.190000e+03 1.096218e-02
1.191000e+03 9.048655e-03
1.192000e+03 9.562562e-03
1.193000e+03 7.788969e-03
1.194000e+03 9.404884e-03
1.195000e+03 8.934084e-03
1.196000e+03 6.215486e-02
1.197000e+03 1.123574e-01
1.198000e+03 4.436001e-04
1.199000e+03 9.790463e-02
1.200000e+03 1.847705e-03
1.201000e+03 7.036490e-02
1.202000e+03 1.860764e-02
1.203000e+03 5.100047e-02
1.204000e+03 2.436323e-03
1.205000e+03 3.468369e-02
1.206000e+03 2.998044e-02
1.207000e+03 6.468816e-03
1.208000e+03 1.768567e-02
1.209000e+03 1.490075e-02
1.210000e+03 9.714905e-05
1.211000e+03 6.221174e-03
1.212000e+03 2.712981e-03
1.213000e+03 1.614563e-03
1.214000e+03 5.439330e-04
1.215000e+03 1.039840e-04
1.216000e+03 8.055667e-05
1.217000e+03 3.658447e-04
1.218000e+03 1.401173e-03
1.219000e+03 3.443567e-03
1.220000e+03 2.330094e-03
1.221000e+03 1.258576e-02
1.222000e+03 1.663397e-02
1.223000e+03 1.477589e-02
1.224000e+03 3.899806e-02
1.225000e+03 1.023900e-03
1.226000e+03 7.936051e-02
1.227000e+03 9.928321e-02
1.228000e+03 9.918444e-03
1.229000e+03 1.150323e-01
1.230000e+03 8.482293e-02
1.231000e+03 4.626617e-03
1.232000e+03 2.573794e-01
1.233000e+03 3.034361e-01
1.234000e+03 3.315537e-01
1.235000e+03 2.853237e-01
1.236000e+03 1.775278e-02
1.237000e+03 4.415789e-01
1.238000e+03 4.152911e-01
1.239000e+03 1.166677e-01
1.240000e+03 2.667762e-01
1.241000e+03 1.787860e-01
1.242000e+03 3.996785e-01
1.243000e+03 6.756986e-01
1.244000e+03 7.398902e-01
1.245000e+03 7.297998e-01
1.246000e+03 3.404105e-01
1.247000e+03 5.309023e-01
1.248000e+03 7.693665e-01
1.249000e+03 1.006863e+00
1.250000e+03 6.828429e-01
1.251000e+03 1.007221e+00
1.252000e+03 7.341957e-01
1.253000e+03 1.131021e+00
1.254000e+03 7.963013e-01
1.255000e+03 2.912614e-01
1.256000e+03 5.902016e-01
1.257000e+03 6.609239e-01
1.258000e+03 2.821341e-01
1.259000e+03 4.323641e-01
1.260000e+03 1.214604e+00
1.261000e+03 3.816938e-02
1.262000e+03 1.311657e+00
1.263000e+03 1.046869e+00
1.264000e+03 3.718432e-01
1.265000e+03 6.546317e-01
1.266000e+03 1.488895e+00
1.267000e+03 7.003101e-01
