# wavelength_A flux
5.000000e+02 1.134426e-03
5.010000e+02 1.259744e-03
5.020000e+02 1.398299e-03
5.030000e+02 1.551420e-03
5.040000e+02 1.720567e-03
5.050000e+02 1.949947e-03
5.060000e+02 2.160357e-03
5.070000e+02 2.392489e-03
5.080000e+02 2.648396e-03
5.090000e+02 2.930630e-03
5.100000e+02 3.241486e-03
5.110000e+02 3.583828e-03
5.120000e+02 3.960699e-03
5.130000e+02 4.375413e-03
5.140000e+02 4.831598e-03
5.150000e+02 5.333154e-03
5.160000e+02 5.884518e-03
5.170000e+02 6.490014e-03
5.180000e+02 7.155481e-03
5.190000e+02 7.885812e-03
5.200000e+02 8.687290e-03
5.210000e+02 9.566489e-03
5.220000e+02 1.052957e-02
5.230000e+02 1.158742e-02
5.240000e+02 1.274505e-02
5.250000e+02 1.401366e-02
5.260000e+02 1.540251e-02
5.270000e+02 1.692265e-02
5.280000e+02 1.858589e-02
5.290000e+02 2.040109e-02
5.300000e+02 2.239392e-02
5.310000e+02 2.456768e-02
5.320000e+02 2.694271e-02
5.330000e+02 2.953651e-02
5.340000e+02 3.236826e-02
5.350000e+02 3.545884e-02
5.360000e+02 3.883044e-02
5.370000e+02 4.201451e-02
5.380000e+02 4.651653e-02
5.390000e+02 5.088491e-02
5.400000e+02 5.564565e-02
5.410000e+02 6.082670e-02
5.420000e+02 6.647499e-02
5.430000e+02 7.261948e-02
5.440000e+02 7.930426e-02
5.450000e+02 8.657504e-02
5.460000e+02 9.446673e-02
5.470000e+02 1.030734e-01
5.480000e+02 1.124100e-01
5.490000e+02 1.225524e-01
5.500000e+02 1.335654e-01
5.510000e+02 1.455204e-01
5.520000e+02 1.584938e-01
5.530000e+02 1.725632e-01
5.540000e+02 1.878261e-01
5.550000e+02 2.043733e-01
5.560000e+02 2.223075e-01
5.570000e+02 2.417387e-01
5.580000e+02 2.627855e-01
5.590000e+02 2.855742e-01
5.600000e+02 3.102432e-01
5.610000e+02 3.369386e-01
5.620000e+02 3.658182e-01
5.630000e+02 3.970502e-01
5.640000e+02 4.308181e-01
5.650000e+02 4.673155e-01
5.660000e+02 5.067343e-01
5.670000e+02 5.493326e-01
5.680000e+02 5.953242e-01
5.690000e+02 6.449853e-01
5.700000e+02 6.985804e-01
5.710000e+02 7.564103e-01
5.720000e+02 8.187860e-01
5.730000e+02 8.860481e-01
5.740000e+02 9.585579e-01
5.750000e+02 1.036718e+00
5.760000e+02 1.120799e+00
5.770000e+02 1.211601e+00
5.780000e+02 1.309255e+00
5.790000e+02 1.414361e+00
5.800000e+02 1.527498e+00
5.810000e+02 1.649224e+00
5.820000e+02 1.780148e+00
5.830000e+02 1.920923e+00
5.840000e+02 2.071763e+00
5.850000e+02 2.234855e+00
5.860000e+02 2.409779e+00
5.870000e+02 2.597559e+00
5.880000e+02 2.799211e+00
5.890000e+02 3.015667e+00
5.900000e+02 3.248074e+00
5.910000e+02 3.497424e+00
5.920000e+02 3.764923e+00
5.930000e+02 4.051820e+00
5.940000e+02 4.359440e+00
5.950000e+02 4.688934e+00
5.960000e+02 5.042512e+00
5.970000e+02 5.421151e+00
5.980000e+02 5.826732e+00
5.990000e+02 6.261065e+00
6.000000e+02 6.726073e+00
6.010000e+02 7.223581e+00
6.020000e+02 7.756412e+00
6.030000e+02 8.326221e+00
6.040000e+02 8.935646e+00
6.050000e+02 9.587358e+00
6.060000e+02 1.028404e+01
6.070000e+02 1.102871e+01
6.080000e+02 1.182440e+01
6.090000e+02 1.267444e+01
6.100000e+02 1.358231e+01
6.110000e+02 1.455174e+01
6.120000e+02 1.558665e+01
6.130000e+02 1.669121e+01
6.140000e+02 1.786981e+01
6.150000e+02 1.912719e+01
6.160000e+02 2.046824e+01
6.170000e+02 2.189823e+01
6.180000e+02 2.342271e+01
6.190000e+02 2.504749e+01
6.200000e+02 2.677840e+01
6.210000e+02 2.862298e+01
6.220000e+02 3.058768e+01
6.230000e+02 3.267987e+01
6.240000e+02 3.490688e+01
6.250000e+02 3.727782e+01
6.260000e+02 3.980095e+01
6.270000e+02 4.248547e+01
6.280000e+02 4.534108e+01
6.290000e+02 4.837803e+01
6.300000e+02 5.160715e+01
6.310000e+02 5.503945e+01
6.320000e+02 5.868825e+01
6.330000e+02 6.256502e+01
6.340000e+02 6.668365e+01
6.350000e+02 7.105827e+01
6.360000e+02 7.560223e+01
6.370000e+02 8.063620e+01
6.380000e+02 8.587186e+01
6.390000e+02 9.142840e+01
6.400000e+02 9.732427e+01
6.410000e+02 1.035789e+02
6.420000e+02 1.102128e+02
6.430000e+02 1.172453e+02
6.440000e+02 1.247031e+02
6.450000e+02 1.326089e+02
6.460000e+02 1.409876e+02
6.470000e+02 1.498651e+02
6.480000e+02 1.592704e+02
6.490000e+02 1.692322e+02
6.500000e+02 1.797813e+02
6.510000e+02 1.909503e+02
6.520000e+02 2.027734e+02
6.530000e+02 2.152865e+02
6.540000e+02 2.285274e+02
6.550000e+02 2.425357e+02
6.560000e+02 2.573531e+02
6.570000e+02 2.730193e+02
6.580000e+02 2.895927e+02
6.590000e+02 3.071092e+02
6.600000e+02 3.256232e+02
6.610000e+02 3.451892e+02
6.620000e+02 3.658607e+02
6.630000e+02 3.876989e+02
6.640000e+02 4.107649e+02
6.650000e+02 4.351098e+02
6.660000e+02 4.608273e+02
6.670000e+02 4.879734e+02
6.680000e+02 5.166259e+02
6.690000e+02 5.468616e+02
6.700000e+02 5.787617e+02
6.710000e+02 6.124138e+02
6.720000e+02 6.478789e+02
6.730000e+02 6.853334e+02
6.740000e+02 7.247859e+02
6.750000e+02 7.663831e+02
6.760000e+02 8.102253e+02
6.770000e+02 8.564258e+02
6.780000e+02 9.051032e+02
6.790000e+02 9.563815e+02
6.800000e+02 1.010387e+03
6.810000e+02 1.067262e+03
6.820000e+02 1.127147e+03
6.830000e+02 1.190189e+03
6.840000e+02 1.256544e+03
6.850000e+02 1.326373e+03
6.860000e+02 1.399817e+03
6.870000e+02 1.477105e+03
6.880000e+02 1.558422e+03
6.890000e+02 1.643932e+03
6.900000e+02 1.733846e+03
6.910000e+02 1.828382e+03
6.920000e+02 1.927754e+03
6.930000e+02 2.032197e+03
6.940000e+02 2.141950e+03
6.950000e+02 2.257267e+03
6.960000e+02 2.378400e+03
6.970000e+02 2.505609e+03
6.980000e+02 2.639274e+03
6.990000e+02 2.779590e+03
7.000000e+02 2.926904e+03
7.010000e+02 3.081532e+03
7.020000e+02 3.243831e+03
7.030000e+02 3.414145e+03
7.040000e+02 3.592844e+03
7.050000e+02 3.780217e+03
7.060000e+02 3.976850e+03
7.070000e+02 4.183068e+03
7.080000e+02 4.399312e+03
7.090000e+02 4.626009e+03
7.100000e+02 4.863688e+03
7.110000e+02 5.112798e+03
7.120000e+02 5.373862e+03
7.130000e+02 5.647401e+03
7.140000e+02 5.933994e+03
7.150000e+02 6.234209e+03
7.160000e+02 6.548648e+03
7.170000e+02 6.877917e+03
7.180000e+02 7.222550e+03
7.190000e+02 7.583608e+03
7.200000e+02 7.961466e+03
7.210000e+02 8.356946e+03
7.220000e+02 8.770809e+03
7.230000e+02 9.203856e+03
7.240000e+02 9.656650e+03
7.250000e+02 1.013056e+04
7.260000e+02 1.062622e+04
7.270000e+02 1.114456e+04
7.280000e+02 1.168656e+04
7.290000e+02 1.225320e+04
7.300000e+02 1.284554e+04
7.310000e+02 1.346465e+04
7.320000e+02 1.411166e+04
7.330000e+02 1.478772e+04
7.340000e+02 1.549406e+04
7.350000e+02 1.623193e+04
7.360000e+02 1.700263e+04
7.370000e+02 1.780755e+04
7.380000e+02 1.864805e+04
7.390000e+02 1.952561e+04
7.400000e+02 2.044171e+04
7.410000e+02 2.139803e+04
7.420000e+02 2.239543e+04
7.430000e+02 2.343698e+04
7.440000e+02 2.452372e+04
7.450000e+02 2.565749e+04
7.460000e+02 2.684020e+04
7.470000e+02 2.807379e+04
7.480000e+02 2.936019e+04
7.490000e+02 3.070170e+04
7.500000e+02 3.210040e+04
7.510000e+02 3.355856e+04
7.520000e+02 3.507851e+04
7.530000e+02 3.666267e+04
7.540000e+02 3.831355e+04
7.550000e+02 4.003375e+04
7.560000e+02 4.182599e+04
7.570000e+02 4.369252e+04
7.580000e+02 4.563714e+04
7.590000e+02 4.766238e+04
7.600000e+02 4.977096e+04
7.610000e+02 5.196714e+04
7.620000e+02 5.425359e+04
7.630000e+02 5.663376e+04
7.640000e+02 5.911120e+04
7.650000e+02 6.168921e+04
7.660000e+02 6.437237e+04
7.670000e+02 6.716420e+04
7.680000e+02 7.006854e+04
7.690000e+02 7.309036e+04
7.700000e+02 7.623323e+04
7.710000e+02 7.950190e+04
7.720000e+02 8.290104e+04
7.730000e+02 8.643542e+04
7.740000e+02 9.011003e+04
7.750000e+02 9.393001e+04
7.760000e+02 9.789599e+04
7.770000e+02 1.020274e+05
7.780000e+02 1.063161e+05
7.790000e+02 1.107726e+05
7.800000e+02 1.154025e+05
7.810000e+02 1.202125e+05
7.820000e+02 1.252089e+05
7.830000e+02 1.303982e+05
7.840000e+02 1.357871e+05
7.850000e+02 1.413835e+05
7.860000e+02 1.471941e+05
7.870000e+02 1.532271e+05
7.880000e+02 1.594895e+05
7.890000e+02 1.659896e+05
7.900000e+02 1.727359e+05
7.910000e+02 1.797368e+05
7.920000e+02 1.870013e+05
7.930000e+02 1.945384e+05
7.940000e+02 2.023576e+05
7.950000e+02 2.104654e+05
7.960000e+02 2.188781e+05
7.970000e+02 2.276029e+05
7.980000e+02 2.366505e+05
7.990000e+02 2.460311e+05
8.000000e+02 2.557575e+05
8.010000e+02 2.658404e+05
8.020000e+02 2.762927e+05
8.030000e+02 2.871257e+05
8.040000e+02 2.983529e+05
8.050000e+02 3.099871e+05
8.060000e+02 3.220420e+05
8.070000e+02 3.345315e+05
8.080000e+02 3.474701e+05
8.090000e+02 3.608726e+05
8.100000e+02 3.747542e+05
8.110000e+02 3.891306e+05
8.120000e+02 4.040177e+05
8.130000e+02 4.194334e+05
8.140000e+02 4.353936e+05
8.150000e+02 4.519155e+05
8.160000e+02 4.690198e+05
8.170000e+02 4.867227e+05
8.180000e+02 5.050423e+05
8.190000e+02 5.240025e+05
8.200000e+02 5.436217e+05
8.210000e+02 5.639208e+05
8.220000e+02 5.849215e+05
8.230000e+02 6.066457e+05
8.240000e+02 6.291171e+05
8.250000e+02 6.523584e+05
8.260000e+02 6.763940e+05
8.270000e+02 7.012488e+05
8.280000e+02 7.269484e+05
8.290000e+02 7.535068e+05
8.300000e+02 7.809752e+05
8.310000e+02 8.093694e+05
8.320000e+02 8.387179e+05
8.330000e+02 8.690503e+05
8.340000e+02 9.003969e+05
8.350000e+02 9.327209e+05
8.360000e+02 9.662521e+05
8.370000e+02 1.000834e+06
8.380000e+02 1.036552e+06
8.390000e+02 1.073453e+06
8.400000e+02 1.111564e+06
8.410000e+02 1.150924e+06
8.420000e+02 1.191555e+06
8.430000e+02 1.233547e+06
8.440000e+02 1.276886e+06
8.450000e+02 1.321630e+06
8.460000e+02 1.367812e+06
8.470000e+02 1.415493e+06
8.480000e+02 1.464708e+06
8.490000e+02 1.515495e+06
8.500000e+02 1.567914e+06
8.510000e+02 1.622005e+06
8.520000e+02 1.677815e+06
8.530000e+02 1.735399e+06
8.540000e+02 1.794812e+06
8.550000e+02 1.856093e+06
8.560000e+02 1.919302e+06
8.570000e+02 1.984496e+06
8.580000e+02 2.051731e+06
8.590000e+02 2.121066e+06
8.600000e+02 2.192559e+06
8.610000e+02 2.266234e+06
8.620000e+02 2.342230e+06
8.630000e+02 2.420571e+06
8.640000e+02 2.501330e+06
8.650000e+02 2.584565e+06
8.660000e+02 2.670356e+06
8.670000e+02 2.758767e+06
8.680000e+02 2.849872e+06
8.690000e+02 2.943746e+06
8.700000e+02 3.040460e+06
8.710000e+02 3.140111e+06
8.720000e+02 3.242761e+06
8.730000e+02 3.348498e+06
8.740000e+02 3.457407e+06
8.750000e+02 3.569573e+06
8.760000e+02 3.685087e+06
8.770000e+02 3.804031e+06
8.780000e+02 3.926520e+06
8.790000e+02 4.052609e+06
8.800000e+02 4.182423e+06
8.810000e+02 4.316076e+06
8.820000e+02 4.453653e+06
8.830000e+02 4.595260e+06
8.840000e+02 4.741005e+06
8.850000e+02 4.890996e+06
8.860000e+02 5.045346e+06
8.870000e+02 5.204170e+06
8.880000e+02 5.367586e+06
8.890000e+02 5.535713e+06
8.900000e+02 5.708676e+06
8.910000e+02 5.886492e+06
8.920000e+02 6.063342e+06
8.930000e+02 6.257738e+06
8.940000e+02 6.451328e+06
8.950000e+02 6.650408e+06
8.960000e+02 6.855138e+06
8.970000e+02 7.065643e+06
8.980000e+02 7.282077e+06
8.990000e+02 7.504592e+06
9.000000e+02 7.733344e+06
9.010000e+02 7.968487e+06
9.020000e+02 8.210184e+06
9.030000e+02 8.458602e+06
9.040000e+02 8.713833e+06
9.050000e+02 8.976274e+06
9.060000e+02 9.245889e+06
9.070000e+02 9.522765e+06
9.080000e+02 9.807502e+06
9.090000e+02 1.009993e+07
9.100000e+02 1.040034e+07
9.110000e+02 1.070893e+07
9.120000e+02 1.102609e+07
9.130000e+02 1.125247e+07
9.140000e+02 1.176866e+07
9.150000e+02 2.494261e+07
9.160000e+02 8.296672e+07
9.170000e+02 9.204646e+07
9.180000e+02 7.049453e+07
9.190000e+02 1.589593e+08
9.200000e+02 2.072020e+08
9.210000e+02 1.401519e+07
9.220000e+02 2.383844e+08
9.230000e+02 9.179106e+07
9.240000e+02 1.989365e+08
9.250000e+02 2.615862e+08
9.260000e+02 1.402581e+08
9.270000e+02 2.642175e+08
9.280000e+02 2.921268e+08
9.290000e+02 2.389108e+08
9.300000e+02 2.774910e+08
9.310000e+02 1.705443e+08
9.320000e+02 3.145799e+08
9.330000e+02 3.281825e+08
9.340000e+02 3.374260e+08
9.350000e+02 1.042616e+08
9.360000e+02 3.477920e+08
9.370000e+02 6.962566e+07
9.380000e+02 1.333273e+08
9.390000e+02 3.640318e+08
9.400000e+02 3.822913e+08
9.410000e+02 2.128870e+08
9.420000e+02 4.014619e+08
9.430000e+02 4.102120e+08
9.440000e+02 2.325316e+08
9.450000e+02 4.274610e+08
9.460000e+02 4.359493e+08
9.470000e+02 3.178539e+08
9.480000e+02 4.166672e+08
9.490000e+02 4.156612e+08
9.500000e+02 9.226561e+07
9.510000e+02 4.403926e+08
9.520000e+02 4.908303e+08
9.530000e+02 4.959702e+08
9.540000e+02 4.132199e+08
9.550000e+02 5.257657e+08
9.560000e+02 4.923919e+08
9.570000e+02 4.250840e+08
9.580000e+02 5.483061e+08
9.590000e+02 5.733444e+08
9.600000e+02 1.217543e+08
9.610000e+02 5.973719e+08
9.620000e+02 6.060308e+08
9.630000e+02 6.223247e+08
9.640000e+02 4.815085e+07
9.650000e+02 5.794980e+08
9.660000e+02 6.602428e+08
9.670000e+02 6.685590e+08
9.680000e+02 6.734485e+08
9.690000e+02 6.935110e+08
9.700000e+02 7.075485e+08
9.710000e+02 7.041402e+08
9.720000e+02 5.626123e+08
9.730000e+02 5.358404e+08
9.740000e+02 7.438237e+08
9.750000e+02 7.807361e+08
9.760000e+02 8.025077e+08
9.770000e+02 8.193869e+08
9.780000e+02 8.342089e+08
9.790000e+02 8.541759e+08
9.800000e+02 8.710598e+08
9.810000e+02 8.881537e+08
9.820000e+02 8.948131e+08
9.830000e+02 9.230560e+08
9.840000e+02 3.072219e+08
9.850000e+02 9.591267e+08
9.860000e+02 9.771393e+08
9.870000e+02 9.960624e+08
9.880000e+02 1.000360e+09
9.890000e+02 6.758076e+08
9.900000e+02 1.085352e+08
9.910000e+02 1.058880e+09
9.920000e+02 9.545005e+08
9.930000e+02 1.044641e+09
9.940000e+02 1.606222e+08
9.950000e+02 2.384536e+08
9.960000e+02 2.559311e+08
9.970000e+02 2.355140e+08
9.980000e+02 1.223139e+09
9.990000e+02 1.212613e+09
1.000000e+03 1.274036e+09
1.001000e+03 1.298472e+09
1.002000e+03 1.321482e+09
1.003000e+03 1.137617e+09
1.004000e+03 1.365818e+09
1.005000e+03 1.180931e+09
1.006000e+03 1.423213e+09
1.007000e+03 1.447913e+09
1.008000e+03 1.473671e+09
1.009000e+03 1.425064e+09
1.010000e+03 1.529815e+09
1.011000e+03 1.557705e+09
1.012000e+03 1.584782e+09
1.013000e+03 1.613662e+09
1.014000e+03 1.592869e+09
1.015000e+03 1.620651e+09
1.016000e+03 1.692471e+09
1.017000e+03 1.689055e+09
1.018000e+03 1.755888e+09
1.019000e+03 1.774697e+09
1.020000e+03 1.815152e+09
1.021000e+03 1.303301e+09
1.022000e+03 1.769976e+09
1.023000e+03 1.837295e+09
1.024000e+03 1.747601e+09
1.025000e+03 1.194753e+09
1.026000e+03 4.982561e+08
1.027000e+03 1.702673e+09
1.028000e+03 5.709047e+08
1.029000e+03 2.049070e+09
1.030000e+03 2.113556e+09
1.031000e+03 2.204985e+09
1.032000e+03 2.226549e+09
1.033000e+03 1.228263e+09
1.034000e+03 2.345674e+09
1.035000e+03 4.987446e+08
1.036000e+03 2.309229e+09
1.037000e+03 2.878871e+08
1.038000e+03 2.520998e+09
1.039000e+03 2.529028e+09
1.040000e+03 2.610761e+09
1.041000e+03 2.642783e+09
1.042000e+03 2.581965e+09
1.043000e+03 2.695826e+09
1.044000e+03 2.778739e+09
1.045000e+03 2.839321e+09
1.046000e+03 2.894928e+09
1.047000e+03 2.937310e+09
1.048000e+03 2.926532e+09
1.049000e+03 2.972866e+09
1.050000e+03 3.097022e+09
1.051000e+03 3.145847e+09
1.052000e+03 3.204750e+09
1.053000e+03 3.155404e+09
1.054000e+03 3.213321e+09
1.055000e+03 3.362746e+09
1.056000e+03 3.426852e+09
1.057000e+03 3.477717e+09
1.058000e+03 3.535980e+09
1.059000e+03 3.576757e+09
1.060000e+03 3.635692e+09
1.061000e+03 3.718711e+09
1.062000e+03 3.778074e+09
1.063000e+03 1.866509e+09
1.064000e+03 7.587126e+08
1.065000e+03 3.954634e+09
1.066000e+03 3.748062e+09
1.067000e+03 3.830378e+09
1.068000e+03 4.247316e+09
1.069000e+03 4.210633e+09
1.070000e+03 4.243240e+09
1.071000e+03 4.462371e+09
1.072000e+03 4.533256e+09
1.073000e+03 4.534602e+09
1.074000e+03 4.673133e+09
1.075000e+03 4.741800e+09
1.076000e+03 4.832683e+09
1.077000e+03 4.885429e+09
1.078000e+03 4.979535e+09
1.079000e+03 5.036323e+09
1.080000e+03 5.137072e+09
1.081000e+03 5.227758e+09
1.082000e+03 5.309070e+09
1.083000e+03 5.382784e+09
1.084000e+03 4.956851e+09
1.085000e+03 4.160921e+09
1.086000e+03 5.657702e+09
1.087000e+03 5.709529e+09
1.088000e+03 5.814501e+09
1.089000e+03 5.921867e+09
1.090000e+03 5.989741e+09
1.091000e+03 6.092809e+09
1.092000e+03 6.205428e+09
1.093000e+03 6.295758e+09
1.094000e+03 6.397571e+09
1.095000e+03 6.484030e+09
1.096000e+03 6.593341e+09
1.097000e+03 6.637881e+09
1.098000e+03 6.622118e+09
1.099000e+03 6.886281e+09
1.100000e+03 6.856835e+09
1.101000e+03 6.486892e+09
1.102000e+03 1.384971e+10
1.103000e+03 4.022748e+10
1.104000e+03 1.692036e+10
1.105000e+03 6.934995e+09
1.106000e+03 8.455641e+10
1.107000e+03 5.520676e+10
1.108000e+03 8.767759e+10
1.109000e+03 4.495466e+10
1.110000e+03 1.282993e+10
1.111000e+03 1.514797e+10
1.112000e+03 7.837371e+10
1.113000e+03 9.398818e+10
1.114000e+03 5.299196e+09
1.115000e+03 8.710598e+10
1.116000e+03 8.699449e+10
1.117000e+03 5.813658e+09
1.118000e+03 6.888924e+10
1.119000e+03 9.779918e+10
1.120000e+03 9.363905e+10
1.121000e+03 7.539381e+10
1.122000e+03 1.622426e+09
1.123000e+03 1.177221e+10
1.124000e+03 1.036015e+11
1.125000e+03 3.729458e+10
1.126000e+03 1.072135e+11
1.127000e+03 1.036691e+11
1.128000e+03 4.533426e+10
1.129000e+03 1.065724e+11
1.130000e+03 8.076862e+10
1.131000e+03 1.137361e+11
1.132000e+03 4.606566e+09
1.133000e+03 8.756276e+10
1.134000e+03 1.114377e+11
1.135000e+03 2.553790e+09
1.136000e+03 1.107022e+11
1.137000e+03 1.211331e+11
1.138000e+03 1.203438e+11
1.139000e+03 1.211668e+11
1.140000e+03 3.007308e+09
1.141000e+03 1.266889e+11
1.142000e+03 1.158036e+11
1.143000e+03 1.285742e+11
1.144000e+03 1.313788e+11
1.145000e+03 9.404088e+10
1.146000e+03 1.335474e+11
1.147000e+03 1.331093e+11
1.148000e+03 1.243972e+11
1.149000e+03 1.379895e+11
1.150000e+03 1.299775e+11
1.151000e+03 1.402865e+11
1.152000e+03 1.398783e+11
1.153000e+03 3.021338e+10
1.154000e+03 7.069426e+09
1.155000e+03 1.079018e+11
1.156000e+03 3.871113e+10
1.157000e+03 1.496349e+11
1.158000e+03 4.320147e+09
1.159000e+03 1.257266e+11
1.160000e+03 1.427246e+11
1.161000e+03 1.566925e+11
1.162000e+03 2.266544e+10
1.163000e+03 1.473153e+11
1.164000e+03 7.347126e+09
1.165000e+03 1.632086e+11
1.166000e+03 1.604193e+11
1.167000e+03 1.487345e+11
1.168000e+03 1.685867e+11
1.169000e+03 1.654434e+11
1.170000e+03 1.719596e+11
1.171000e+03 1.732086e+11
1.172000e+03 1.593686e+11
1.173000e+03 1.765486e+11
1.174000e+03 1.571936e+11
1.175000e+03 7.727841e+09
1.176000e+03 5.773476e+09
1.177000e+03 1.804203e+11
1.178000e+03 1.577811e+11
1.179000e+03 1.863978e+11
1.180000e+03 1.336807e+11
1.181000e+03 1.853633e+11
1.182000e+03 1.914411e+11
1.183000e+03 1.922346e+11
1.184000e+03 1.933021e+11
1.185000e+03 1.828592e+11
1.186000e+03 1.923771e+11
1.187000e+03 1.968132e+11
1.188000e+03 1.831859e+11
1.189000e+03 6.298796e+09
1.190000e+03 3.178920e+10
1.191000e+03 1.926052e+11
1.192000e+03 1.949307e+11
1.193000e+03 5.295833e+09
1.194000e+03 7.186727e+09
1.195000e+03 1.014052e+11
1.196000e+03 1.917117e+11
1.197000e+03 2.161741e+11
1.198000e+03 2.159487e+11
1.199000e+03 2.122787e+11
1.200000e+03 1.881999e+11
1.201000e+03 1.970718e+11
1.202000e+03 1.915441e+11
1.203000e+03 2.000601e+11
1.204000e+03 1.778395e+11
1.205000e+03 1.700151e+11
1.206000e+03 1.288263e+11
1.207000e+03 6.082159e+10
1.208000e+03 1.167961e+11
1.209000e+03 8.824165e+10
1.210000e+03 1.056190e+10
1.211000e+03 5.572166e+10
1.212000e+03 3.759509e+10
1.213000e+03 2.393182e+10
1.214000e+03 1.400306e+10
1.215000e+03 8.567595e+09
1.216000e+03 7.666743e+09
1.217000e+03 1.213217e+10
1.218000e+03 2.138950e+10
1.219000e+03 3.603526e+10
1.220000e+03 5.540218e+10
1.221000e+03 7.868581e+10
1.222000e+03 1.043463e+11
1.223000e+03 1.316892e+11
1.224000e+03 1.597041e+11
1.225000e+03 1.848622e+11
1.226000e+03 2.123268e+11
1.227000e+03 2.398005e+11
1.228000e+03 2.653600e+11
1.229000e+03 2.886936e+11
1.230000e+03 3.113172e+11
1.231000e+03 3.337568e+11
1.232000e+03 3.608323e+11
1.233000e+03 3.814727e+11
1.234000e+03 2.608487e+11
1.235000e+03 4.168011e+11
1.236000e+03 4.250202e+11
1.237000e+03 4.512976e+11
1.238000e+03 4.646717e+11
1.239000e+03 4.807447e+11
1.240000e+03 4.483468e+11
1.241000e+03 8.073390e+11
1.242000e+03 4.299505e+11
1.243000e+03 6.426311e+11
1.244000e+03 2.566112e+11
1.245000e+03 3.902542e+11
1.246000e+03 1.184307e+12
1.247000e+03 1.242052e+12
1.248000e+03 2.763459e+11
1.249000e+03 3.459910e+11
1.250000e+03 1.432651e+12
1.251000e+03 1.484801e+12
1.252000e+03 1.429538e+12
1.253000e+03 1.599029e+12
1.254000e+03 1.582484e+12
1.255000e+03 1.661027e+12
1.256000e+03 1.632554e+12
1.257000e+03 1.762360e+12
1.258000e+03 1.652438e+12
1.259000e+03 1.686010e+12
1.260000e+03 1.490543e+12
1.261000e+03 1.560483e+10
1.262000e+03 1.591430e+11
1.263000e+03 1.942691e+12
1.264000e+03 1.657641e+12
1.265000e+03 1.484023e+10
1.266000e+03 1.975503e+12
1.267000e+03 2.012161e+12
