# wavelength_A flux
5.000000e+02 1.493472e-26
5.010000e+02 1.842052e-26
5.020000e+02 2.270064e-26
5.030000e+02 2.795170e-26
5.040000e+02 3.438858e-26
5.050000e+02 4.505494e-26
5.060000e+02 5.527712e-26
5.070000e+02 6.772092e-26
5.080000e+02 8.296945e-26
5.090000e+02 1.015254e-25
5.100000e+02 1.153953e-25
5.110000e+02 1.516611e-25
5.120000e+02 1.850371e-25
5.130000e+02 2.258514e-25
5.140000e+02 2.752957e-25
5.150000e+02 3.353011e-25
5.160000e+02 4.080695e-25
5.170000e+02 4.963057e-25
5.180000e+02 6.031356e-25
5.190000e+02 7.324118e-25
5.200000e+02 8.887367e-25
5.210000e+02 1.077625e-24
5.220000e+02 1.305244e-24
5.230000e+02 1.580896e-24
5.240000e+02 1.912757e-24
5.250000e+02 2.312568e-24
5.260000e+02 2.793935e-24
5.270000e+02 3.373084e-24
5.280000e+02 4.069388e-24
5.290000e+02 4.905931e-24
5.300000e+02 5.910340e-24
5.310000e+02 7.115362e-24
5.320000e+02 8.560101e-24
5.330000e+02 1.029105e-23
5.340000e+02 1.236347e-23
5.350000e+02 1.484302e-23
5.360000e+02 1.780738e-23
5.370000e+02 2.085726e-23
5.380000e+02 2.557938e-23
5.390000e+02 3.062721e-23
5.400000e+02 3.664594e-23
5.410000e+02 4.381526e-23
5.420000e+02 5.235939e-23
5.430000e+02 6.252435e-23
5.440000e+02 7.461380e-23
5.450000e+02 8.898280e-23
5.460000e+02 1.060500e-22
5.470000e+02 1.263097e-22
5.480000e+02 1.503430e-22
5.490000e+02 1.788349e-22
5.500000e+02 2.125914e-22
5.510000e+02 2.525601e-22
5.520000e+02 2.998545e-22
5.530000e+02 3.557827e-22
5.540000e+02 4.218799e-22
5.550000e+02 4.999470e-22
5.560000e+02 5.920952e-22
5.570000e+02 7.007981e-22
5.580000e+02 8.289523e-22
5.590000e+02 9.799472e-22
5.600000e+02 1.157747e-21
5.610000e+02 1.366986e-21
5.620000e+02 1.613075e-21
5.630000e+02 1.902336e-21
5.640000e+02 2.242141e-21
5.650000e+02 2.641089e-21
5.660000e+02 3.109202e-21
5.670000e+02 3.658153e-21
5.680000e+02 4.301531e-21
5.690000e+02 5.055147e-21
5.700000e+02 5.937387e-21
5.710000e+02 6.969617e-21
5.720000e+02 8.176658e-21
5.730000e+02 9.587321e-21
5.740000e+02 1.123504e-20
5.750000e+02 1.315857e-20
5.760000e+02 1.540273e-20
5.770000e+02 1.802044e-20
5.780000e+02 2.107063e-20
5.790000e+02 2.462360e-20
5.800000e+02 2.875996e-20
5.810000e+02 3.357290e-20
5.820000e+02 3.917001e-20
5.830000e+02 4.567514e-20
5.840000e+02 5.321435e-20
5.850000e+02 6.200415e-20
5.860000e+02 7.219290e-20
5.870000e+02 8.400579e-20
5.880000e+02 9.769976e-20
5.890000e+02 1.135666e-19
5.900000e+02 1.319416e-19
5.910000e+02 1.532105e-19
5.920000e+02 1.778164e-19
5.930000e+02 2.062685e-19
5.940000e+02 2.391514e-19
5.950000e+02 2.771360e-19
5.960000e+02 3.209919e-19
5.970000e+02 3.716013e-19
5.980000e+02 4.299754e-19
5.990000e+02 4.972722e-19
6.000000e+02 5.748177e-19
6.010000e+02 6.641290e-19
6.020000e+02 7.669413e-19
6.030000e+02 8.852385e-19
6.040000e+02 1.021287e-18
6.050000e+02 1.177676e-18
6.060000e+02 1.357361e-18
6.070000e+02 1.563714e-18
6.080000e+02 1.800582e-18
6.090000e+02 2.072349e-18
6.100000e+02 2.384012e-18
6.110000e+02 2.741261e-18
6.120000e+02 3.150575e-18
6.130000e+02 3.619326e-18
6.140000e+02 4.155898e-18
6.150000e+02 4.769826e-18
6.160000e+02 5.471941e-18
6.170000e+02 6.274550e-18
6.180000e+02 7.191623e-18
6.190000e+02 8.239018e-18
6.200000e+02 9.434719e-18
6.210000e+02 1.079912e-17
6.220000e+02 1.235535e-17
6.230000e+02 1.412958e-17
6.240000e+02 1.615148e-17
6.250000e+02 1.845462e-17
6.260000e+02 2.107698e-17
6.270000e+02 2.406153e-17
6.280000e+02 2.745682e-17
6.290000e+02 3.131775e-17
6.300000e+02 3.570630e-17
6.310000e+02 4.067756e-17
6.320000e+02 4.635532e-17
6.330000e+02 5.278388e-17
6.340000e+02 6.007877e-17
6.350000e+02 6.835255e-17
6.360000e+02 7.773490e-17
6.370000e+02 8.836765e-17
6.380000e+02 1.004134e-16
6.390000e+02 1.140543e-16
6.400000e+02 1.294953e-16
6.410000e+02 1.469671e-16
6.420000e+02 1.667287e-16
6.430000e+02 1.890713e-16
6.440000e+02 2.143220e-16
6.450000e+02 2.428481e-16
6.460000e+02 2.750616e-16
6.470000e+02 3.114250e-16
6.480000e+02 3.524570e-16
6.490000e+02 3.987389e-16
6.500000e+02 4.509222e-16
6.510000e+02 5.097370e-16
6.520000e+02 5.760005e-16
6.530000e+02 6.506276e-16
6.540000e+02 7.346419e-16
6.550000e+02 8.291889e-16
6.560000e+02 9.355487e-16
6.570000e+02 1.055153e-15
6.580000e+02 1.189600e-15
6.590000e+02 1.340676e-15
6.600000e+02 1.510376e-15
6.610000e+02 1.700925e-15
6.620000e+02 1.914807e-15
6.630000e+02 2.154791e-15
6.640000e+02 2.423965e-15
6.650000e+02 2.725771e-15
6.660000e+02 3.064050e-15
6.670000e+02 3.443059e-15
6.680000e+02 3.867560e-15
6.690000e+02 4.342844e-15
6.700000e+02 4.874799e-15
6.710000e+02 5.469974e-15
6.720000e+02 6.135647e-15
6.730000e+02 6.879913e-15
6.740000e+02 7.711761e-15
6.750000e+02 8.641176e-15
6.760000e+02 9.679247e-15
6.770000e+02 1.083828e-14
6.780000e+02 1.213193e-14
6.790000e+02 1.357534e-14
6.800000e+02 1.518531e-14
6.810000e+02 1.698045e-14
6.820000e+02 1.898140e-14
6.830000e+02 2.121100e-14
6.840000e+02 2.369456e-14
6.850000e+02 2.646010e-14
6.860000e+02 2.953862e-14
6.870000e+02 3.296441e-14
6.880000e+02 3.677543e-14
6.890000e+02 4.101360e-14
6.900000e+02 4.572528e-14
6.910000e+02 5.096171e-14
6.920000e+02 5.677944e-14
6.930000e+02 6.324097e-14
6.940000e+02 7.041526e-14
6.950000e+02 7.837841e-14
6.960000e+02 8.721440e-14
6.970000e+02 9.701582e-14
6.980000e+02 1.078848e-13
6.990000e+02 1.199338e-13
7.000000e+02 1.332869e-13
7.010000e+02 1.480806e-13
7.020000e+02 1.644654e-13
7.030000e+02 1.826068e-13
7.040000e+02 2.026871e-13
7.050000e+02 2.249068e-13
7.060000e+02 2.494845e-13
7.070000e+02 2.766684e-13
7.080000e+02 3.067194e-13
7.090000e+02 3.399323e-13
7.100000e+02 3.766290e-13
7.110000e+02 4.171629e-13
7.120000e+02 4.619221e-13
7.130000e+02 5.113327e-13
7.140000e+02 5.658621e-13
7.150000e+02 6.260233e-13
7.160000e+02 6.923787e-13
7.170000e+02 7.655451e-13
7.180000e+02 8.461985e-13
7.190000e+02 9.350798e-13
7.200000e+02 1.033001e-12
7.210000e+02 1.140850e-12
7.220000e+02 1.259600e-12
7.230000e+02 1.390318e-12
7.240000e+02 1.534168e-12
7.250000e+02 1.692426e-12
7.260000e+02 1.866488e-12
7.270000e+02 2.057878e-12
7.280000e+02 2.268264e-12
7.290000e+02 2.499469e-12
7.300000e+02 2.753482e-12
7.310000e+02 3.032479e-12
7.320000e+02 3.338835e-12
7.330000e+02 3.675144e-12
7.340000e+02 4.044231e-12
7.350000e+02 4.449186e-12
7.360000e+02 4.893376e-12
7.370000e+02 5.380475e-12
7.380000e+02 5.914486e-12
7.390000e+02 6.499775e-12
7.400000e+02 7.141098e-12
7.410000e+02 7.843636e-12
7.420000e+02 8.613035e-12
7.430000e+02 9.455439e-12
7.440000e+02 1.037754e-11
7.450000e+02 1.138662e-11
7.460000e+02 1.249060e-11
7.470000e+02 1.369810e-11
7.480000e+02 1.501850e-11
7.490000e+02 1.646198e-11
7.500000e+02 1.803963e-11
7.510000e+02 1.976348e-11
7.520000e+02 2.164663e-11
7.530000e+02 2.370326e-11
7.540000e+02 2.594883e-11
7.550000e+02 2.840007e-11
7.560000e+02 3.107518e-11
7.570000e+02 3.399389e-11
7.580000e+02 3.717762e-11
7.590000e+02 4.064958e-11
7.600000e+02 4.443496e-11
7.610000e+02 4.856107e-11
7.620000e+02 5.305749e-11
7.630000e+02 5.795631e-11
7.640000e+02 6.329226e-11
7.650000e+02 6.910297e-11
7.660000e+02 7.542926e-11
7.670000e+02 8.231520e-11
7.680000e+02 8.980855e-11
7.690000e+02 9.796090e-11
7.700000e+02 1.068286e-10
7.710000e+02 1.164716e-10
7.720000e+02 1.269557e-10
7.730000e+02 1.383514e-10
7.740000e+02 1.507353e-10
7.750000e+02 1.641900e-10
7.760000e+02 1.788048e-10
7.770000e+02 1.946762e-10
7.780000e+02 2.119083e-10
7.790000e+02 2.306136e-10
7.800000e+02 2.509136e-10
7.810000e+02 2.729393e-10
7.820000e+02 2.968322e-10
7.830000e+02 3.227448e-10
7.840000e+02 3.508418e-10
7.850000e+02 3.813006e-10
7.860000e+02 4.143127e-10
7.870000e+02 4.500843e-10
7.880000e+02 4.888377e-10
7.890000e+02 5.308125e-10
7.900000e+02 5.762667e-10
7.910000e+02 6.254783e-10
7.920000e+02 6.787462e-10
7.930000e+02 7.363938e-10
7.940000e+02 7.987669e-10
7.950000e+02 8.662389e-10
7.960000e+02 9.392115e-10
7.970000e+02 1.018117e-09
7.980000e+02 1.103419e-09
7.990000e+02 1.195619e-09
8.000000e+02 1.295252e-09
8.010000e+02 1.402897e-09
8.020000e+02 1.519174e-09
8.030000e+02 1.644749e-09
8.040000e+02 1.780338e-09
8.050000e+02 1.926646e-09
8.060000e+02 2.084694e-09
8.070000e+02 2.255174e-09
8.080000e+02 2.439101e-09
8.090000e+02 2.637498e-09
8.100000e+02 2.851460e-09
8.110000e+02 3.082163e-09
8.120000e+02 3.330867e-09
8.130000e+02 3.598926e-09
8.140000e+02 3.887789e-09
8.150000e+02 4.199010e-09
8.160000e+02 4.534254e-09
8.170000e+02 4.895307e-09
8.180000e+02 5.284081e-09
8.190000e+02 5.702623e-09
8.200000e+02 6.153127e-09
8.210000e+02 6.637942e-09
8.220000e+02 7.159583e-09
8.230000e+02 7.720740e-09
8.240000e+02 8.324293e-09
8.250000e+02 8.973326e-09
8.260000e+02 9.671133e-09
8.270000e+02 1.042124e-08
8.280000e+02 1.122742e-08
8.290000e+02 1.209370e-08
8.300000e+02 1.302440e-08
8.310000e+02 1.402412e-08
8.320000e+02 1.509778e-08
8.330000e+02 1.625064e-08
8.340000e+02 1.748832e-08
8.350000e+02 1.881680e-08
8.360000e+02 2.024255e-08
8.370000e+02 2.177235e-08
8.380000e+02 2.341353e-08
8.390000e+02 2.517388e-08
8.400000e+02 2.706171e-08
8.410000e+02 2.908591e-08
8.420000e+02 3.125595e-08
8.430000e+02 3.358191e-08
8.440000e+02 3.607458e-08
8.450000e+02 3.874543e-08
8.460000e+02 4.160670e-08
8.470000e+02 4.467145e-08
8.480000e+02 4.795357e-08
8.490000e+02 5.146789e-08
8.500000e+02 5.523017e-08
8.510000e+02 5.925726e-08
8.520000e+02 6.356702e-08
8.530000e+02 6.817857e-08
8.540000e+02 7.311215e-08
8.550000e+02 7.838939e-08
8.560000e+02 8.403329e-08
8.570000e+02 9.006830e-08
8.580000e+02 9.652040e-08
8.590000e+02 1.034175e-07
8.600000e+02 1.107888e-07
8.610000e+02 1.186658e-07
8.620000e+02 1.270817e-07
8.630000e+02 1.360719e-07
8.640000e+02 1.456741e-07
8.650000e+02 1.559283e-07
8.660000e+02 1.668770e-07
8.670000e+02 1.785653e-07
8.680000e+02 1.910411e-07
8.690000e+02 2.043555e-07
8.700000e+02 2.185624e-07
8.710000e+02 2.337197e-07
8.720000e+02 2.498879e-07
8.730000e+02 2.671319e-07
8.740000e+02 2.855203e-07
8.750000e+02 3.051262e-07
8.760000e+02 3.260267e-07
8.770000e+02 3.483040e-07
8.780000e+02 3.720448e-07
8.790000e+02 3.973421e-07
8.800000e+02 4.242931e-07
8.810000e+02 4.530017e-07
8.820000e+02 4.835779e-07
8.830000e+02 5.161382e-07
8.840000e+02 5.508060e-07
8.850000e+02 5.877126e-07
8.860000e+02 6.269961e-07
8.870000e+02 6.688035e-07
8.880000e+02 7.132903e-07
8.890000e+02 7.606213e-07
8.900000e+02 8.109708e-07
8.910000e+02 8.645233e-07
8.920000e+02 9.214742e-07
8.930000e+02 9.820303e-07
8.940000e+02 1.046410e-06
8.950000e+02 1.114846e-06
8.960000e+02 1.187582e-06
8.970000e+02 1.264877e-06
8.980000e+02 1.347006e-06
8.990000e+02 1.434258e-06
9.000000e+02 1.526938e-06
9.010000e+02 1.625372e-06
9.020000e+02 1.729901e-06
9.030000e+02 1.840884e-06
9.040000e+02 1.958712e-06
9.050000e+02 2.083781e-06
9.060000e+02 2.216519e-06
9.070000e+02 2.357376e-06
9.080000e+02 2.506830e-06
9.090000e+02 2.665382e-06
9.100000e+02 2.833563e-06
9.110000e+02 3.011933e-06
9.120000e+02 3.201084e-06
9.130000e+02 3.401631e-06
9.140000e+02 3.868132e-06
9.150000e+02 1.095069e-03
9.160000e+02 3.896749e-03
9.170000e+02 7.075640e-05
9.180000e+02 1.471178e-03
9.190000e+02 1.100025e-02
9.200000e+02 2.703274e-02
9.210000e+02 5.503778e-06
9.220000e+02 4.021173e-03
9.230000e+02 9.928020e-05
9.240000e+02 1.226030e-04
9.250000e+02 7.333283e-04
9.260000e+02 1.857405e-03
9.270000e+02 9.518693e-05
9.280000e+02 8.575855e-02
9.290000e+02 1.271262e-01
9.300000e+02 3.242902e-02
9.310000e+02 1.221802e-04
9.320000e+02 1.051387e-01
9.330000e+02 3.251731e-03
9.340000e+02 1.119301e-03
9.350000e+02 7.435878e-04
9.360000e+02 2.231349e-04
9.370000e+02 8.336117e-05
9.380000e+02 4.104014e-04
9.390000e+02 5.369689e-04
9.400000e+02 2.892170e-02
9.410000e+02 5.673240e-03
9.420000e+02 3.510628e-01
9.430000e+02 7.690433e-04
9.440000e+02 4.257228e-01
9.450000e+02 2.725763e-01
9.460000e+02 9.590607e-03
9.470000e+02 5.462277e-05
9.480000e+02 8.610012e-02
9.490000e+02 1.981319e-02
9.500000e+02 8.425320e-04
9.510000e+02 8.769620e-03
9.520000e+02 1.586576e-02
9.530000e+02 2.042347e-04
9.540000e+02 6.615983e-05
9.550000e+02 2.004862e-03
9.560000e+02 2.643138e-01
9.570000e+02 1.137327e-03
9.580000e+02 5.000015e-05
9.590000e+02 8.033021e-02
9.600000e+02 1.520414e-03
9.610000e+02 1.202721e-02
9.620000e+02 4.891073e-03
9.630000e+02 1.520738e-03
9.640000e+02 3.138082e-04
9.650000e+02 1.549423e-04
9.660000e+02 2.181113e-03
9.670000e+02 4.985891e-04
9.680000e+02 3.421903e-04
9.690000e+02 1.150310e-02
9.700000e+02 1.105968e-02
9.710000e+02 6.764324e-04
9.720000e+02 4.798807e-04
9.730000e+02 6.438612e-03
9.740000e+02 1.456504e-02
9.750000e+02 4.129387e-03
9.760000e+02 9.558150e-02
9.770000e+02 4.570130e-02
9.780000e+02 1.741213e-02
9.790000e+02 1.061700e+00
9.800000e+02 8.431402e-01
9.810000e+02 1.357394e-02
9.820000e+02 2.901554e-03
9.830000e+02 3.164723e-01
9.840000e+02 8.035412e-02
9.850000e+02 7.161737e-03
9.860000e+02 1.081054e-02
9.870000e+02 3.801951e-01
9.880000e+02 4.297495e-04
9.890000e+02 5.387504e-02
9.900000e+02 1.578896e-01
9.910000e+02 2.698909e-03
9.920000e+02 2.900551e-04
9.930000e+02 2.161038e+00
9.940000e+02 9.787455e-04
9.950000e+02 1.114525e-01
9.960000e+02 1.163989e-03
9.970000e+02 1.219982e-01
9.980000e+02 1.694138e-01
9.990000e+02 5.229529e-03
1.000000e+03 3.878456e+00
1.001000e+03 2.702073e+00
1.002000e+03 1.076709e+00
1.003000e+03 5.651355e-03
1.004000e+03 8.059740e-04
1.005000e+03 1.589680e-02
1.006000e+03 6.085559e-01
1.007000e+03 1.374009e+00
1.008000e+03 2.873457e-01
1.009000e+03 8.902241e-03
1.010000e+03 3.147394e-01
1.011000e+03 5.980270e-01
1.012000e+03 3.931760e-01
1.013000e+03 3.434092e-01
1.014000e+03 8.557439e-04
1.015000e+03 1.298696e-03
1.016000e+03 1.928282e-02
1.017000e+03 9.671450e-04
1.018000e+03 8.863866e-03
1.019000e+03 1.387596e-03
1.020000e+03 1.163554e+00
1.021000e+03 1.282376e-02
1.022000e+03 1.910567e-02
1.023000e+03 2.255797e-03
1.024000e+03 4.721672e-01
1.025000e+03 1.407944e-03
1.026000e+03 3.710544e-03
1.027000e+03 7.935295e-02
1.028000e+03 2.551848e-02
1.029000e+03 1.730382e-03
1.030000e+03 8.198738e-02
1.031000e+03 1.066910e-01
1.032000e+03 1.178053e+00
1.033000e+03 1.757314e-01
1.034000e+03 1.611185e-01
1.035000e+03 1.784801e-02
1.036000e+03 2.469063e-03
1.037000e+03 8.717058e-01
1.038000e+03 5.779264e+00
1.039000e+03 9.077797e-01
1.040000e+03 1.069772e+00
1.041000e+03 8.844634e+00
1.042000e+03 3.108346e+00
1.043000e+03 3.318756e+00
1.044000e+03 2.833558e+01
1.045000e+03 1.264859e-02
1.046000e+03 1.125818e+00
1.047000e+03 3.279772e-01
1.048000e+03 1.365060e-02
1.049000e+03 3.768469e-01
1.050000e+03 1.445498e-01
1.051000e+03 8.317804e-02
1.052000e+03 3.536750e+00
1.053000e+03 8.559743e+00
1.054000e+03 5.457878e-03
1.055000e+03 1.212686e+01
1.056000e+03 1.237272e+01
1.057000e+03 8.699210e-01
1.058000e+03 9.087846e-02
1.059000e+03 6.131554e-02
1.060000e+03 2.162671e-02
1.061000e+03 1.306370e+00
1.062000e+03 5.183777e-02
1.063000e+03 1.337770e+00
1.064000e+03 2.245331e-02
1.065000e+03 8.918285e-03
1.066000e+03 1.862996e+00
1.067000e+03 4.988545e-02
1.068000e+03 3.552654e+01
1.069000e+03 1.895708e-02
1.070000e+03 6.258240e-01
1.071000e+03 7.959395e+00
1.072000e+03 1.783412e+01
1.073000e+03 1.335335e-02
1.074000e+03 9.466114e-01
1.075000e+03 5.807190e-01
1.076000e+03 2.103903e+01
1.077000e+03 7.632720e-02
1.078000e+03 1.210623e-01
1.079000e+03 4.592549e-01
1.080000e+03 1.342143e+00
1.081000e+03 4.418351e+00
1.082000e+03 2.817677e+00
1.083000e+03 1.630739e+00
1.084000e+03 7.609181e+01
1.085000e+03 5.129356e-01
1.086000e+03 4.230305e+01
1.087000e+03 1.239357e-01
1.088000e+03 1.305744e+02
1.089000e+03 1.207011e+02
1.090000e+03 4.145679e-01
1.091000e+03 5.447235e-01
1.092000e+03 5.878695e+01
1.093000e+03 7.635262e+01
1.094000e+03 4.355352e+00
1.095000e+03 1.600502e+02
1.096000e+03 2.763346e+01
1.097000e+03 1.326440e+01
1.098000e+03 1.216452e+02
1.099000e+03 1.483505e+00
1.100000e+03 6.373310e-02
1.101000e+03 1.276335e-01
1.102000e+03 8.868100e-01
1.103000e+03 8.020815e+01
1.104000e+03 2.111074e+02
1.105000e+03 1.215241e+02
1.106000e+03 3.735569e+00
1.107000e+03 8.670425e-02
1.108000e+03 1.868404e+01
1.109000e+03 5.499954e-01
1.110000e+03 2.625924e+02
1.111000e+03 5.845281e+01
1.112000e+03 9.393600e+00
1.113000e+03 1.385069e+02
1.114000e+03 6.143884e+00
1.115000e+03 7.830238e-01
1.116000e+03 4.099171e-01
1.117000e+03 5.770171e+01
1.118000e+03 8.796940e-01
1.119000e+03 1.235899e+01
1.120000e+03 4.848175e-01
1.121000e+03 4.154017e+01
1.122000e+03 2.881379e+02
1.123000e+03 8.351614e+01
1.124000e+03 9.382262e+01
1.125000e+03 4.124165e+01
1.126000e+03 7.615188e+02
1.127000e+03 6.576887e+01
1.128000e+03 3.554860e+02
1.129000e+03 2.869011e+01
1.130000e+03 1.541823e+02
1.131000e+03 3.192451e+02
1.132000e+03 8.718157e-01
1.133000e+03 3.569855e+00
1.134000e+03 3.167639e+01
1.135000e+03 2.354779e+02
1.136000e+03 7.757202e+00
1.137000e+03 1.215047e+02
1.138000e+03 2.788504e+01
1.139000e+03 3.211378e+02
1.140000e+03 3.935456e+02
1.141000e+03 2.295769e+02
1.142000e+03 5.042852e+02
1.143000e+03 4.636371e+01
1.144000e+03 4.577337e+02
1.145000e+03 5.327301e-01
1.146000e+03 6.265956e+02
1.147000e+03 3.170645e+02
1.148000e+03 2.600128e+00
1.149000e+03 1.426932e+02
1.150000e+03 8.444918e+01
1.151000e+03 5.571313e+02
1.152000e+03 2.352836e+02
1.153000e+03 3.377158e+02
1.154000e+03 6.734270e+02
1.155000e+03 1.202843e+02
1.156000e+03 5.746896e+02
1.157000e+03 6.668345e+02
1.158000e+03 5.192944e+01
1.159000e+03 4.477686e+02
1.160000e+03 5.717752e+01
1.161000e+03 3.682411e+02
1.162000e+03 9.964584e+00
1.163000e+03 2.852936e+01
1.164000e+03 5.866959e+00
1.165000e+03 1.877646e+02
1.166000e+03 1.078416e+02
1.167000e+03 1.031025e+02
1.168000e+03 6.482250e+02
1.169000e+03 7.503762e+02
1.170000e+03 7.691734e+01
1.171000e+03 2.797035e+02
1.172000e+03 8.631580e+01
1.173000e+03 3.142033e+02
1.174000e+03 2.592815e+00
1.175000e+03 3.627892e+00
1.176000e+03 1.289413e+00
1.177000e+03 9.275347e+02
1.178000e+03 9.244469e+02
1.179000e+03 6.147344e+02
1.180000e+03 1.774058e+02
1.181000e+03 8.344826e+02
1.182000e+03 5.481371e+02
1.183000e+03 2.031456e+02
1.184000e+03 1.605256e+02
1.185000e+03 2.268659e+02
1.186000e+03 1.135519e+01
1.187000e+03 3.697762e+02
1.188000e+03 1.171760e+02
1.189000e+03 6.966307e+02
1.190000e+03 6.255164e+02
1.191000e+03 3.297409e+02
1.192000e+03 4.910655e+02
1.193000e+03 2.833916e+02
1.194000e+03 4.647862e+02
1.195000e+03 4.402482e+02
1.196000e+03 1.070402e+03
1.197000e+03 3.208072e+03
1.198000e+03 3.000644e+01
1.199000e+03 3.109484e+03
1.200000e+03 7.655084e+01
1.201000e+03 2.253757e+03
1.202000e+03 3.427593e+02
1.203000e+03 1.312209e+03
1.204000e+03 7.485318e+01
1.205000e+03 9.139229e+02
1.206000e+03 1.079823e+03
1.207000e+03 3.753039e+02
1.208000e+03 6.492065e+02
1.209000e+03 7.409829e+02
1.210000e+03 5.594330e+00
1.211000e+03 3.301254e+02
1.212000e+03 1.251396e+02
1.213000e+03 1.029543e+02
1.214000e+03 3.531723e+01
1.215000e+03 5.275461e+00
1.216000e+03 2.948565e+00
1.217000e+03 2.261092e+01
1.218000e+03 8.696563e+01
1.219000e+03 1.999011e+02
1.220000e+03 8.307658e+01
1.221000e+03 5.900169e+02
1.222000e+03 5.640191e+02
1.223000e+03 5.023323e+02
1.224000e+03 1.640393e+03
1.225000e+03 4.641675e+01
1.226000e+03 2.896631e+03
1.227000e+03 2.657076e+03
1.228000e+03 2.486151e+02
1.229000e+03 1.801006e+03
1.230000e+03 1.185405e+03
1.231000e+03 1.591721e+02
1.232000e+03 6.697952e+03
1.233000e+03 7.835803e+03
1.234000e+03 7.485388e+03
1.235000e+03 4.749181e+03
1.236000e+03 3.577856e+02
1.237000e+03 8.186941e+03
1.238000e+03 5.485135e+03
1.239000e+03 2.053171e+03
1.240000e+03 5.843314e+03
1.241000e+03 2.015802e+03
1.242000e+03 4.705341e+03
1.243000e+03 1.077690e+04
1.244000e+03 1.313674e+04
1.245000e+03 9.061871e+03
1.246000e+03 4.107126e+03
1.247000e+03 6.378899e+03
1.248000e+03 1.340516e+04
1.249000e+03 1.718706e+04
1.250000e+03 9.355416e+03
1.251000e+03 1.483895e+04
1.252000e+03 7.907038e+03
1.253000e+03 1.683244e+04
1.254000e+03 8.841540e+03
1.255000e+03 7.733157e+03
1.256000e+03 6.980413e+03
1.257000e+03 1.160352e+04
1.258000e+03 2.795782e+03
1.259000e+03 5.050510e+03
1.260000e+03 1.605028e+04
1.261000e+03 1.317033e+03
1.262000e+03 2.028419e+04
1.263000e+03 1.184098e+04
1.264000e+03 3.822050e+03
1.265000e+03 3.746739e+03
1.266000e+03 1.644756e+04
1.267000e+03 5.739555e+03
