# wavelength_A flux
5.000000e+02 1.187963e-20
5.010000e+02 1.427066e-20
5.020000e+02 1.713009e-20
5.030000e+02 2.054714e-20
5.040000e+02 2.462754e-20
5.050000e+02 2.872712e-20
5.060000e+02 3.438227e-20
5.070000e+02 4.112078e-20
5.080000e+02 4.914445e-20
5.090000e+02 5.869157e-20
5.100000e+02 7.004335e-20
5.110000e+02 8.353141e-20
5.120000e+02 9.954659e-20
5.130000e+02 1.185491e-19
5.140000e+02 1.410806e-19
5.150000e+02 1.677791e-19
5.160000e+02 1.993902e-19
5.170000e+02 2.368044e-19
5.180000e+02 2.810283e-19
5.190000e+02 3.332967e-19
5.200000e+02 3.950205e-19
5.210000e+02 4.678625e-19
5.220000e+02 5.538257e-19
5.230000e+02 6.550127e-19
5.240000e+02 7.742537e-19
5.250000e+02 9.146030e-19
5.260000e+02 1.079694e-18
5.270000e+02 1.273762e-18
5.280000e+02 1.501745e-18
5.290000e+02 1.769782e-18
5.300000e+02 2.083438e-18
5.310000e+02 2.451658e-18
5.320000e+02 2.883144e-18
5.330000e+02 3.388450e-18
5.340000e+02 3.979844e-18
5.350000e+02 4.671571e-18
5.360000e+02 5.480193e-18
5.370000e+02 6.516989e-18
5.380000e+02 7.527767e-18
5.390000e+02 8.814395e-18
5.400000e+02 1.031496e-17
5.410000e+02 1.206488e-17
5.420000e+02 1.410089e-17
5.430000e+02 1.647187e-17
5.440000e+02 1.923042e-17
5.450000e+02 2.243783e-17
5.460000e+02 2.616905e-17
5.470000e+02 3.049358e-17
5.480000e+02 3.551788e-17
5.490000e+02 4.134633e-17
5.500000e+02 4.810386e-17
5.510000e+02 5.593418e-17
5.520000e+02 6.500253e-17
5.530000e+02 7.549882e-17
5.540000e+02 8.764121e-17
5.550000e+02 1.016801e-16
5.560000e+02 1.179030e-16
5.570000e+02 1.366393e-16
5.580000e+02 1.582669e-16
5.590000e+02 1.832185e-16
5.600000e+02 2.119895e-16
5.610000e+02 2.451471e-16
5.620000e+02 2.833399e-16
5.630000e+02 3.273093e-16
5.640000e+02 3.779027e-16
5.650000e+02 4.360878e-16
5.660000e+02 5.029690e-16
5.670000e+02 5.798067e-16
5.680000e+02 6.680377e-16
5.690000e+02 7.693000e-16
5.700000e+02 8.854597e-16
5.710000e+02 1.018641e-15
5.720000e+02 1.171262e-15
5.730000e+02 1.346073e-15
5.740000e+02 1.546201e-15
5.750000e+02 1.775165e-15
5.760000e+02 2.037183e-15
5.770000e+02 2.336458e-15
5.780000e+02 2.678541e-15
5.790000e+02 3.069212e-15
5.800000e+02 3.515162e-15
5.810000e+02 4.023969e-15
5.820000e+02 4.604228e-15
5.830000e+02 5.265714e-15
5.840000e+02 6.021478e-15
5.850000e+02 6.877936e-15
5.860000e+02 7.854173e-15
5.870000e+02 8.965435e-15
5.880000e+02 1.022924e-14
5.890000e+02 1.166585e-14
5.900000e+02 1.329802e-14
5.910000e+02 1.515167e-14
5.920000e+02 1.725584e-14
5.930000e+02 1.964333e-14
5.940000e+02 2.235106e-14
5.950000e+02 2.542064e-14
5.960000e+02 2.889888e-14
5.970000e+02 3.283845e-14
5.980000e+02 3.729859e-14
5.990000e+02 4.234589e-14
6.000000e+02 4.805518e-14
6.010000e+02 5.451052e-14
6.020000e+02 6.180621e-14
6.030000e+02 7.004819e-14
6.040000e+02 7.935524e-14
6.050000e+02 8.986055e-14
6.060000e+02 1.017135e-13
6.070000e+02 1.150811e-13
6.080000e+02 1.301509e-13
6.090000e+02 1.471326e-13
6.100000e+02 1.662609e-13
6.110000e+02 1.877981e-13
6.120000e+02 2.120380e-13
6.130000e+02 2.393085e-13
6.140000e+02 2.699761e-13
6.150000e+02 3.044503e-13
6.160000e+02 3.431879e-13
6.170000e+02 3.866990e-13
6.180000e+02 4.355525e-13
6.190000e+02 4.903827e-13
6.200000e+02 5.518965e-13
6.210000e+02 6.208821e-13
6.220000e+02 6.982168e-13
6.230000e+02 7.848776e-13
6.240000e+02 8.819520e-13
6.250000e+02 9.906497e-13
6.260000e+02 1.112316e-12
6.270000e+02 1.248447e-12
6.280000e+02 1.400705e-12
6.290000e+02 1.570936e-12
6.300000e+02 1.761194e-12
6.310000e+02 1.975587e-12
6.320000e+02 2.211129e-12
6.330000e+02 2.476152e-12
6.340000e+02 2.771889e-12
6.350000e+02 3.101893e-12
6.360000e+02 3.469746e-12
6.370000e+02 3.879899e-12
6.380000e+02 4.336962e-12
6.390000e+02 4.846117e-12
6.400000e+02 5.413098e-12
6.410000e+02 6.044251e-12
6.420000e+02 6.746591e-12
6.430000e+02 7.527872e-12
6.440000e+02 8.396664e-12
6.450000e+02 9.362437e-12
6.460000e+02 1.043564e-11
6.470000e+02 1.162782e-11
6.480000e+02 1.295170e-11
6.490000e+02 1.442134e-11
6.500000e+02 1.605224e-11
6.510000e+02 1.786147e-11
6.520000e+02 1.986786e-11
6.530000e+02 2.209215e-11
6.540000e+02 2.455720e-11
6.550000e+02 2.728814e-11
6.560000e+02 3.031266e-11
6.570000e+02 3.366157e-11
6.580000e+02 3.736736e-11
6.590000e+02 4.146787e-11
6.600000e+02 4.600330e-11
6.610000e+02 5.101812e-11
6.620000e+02 5.656126e-11
6.630000e+02 6.268639e-11
6.640000e+02 6.945249e-11
6.650000e+02 7.692428e-11
6.660000e+02 8.517270e-11
6.670000e+02 9.427568e-11
6.680000e+02 1.043186e-10
6.690000e+02 1.153951e-10
6.700000e+02 1.276078e-10
6.710000e+02 1.410689e-10
6.720000e+02 1.559017e-10
6.730000e+02 1.722410e-10
6.740000e+02 1.902342e-10
6.750000e+02 2.100428e-10
6.760000e+02 2.318434e-10
6.770000e+02 2.558291e-10
6.780000e+02 2.822110e-10
6.790000e+02 3.112200e-10
6.800000e+02 3.431083e-10
6.810000e+02 3.781512e-10
6.820000e+02 4.166496e-10
6.830000e+02 4.589319e-10
6.840000e+02 5.053566e-10
6.850000e+02 5.563147e-10
6.860000e+02 6.122328e-10
6.870000e+02 6.735761e-10
6.880000e+02 7.408519e-10
6.890000e+02 8.146129e-10
6.900000e+02 8.954613e-10
6.910000e+02 9.840533e-10
6.920000e+02 1.081103e-09
6.930000e+02 1.187389e-09
6.940000e+02 1.303758e-09
6.950000e+02 1.431130e-09
6.960000e+02 1.570508e-09
6.970000e+02 1.723011e-09
6.980000e+02 1.889737e-09
6.990000e+02 2.072061e-09
7.000000e+02 2.271353e-09
7.010000e+02 2.489134e-09
7.020000e+02 2.727055e-09
7.030000e+02 2.986910e-09
7.040000e+02 3.270646e-09
7.050000e+02 3.580374e-09
7.060000e+02 3.918388e-09
7.070000e+02 4.287172e-09
7.080000e+02 4.689424e-09
7.090000e+02 5.128068e-09
7.100000e+02 5.606269e-09
7.110000e+02 6.127463e-09
7.120000e+02 6.695367e-09
7.130000e+02 7.314013e-09
7.140000e+02 7.987759e-09
7.150000e+02 8.721328e-09
7.160000e+02 9.519831e-09
7.170000e+02 1.038881e-08
7.180000e+02 1.133432e-08
7.190000e+02 1.236253e-08
7.200000e+02 1.348076e-08
7.210000e+02 1.469645e-08
7.220000e+02 1.601779e-08
7.230000e+02 1.745358e-08
7.240000e+02 1.901338e-08
7.250000e+02 2.070747e-08
7.260000e+02 2.254698e-08
7.270000e+02 2.454391e-08
7.280000e+02 2.671120e-08
7.290000e+02 2.906283e-08
7.300000e+02 3.161388e-08
7.310000e+02 3.438059e-08
7.320000e+02 3.738049e-08
7.330000e+02 4.063248e-08
7.340000e+02 4.415690e-08
7.350000e+02 4.797570e-08
7.360000e+02 5.211256e-08
7.370000e+02 5.659275e-08
7.380000e+02 6.144384e-08
7.390000e+02 6.669528e-08
7.400000e+02 7.237881e-08
7.410000e+02 7.852854e-08
7.420000e+02 8.518128e-08
7.430000e+02 9.237648e-08
7.440000e+02 1.001567e-07
7.450000e+02 1.085675e-07
7.460000e+02 1.176581e-07
7.470000e+02 1.274813e-07
7.480000e+02 1.380936e-07
7.490000e+02 1.495560e-07
7.500000e+02 1.619339e-07
7.510000e+02 1.752975e-07
7.520000e+02 1.897221e-07
7.530000e+02 2.052886e-07
7.540000e+02 2.220838e-07
7.550000e+02 2.402008e-07
7.560000e+02 2.597394e-07
7.570000e+02 2.808070e-07
7.580000e+02 3.035175e-07
7.590000e+02 3.279954e-07
7.600000e+02 3.543706e-07
7.610000e+02 3.827860e-07
7.620000e+02 4.133924e-07
7.630000e+02 4.463520e-07
7.640000e+02 4.818383e-07
7.650000e+02 5.200372e-07
7.660000e+02 5.611474e-07
7.670000e+02 6.053820e-07
7.680000e+02 6.529706e-07
7.690000e+02 7.041831e-07
7.700000e+02 7.591894e-07
7.710000e+02 8.183628e-07
7.720000e+02 8.819690e-07
7.730000e+02 9.503265e-07
7.740000e+02 1.023776e-06
7.750000e+02 1.102680e-06
7.760000e+02 1.187437e-06
7.770000e+02 1.278434e-06
7.780000e+02 1.376142e-06
7.790000e+02 1.481024e-06
7.800000e+02 1.593586e-06
7.810000e+02 1.714366e-06
7.820000e+02 1.843941e-06
7.830000e+02 1.982922e-06
7.840000e+02 2.131965e-06
7.850000e+02 2.291767e-06
7.860000e+02 2.463074e-06
7.870000e+02 2.646669e-06
7.880000e+02 2.843416e-06
7.890000e+02 3.054206e-06
7.900000e+02 3.280002e-06
7.910000e+02 3.521826e-06
7.920000e+02 3.780767e-06
7.930000e+02 4.057987e-06
7.940000e+02 4.354720e-06
7.950000e+02 4.672283e-06
7.960000e+02 5.012076e-06
7.970000e+02 5.375588e-06
7.980000e+02 5.764405e-06
7.990000e+02 6.180213e-06
8.000000e+02 6.624807e-06
8.010000e+02 7.100094e-06
8.020000e+02 7.608102e-06
8.030000e+02 8.150988e-06
8.040000e+02 8.731044e-06
8.050000e+02 9.350705e-06
8.060000e+02 1.001256e-05
8.070000e+02 1.071936e-05
8.080000e+02 1.147402e-05
8.090000e+02 1.227964e-05
8.100000e+02 1.313952e-05
8.110000e+02 1.405716e-05
8.120000e+02 1.503626e-05
8.130000e+02 1.608076e-05
8.140000e+02 1.719485e-05
8.150000e+02 1.838296e-05
8.160000e+02 1.964977e-05
8.170000e+02 2.100030e-05
8.180000e+02 2.243983e-05
8.190000e+02 2.397396e-05
8.200000e+02 2.560864e-05
8.210000e+02 2.735018e-05
8.220000e+02 2.920524e-05
8.230000e+02 3.118091e-05
8.240000e+02 3.328468e-05
8.250000e+02 3.552450e-05
8.260000e+02 3.790876e-05
8.270000e+02 4.044638e-05
8.280000e+02 4.314679e-05
8.290000e+02 4.601995e-05
8.300000e+02 4.907644e-05
8.310000e+02 5.232743e-05
8.320000e+02 5.578475e-05
8.330000e+02 5.946091e-05
8.340000e+02 6.336915e-05
8.350000e+02 6.753222e-05
8.360000e+02 7.193912e-05
8.370000e+02 7.663033e-05
8.380000e+02 8.161510e-05
8.390000e+02 8.691040e-05
8.400000e+02 9.253473e-05
8.410000e+02 9.850762e-05
8.420000e+02 1.048515e-04
8.430000e+02 1.115827e-04
8.440000e+02 1.187297e-04
8.450000e+02 1.263149e-04
8.460000e+02 1.343641e-04
8.470000e+02 1.429044e-04
8.480000e+02 1.519642e-04
8.490000e+02 1.615738e-04
8.500000e+02 1.717651e-04
8.510000e+02 1.825716e-04
8.520000e+02 1.940288e-04
8.530000e+02 2.061740e-04
8.540000e+02 2.190459e-04
8.550000e+02 2.326877e-04
8.560000e+02 2.471424e-04
8.570000e+02 2.624562e-04
8.580000e+02 2.787030e-04
8.590000e+02 2.958588e-04
8.600000e+02 3.140529e-04
8.610000e+02 3.333195e-04
8.620000e+02 3.537122e-04
8.630000e+02 3.753006e-04
8.640000e+02 3.981492e-04
8.650000e+02 4.223281e-04
8.660000e+02 4.479112e-04
8.670000e+02 4.749763e-04
8.680000e+02 5.036052e-04
8.690000e+02 5.338840e-04
8.700000e+02 5.659049e-04
8.710000e+02 5.997588e-04
8.720000e+02 6.355505e-04
8.730000e+02 6.733841e-04
8.740000e+02 7.133704e-04
8.750000e+02 7.556265e-04
8.760000e+02 8.002748e-04
8.770000e+02 8.474450e-04
8.780000e+02 8.972720e-04
8.790000e+02 9.498982e-04
8.800000e+02 1.005475e-03
8.810000e+02 1.064157e-03
8.820000e+02 1.126113e-03
8.830000e+02 1.191515e-03
8.840000e+02 1.260546e-03
8.850000e+02 1.333397e-03
8.860000e+02 1.410271e-03
8.870000e+02 1.491378e-03
8.880000e+02 1.576940e-03
8.890000e+02 1.667191e-03
8.900000e+02 1.762375e-03
8.910000e+02 1.862749e-03
8.920000e+02 1.969525e-03
8.930000e+02 2.080156e-03
8.940000e+02 2.197770e-03
8.950000e+02 2.321732e-03
8.960000e+02 2.452369e-03
8.970000e+02 2.590025e-03
8.980000e+02 2.735057e-03
8.990000e+02 2.887840e-03
9.000000e+02 3.048771e-03
9.010000e+02 3.218261e-03
9.020000e+02 3.396746e-03
9.030000e+02 3.584688e-03
9.040000e+02 3.782531e-03
9.050000e+02 3.990803e-03
9.060000e+02 4.210019e-03
9.070000e+02 4.440738e-03
9.080000e+02 4.683495e-03
9.090000e+02 4.938926e-03
9.100000e+02 5.207647e-03
9.110000e+02 5.490308e-03
9.120000e+02 5.787504e-03
9.130000e+02 6.157155e-03
9.140000e+02 6.114244e-03
9.150000e+02 4.422775e+00
9.160000e+02 1.803768e+01
9.170000e+02 1.638270e+00
9.180000e+02 1.320236e+01
9.190000e+02 5.339029e+01
9.200000e+02 8.408855e+01
9.210000e+02 9.338232e-03
9.220000e+02 4.543935e+01
9.230000e+02 2.655438e+00
9.240000e+02 3.159668e+00
9.250000e+02 1.235404e+01
9.260000e+02 3.731709e+01
9.270000e+02 1.847437e+00
9.280000e+02 1.374349e+02
9.290000e+02 1.384758e+02
9.300000e+02 1.321716e+02
9.310000e+02 2.043352e+00
9.320000e+02 1.669727e+02
9.330000e+02 4.072494e+01
9.340000e+02 1.794817e+01
9.350000e+02 3.283174e-01
9.360000e+02 2.969723e+00
9.370000e+02 1.164783e-01
9.380000e+02 9.950867e+00
9.390000e+02 5.715090e+00
9.400000e+02 1.509351e+02
9.410000e+02 1.492298e+01
9.420000e+02 2.446072e+02
9.430000e+02 8.447411e+00
9.440000e+02 2.290445e+02
9.450000e+02 2.652974e+02
9.460000e+02 9.366921e+01
9.470000e+02 5.871811e-01
9.480000e+02 2.511965e+02
9.490000e+02 2.204124e+02
9.500000e+02 1.618328e+00
9.510000e+02 7.898531e+01
9.520000e+02 1.137173e+02
9.530000e+02 1.526289e+00
9.540000e+02 6.172266e-01
9.550000e+02 2.471732e+01
9.560000e+02 3.763022e+02
9.570000e+02 7.829109e+00
9.580000e+02 1.937332e-01
9.590000e+02 3.640643e+02
9.600000e+02 3.842545e-01
9.610000e+02 1.011241e+02
9.620000e+02 4.292198e+01
9.630000e+02 2.430920e+01
9.640000e+02 8.591461e-02
9.650000e+02 1.345551e+00
9.660000e+02 2.598941e+01
9.670000e+02 5.382294e+00
9.680000e+02 2.632721e+00
9.690000e+02 9.531479e+01
9.700000e+02 7.479320e+01
9.710000e+02 5.818681e+00
9.720000e+02 7.566162e+00
9.730000e+02 2.637388e+02
9.740000e+02 1.171045e+02
9.750000e+02 4.004931e+01
9.760000e+02 4.186123e+02
9.770000e+02 2.814027e+02
9.780000e+02 1.084772e+02
9.790000e+02 8.712120e+02
9.800000e+02 8.923911e+02
9.810000e+02 1.175630e+02
9.820000e+02 2.253278e+01
9.830000e+02 7.724906e+02
9.840000e+02 4.275803e+01
9.850000e+02 6.608733e+01
9.860000e+02 7.751058e+01
9.870000e+02 8.943882e+02
9.880000e+02 2.338135e+00
9.890000e+02 2.851476e+02
9.900000e+02 7.275313e+00
9.910000e+02 1.270670e+01
9.920000e+02 6.700554e-01
9.930000e+02 1.252537e+03
9.940000e+02 3.437042e-01
9.950000e+02 7.422043e+01
9.960000e+02 6.500854e+00
9.970000e+02 5.053786e+01
9.980000e+02 6.064377e+02
9.990000e+02 2.254479e+01
1.000000e+03 1.741299e+03
1.001000e+03 1.922731e+03
1.002000e+03 1.642340e+03
1.003000e+03 4.082922e+01
1.004000e+03 4.042725e+00
1.005000e+03 9.142041e+01
1.006000e+03 1.553984e+03
1.007000e+03 2.056111e+03
1.008000e+03 1.114721e+03
1.009000e+03 6.329056e+01
1.010000e+03 1.207858e+03
1.011000e+03 1.860915e+03
1.012000e+03 1.271641e+03
1.013000e+03 1.132498e+03
1.014000e+03 1.459229e+00
1.015000e+03 4.431030e+00
1.016000e+03 8.507080e+01
1.017000e+03 1.481201e+00
1.018000e+03 6.127100e+01
1.019000e+03 4.499512e+00
1.020000e+03 2.815584e+03
1.021000e+03 4.447461e+01
1.022000e+03 8.600659e+01
1.023000e+03 7.354492e+00
1.024000e+03 2.671822e+03
1.025000e+03 1.686844e+00
1.026000e+03 3.657012e+01
1.027000e+03 5.217748e+02
1.028000e+03 5.143677e+00
1.029000e+03 2.562012e+00
1.030000e+03 5.308706e+02
1.031000e+03 3.415878e+02
1.032000e+03 2.268719e+03
1.033000e+03 5.184058e+01
1.034000e+03 6.951188e+02
1.035000e+03 3.141357e+00
1.036000e+03 3.909302e+00
1.037000e+03 2.219736e+03
1.038000e+03 5.259325e+03
1.039000e+03 2.604760e+03
1.040000e+03 3.055220e+03
1.041000e+03 6.594668e+03
1.042000e+03 5.171903e+03
1.043000e+03 4.400130e+03
1.044000e+03 7.818281e+03
1.045000e+03 3.581555e+03
1.046000e+03 4.392777e+03
1.047000e+03 9.861099e+02
1.048000e+03 4.094971e+01
1.049000e+03 1.511879e+03
1.050000e+03 7.119258e+02
1.051000e+03 3.813188e+02
1.052000e+03 5.588189e+03
1.053000e+03 8.522144e+03
1.054000e+03 6.341797e+00
1.055000e+03 9.835862e+03
1.056000e+03 9.989674e+03
1.057000e+03 2.248552e+03
1.058000e+03 5.369470e+02
1.059000e+03 1.814307e+02
1.060000e+03 6.112695e+01
1.061000e+03 3.002098e+03
1.062000e+03 2.599922e+02
1.063000e+03 1.447472e+03
1.064000e+03 6.167969e+00
1.065000e+03 1.028027e+01
1.066000e+03 3.894526e+03
1.067000e+03 1.266613e+02
1.068000e+03 1.563776e+04
1.069000e+03 3.558992e+01
1.070000e+03 2.768231e+03
1.071000e+03 1.383025e+04
1.072000e+03 1.427241e+04
1.073000e+03 1.818750e+01
1.074000e+03 2.188729e+03
1.075000e+03 1.384887e+03
1.076000e+03 1.641302e+04
1.077000e+03 9.239307e+01
1.078000e+03 5.271807e+02
1.079000e+03 1.933924e+03
1.080000e+03 3.675013e+03
1.081000e+03 7.847853e+03
1.082000e+03 6.452869e+03
1.083000e+03 4.210258e+03
1.084000e+03 2.454561e+04
1.085000e+03 1.466303e+03
1.086000e+03 2.439301e+04
1.087000e+03 2.907305e+02
1.088000e+03 2.870003e+04
1.089000e+03 2.915126e+04
1.090000e+03 1.131394e+03
1.091000e+03 1.269994e+03
1.092000e+03 2.829461e+04
1.093000e+03 2.928853e+04
1.094000e+03 1.009317e+04
1.095000e+03 3.389423e+04
1.096000e+03 5.482748e+03
1.097000e+03 1.570904e+04
1.098000e+03 3.578952e+04
1.099000e+03 4.417469e+03
1.100000e+03 1.243943e+02
1.101000e+03 3.101331e+02
1.102000e+03 1.909182e+03
1.103000e+03 4.030742e+04
1.104000e+03 4.646293e+04
1.105000e+03 4.058895e+04
1.106000e+03 8.438264e+03
1.107000e+03 1.208594e+02
1.108000e+03 2.559334e+04
1.109000e+03 1.068992e+03
1.110000e+03 4.905454e+04
1.111000e+03 4.214330e+04
1.112000e+03 1.701000e+04
1.113000e+03 4.704188e+04
1.114000e+03 1.141956e+04
1.115000e+03 1.951530e+03
1.116000e+03 1.192028e+03
1.117000e+03 3.601911e+04
1.118000e+03 1.619025e+03
1.119000e+03 2.406266e+04
1.120000e+03 1.185918e+03
1.121000e+03 4.305337e+04
1.122000e+03 2.962164e+03
1.123000e+03 5.260085e+04
1.124000e+03 5.518965e+04
1.125000e+03 3.888345e+04
1.126000e+03 8.015678e+04
1.127000e+03 5.888842e+04
1.128000e+03 4.604184e+04
1.129000e+03 3.402096e+04
1.130000e+03 6.822072e+04
1.131000e+03 7.487944e+04
1.132000e+03 1.842000e+03
1.133000e+03 4.790648e+03
1.134000e+03 3.457064e+04
1.135000e+03 1.004998e+04
1.136000e+03 1.209501e+04
1.137000e+03 7.596082e+04
1.138000e+03 3.286695e+04
1.139000e+03 9.354855e+04
1.140000e+03 3.600839e+04
1.141000e+03 8.743776e+04
1.142000e+03 1.045437e+05
1.143000e+03 6.073238e+04
1.144000e+03 1.078114e+05
1.145000e+03 7.498125e+02
1.146000e+03 1.168765e+05
1.147000e+03 1.064824e+05
1.148000e+03 4.293453e+03
1.149000e+03 9.197288e+04
1.150000e+03 6.454041e+04
1.151000e+03 1.272230e+05
1.152000e+03 1.145434e+05
1.153000e+03 1.107538e+05
1.154000e+03 1.339048e+05
1.155000e+03 8.531457e+04
1.156000e+03 1.397583e+05
1.157000e+03 1.354624e+05
1.158000e+03 6.021148e+04
1.159000e+03 1.354649e+05
1.160000e+03 5.580488e+04
1.161000e+03 1.395708e+05
1.162000e+03 1.460003e+04
1.163000e+03 3.358030e+04
1.164000e+03 5.464219e+02
1.165000e+03 1.375711e+05
1.166000e+03 1.088930e+05
1.167000e+03 1.082547e+05
1.168000e+03 1.734504e+05
1.169000e+03 1.760923e+05
1.170000e+03 1.089773e+05
1.171000e+03 1.545789e+05
1.172000e+03 7.529540e+04
1.173000e+03 1.867592e+05
1.174000e+03 3.923930e+03
1.175000e+03 4.175234e+02
1.176000e+03 2.495039e+02
1.177000e+03 2.100234e+05
1.178000e+03 2.137647e+05
1.179000e+03 2.025279e+05
1.180000e+03 1.181464e+05
1.181000e+03 2.243855e+05
1.182000e+03 2.074170e+05
1.183000e+03 1.516803e+05
1.184000e+03 1.335605e+05
1.185000e+03 1.753680e+05
1.186000e+03 2.017248e+04
1.187000e+03 1.994450e+05
1.188000e+03 9.735488e+04
1.189000e+03 9.584898e+04
1.190000e+03 2.521779e+05
1.191000e+03 1.978518e+05
1.192000e+03 2.470288e+05
1.193000e+03 1.311022e+04
1.194000e+03 1.094479e+05
1.195000e+03 2.455033e+05
1.196000e+03 2.453030e+05
1.197000e+03 3.676086e+05
1.198000e+03 4.801196e+04
1.199000e+03 3.676587e+05
1.200000e+03 8.655754e+04
1.201000e+03 3.558794e+05
1.202000e+03 1.965569e+05
1.203000e+03 3.756600e+05
1.204000e+03 7.172266e+04
1.205000e+03 3.278385e+05
1.206000e+03 3.546339e+05
1.207000e+03 5.887641e+04
1.208000e+03 2.775263e+05
1.209000e+03 2.522730e+05
1.210000e+03 7.658906e+02
1.211000e+03 1.491015e+05
1.212000e+03 7.569883e+04
1.213000e+03 4.949412e+04
1.214000e+03 1.513742e+04
1.215000e+03 1.567959e+03
1.216000e+03 7.915524e+02
1.217000e+03 8.658847e+03
1.218000e+03 3.995059e+04
1.219000e+03 9.016159e+04
1.220000e+03 6.524735e+04
1.221000e+03 2.317555e+05
1.222000e+03 2.661918e+05
1.223000e+03 3.076492e+05
1.224000e+03 4.058538e+05
1.225000e+03 5.329656e+04
1.226000e+03 5.811621e+05
1.227000e+03 6.036744e+05
1.228000e+03 2.103035e+05
1.229000e+03 5.748121e+05
1.230000e+03 4.976185e+05
1.231000e+03 1.632341e+05
1.232000e+03 8.314580e+05
1.233000e+03 8.849762e+05
1.234000e+03 6.758286e+05
1.235000e+03 8.848915e+05
1.236000e+03 2.743355e+05
1.237000e+03 9.820605e+05
1.238000e+03 9.249787e+05
1.239000e+03 8.133936e+05
1.240000e+03 5.399809e+05
1.241000e+03 7.468458e+05
1.242000e+03 9.727897e+05
1.243000e+03 1.132618e+06
1.244000e+03 1.186960e+06
1.245000e+03 1.146144e+06
1.246000e+03 1.053091e+06
1.247000e+03 1.128500e+06
1.248000e+03 1.020095e+06
1.249000e+03 1.333121e+06
1.250000e+03 9.355405e+05
1.251000e+03 1.376342e+06
1.252000e+03 1.249698e+06
1.253000e+03 1.432573e+06
1.254000e+03 1.338143e+06
1.255000e+03 1.470075e+06
1.256000e+03 1.342985e+06
1.257000e+03 1.244843e+06
1.258000e+03 1.045364e+06
1.259000e+03 1.361169e+06
1.260000e+03 1.620593e+06
1.261000e+03 7.484600e+04
1.262000e+03 1.705810e+06
1.263000e+03 1.639024e+06
1.264000e+03 1.285500e+06
1.265000e+03 4.714750e+03
1.266000e+03 1.775483e+06
1.267000e+03 1.450720e+06
