# wavelength_A flux
5.000000e+02 1.723412e+01
5.010000e+02 1.877661e+01
5.020000e+02 2.044965e+01
5.030000e+02 2.226383e+01
5.040000e+02 2.423034e+01
5.050000e+02 2.529180e+01
5.060000e+02 2.750701e+01
5.070000e+02 2.990581e+01
5.080000e+02 3.250253e+01
5.090000e+02 3.532607e+01
5.100000e+02 3.834985e+01
5.110000e+02 4.163690e+01
5.120000e+02 4.519039e+01
5.130000e+02 4.902799e+01
5.140000e+02 5.317313e+01
5.150000e+02 5.765349e+01
5.160000e+02 6.249016e+01
5.170000e+02 6.771228e+01
5.180000e+02 7.334355e+01
5.190000e+02 7.941895e+01
5.200000e+02 8.596976e+01
5.210000e+02 9.303130e+01
5.220000e+02 1.006554e+02
5.230000e+02 1.088380e+02
5.240000e+02 1.176660e+02
5.250000e+02 1.271676e+02
5.260000e+02 1.373956e+02
5.270000e+02 1.484001e+02
5.280000e+02 1.602367e+02
5.290000e+02 1.729742e+02
5.300000e+02 1.866328e+02
5.310000e+02 2.013345e+02
5.320000e+02 2.171279e+02
5.330000e+02 2.340912e+02
5.340000e+02 2.523049e+02
5.350000e+02 2.718552e+02
5.360000e+02 2.928371e+02
5.370000e+02 3.237214e+02
5.380000e+02 3.394836e+02
5.390000e+02 3.653555e+02
5.400000e+02 3.930867e+02
5.410000e+02 4.228274e+02
5.420000e+02 4.546473e+02
5.430000e+02 4.887416e+02
5.440000e+02 5.252120e+02
5.450000e+02 5.642814e+02
5.460000e+02 6.061630e+02
5.470000e+02 6.508196e+02
5.480000e+02 6.986860e+02
5.490000e+02 7.498079e+02
5.500000e+02 8.044805e+02
5.510000e+02 8.629056e+02
5.520000e+02 9.253242e+02
5.530000e+02 9.919927e+02
5.540000e+02 1.063181e+03
5.550000e+02 1.139176e+03
5.560000e+02 1.220281e+03
5.570000e+02 1.306819e+03
5.580000e+02 1.398958e+03
5.590000e+02 1.497390e+03
5.600000e+02 1.602323e+03
5.610000e+02 1.714181e+03
5.620000e+02 1.833375e+03
5.630000e+02 1.960365e+03
5.640000e+02 2.095622e+03
5.650000e+02 2.239649e+03
5.660000e+02 2.392975e+03
5.670000e+02 2.556166e+03
5.680000e+02 2.729811e+03
5.690000e+02 2.914536e+03
5.700000e+02 3.111011e+03
5.710000e+02 3.319785e+03
5.720000e+02 3.541854e+03
5.730000e+02 3.777863e+03
5.740000e+02 4.028640e+03
5.750000e+02 4.294884e+03
5.760000e+02 4.578879e+03
5.770000e+02 4.878226e+03
5.780000e+02 5.197174e+03
5.790000e+02 5.535649e+03
5.800000e+02 5.894811e+03
5.810000e+02 6.275834e+03
5.820000e+02 6.679982e+03
5.830000e+02 7.108750e+03
5.840000e+02 7.567300e+03
5.850000e+02 8.045500e+03
5.860000e+02 8.554678e+03
5.870000e+02 9.095180e+03
5.880000e+02 9.667612e+03
5.890000e+02 1.027409e+04
5.900000e+02 1.091593e+04
5.910000e+02 1.159546e+04
5.920000e+02 1.231463e+04
5.930000e+02 1.307558e+04
5.940000e+02 1.388057e+04
5.950000e+02 1.473322e+04
5.960000e+02 1.563222e+04
5.970000e+02 1.658400e+04
5.980000e+02 1.758862e+04
5.990000e+02 1.865165e+04
6.000000e+02 1.977482e+04
6.010000e+02 2.096171e+04
6.020000e+02 2.221431e+04
6.030000e+02 2.353739e+04
6.040000e+02 2.493422e+04
6.050000e+02 2.640848e+04
6.060000e+02 2.796450e+04
6.070000e+02 2.960581e+04
6.080000e+02 3.133739e+04
6.090000e+02 3.316364e+04
6.100000e+02 3.508936e+04
6.110000e+02 3.711954e+04
6.120000e+02 3.925948e+04
6.130000e+02 4.151466e+04
6.140000e+02 4.389104e+04
6.150000e+02 4.639406e+04
6.160000e+02 4.903060e+04
6.170000e+02 5.180702e+04
6.180000e+02 5.473023e+04
6.190000e+02 5.780743e+04
6.200000e+02 6.104607e+04
6.210000e+02 6.445406e+04
6.220000e+02 6.803959e+04
6.230000e+02 7.181123e+04
6.240000e+02 7.577787e+04
6.250000e+02 7.994888e+04
6.260000e+02 8.433402e+04
6.270000e+02 8.894349e+04
6.280000e+02 9.378780e+04
6.290000e+02 9.887883e+04
6.300000e+02 1.042267e+05
6.310000e+02 1.098439e+05
6.320000e+02 1.157438e+05
6.330000e+02 1.219317e+05
6.340000e+02 1.284351e+05
6.350000e+02 1.352618e+05
6.360000e+02 1.430894e+05
6.370000e+02 1.499466e+05
6.380000e+02 1.578343e+05
6.390000e+02 1.661082e+05
6.400000e+02 1.747857e+05
6.410000e+02 1.838854e+05
6.420000e+02 1.934262e+05
6.430000e+02 2.034268e+05
6.440000e+02 2.139091e+05
6.450000e+02 2.248953e+05
6.460000e+02 2.364032e+05
6.470000e+02 2.484648e+05
6.480000e+02 2.610905e+05
6.490000e+02 2.743159e+05
6.500000e+02 2.881647e+05
6.510000e+02 3.026635e+05
6.520000e+02 3.178404e+05
6.530000e+02 3.337246e+05
6.540000e+02 3.503464e+05
6.550000e+02 3.677374e+05
6.560000e+02 3.859303e+05
6.570000e+02 4.049711e+05
6.580000e+02 4.248597e+05
6.590000e+02 4.456681e+05
6.600000e+02 4.674236e+05
6.610000e+02 4.901634e+05
6.620000e+02 5.139281e+05
6.630000e+02 5.387669e+05
6.640000e+02 5.647159e+05
6.650000e+02 5.917937e+05
6.660000e+02 6.201081e+05
6.670000e+02 6.496816e+05
6.680000e+02 6.805625e+05
6.690000e+02 7.128049e+05
6.700000e+02 7.464668e+05
6.710000e+02 7.816262e+05
6.720000e+02 8.268039e+05
6.730000e+02 8.565204e+05
6.740000e+02 8.964446e+05
6.750000e+02 9.380855e+05
6.760000e+02 9.815185e+05
6.770000e+02 1.026814e+06
6.780000e+02 1.074046e+06
6.790000e+02 1.123290e+06
6.800000e+02 1.174626e+06
6.810000e+02 1.228132e+06
6.820000e+02 1.283896e+06
6.830000e+02 1.342001e+06
6.840000e+02 1.402541e+06
6.850000e+02 1.465611e+06
6.860000e+02 1.531300e+06
6.870000e+02 1.599763e+06
6.880000e+02 1.670958e+06
6.890000e+02 1.745134e+06
6.900000e+02 1.822398e+06
6.910000e+02 1.902760e+06
6.920000e+02 1.986420e+06
6.930000e+02 2.073479e+06
6.940000e+02 2.164064e+06
6.950000e+02 2.258169e+06
6.960000e+02 2.356198e+06
6.970000e+02 2.458261e+06
6.980000e+02 2.564191e+06
6.990000e+02 2.674450e+06
7.000000e+02 2.789087e+06
7.010000e+02 2.908261e+06
7.020000e+02 3.032135e+06
7.030000e+02 3.160880e+06
7.040000e+02 3.294585e+06
7.050000e+02 3.433598e+06
7.060000e+02 3.578027e+06
7.070000e+02 3.728049e+06
7.080000e+02 3.883879e+06
7.090000e+02 4.045732e+06
7.100000e+02 4.213773e+06
7.110000e+02 4.388264e+06
7.120000e+02 4.569418e+06
7.130000e+02 4.757465e+06
7.140000e+02 4.952688e+06
7.150000e+02 5.155247e+06
7.160000e+02 5.365438e+06
7.170000e+02 5.583576e+06
7.180000e+02 5.810005e+06
7.190000e+02 6.044471e+06
7.200000e+02 6.287895e+06
7.210000e+02 6.540346e+06
7.220000e+02 6.802132e+06
7.230000e+02 7.073111e+06
7.240000e+02 7.354488e+06
7.250000e+02 7.646169e+06
7.260000e+02 7.948479e+06
7.270000e+02 8.261792e+06
7.280000e+02 8.586464e+06
7.290000e+02 8.922871e+06
7.300000e+02 9.283881e+06
7.310000e+02 9.632445e+06
7.320000e+02 1.001088e+07
7.330000e+02 1.039373e+07
7.340000e+02 1.079481e+07
7.350000e+02 1.121066e+07
7.360000e+02 1.164017e+07
7.370000e+02 1.208525e+07
7.380000e+02 1.254603e+07
7.390000e+02 1.302294e+07
7.400000e+02 1.351656e+07
7.410000e+02 1.402721e+07
7.420000e+02 1.455573e+07
7.430000e+02 1.510236e+07
7.440000e+02 1.566792e+07
7.450000e+02 1.625291e+07
7.460000e+02 1.685793e+07
7.470000e+02 1.748383e+07
7.480000e+02 1.813060e+07
7.490000e+02 1.879833e+07
7.500000e+02 1.949009e+07
7.510000e+02 2.020488e+07
7.520000e+02 2.094375e+07
7.530000e+02 2.170739e+07
7.540000e+02 2.249654e+07
7.550000e+02 2.331233e+07
7.560000e+02 2.415472e+07
7.570000e+02 2.502593e+07
7.580000e+02 2.592426e+07
7.590000e+02 2.685327e+07
7.600000e+02 2.781217e+07
7.610000e+02 2.880264e+07
7.620000e+02 2.982540e+07
7.630000e+02 3.088147e+07
7.640000e+02 3.197175e+07
7.650000e+02 3.309724e+07
7.660000e+02 3.425894e+07
7.670000e+02 3.545794e+07
7.680000e+02 3.669589e+07
7.690000e+02 3.797216e+07
7.700000e+02 3.928961e+07
7.710000e+02 4.064888e+07
7.720000e+02 4.205109e+07
7.730000e+02 4.349817e+07
7.740000e+02 4.498712e+07
7.750000e+02 4.652568e+07
7.760000e+02 4.812014e+07
7.770000e+02 4.974830e+07
7.780000e+02 5.143519e+07
7.790000e+02 5.317422e+07
7.800000e+02 5.496692e+07
7.810000e+02 5.681474e+07
7.820000e+02 5.871928e+07
7.830000e+02 6.068236e+07
7.840000e+02 6.270469e+07
7.850000e+02 6.478948e+07
7.860000e+02 6.693688e+07
7.870000e+02 6.914881e+07
7.880000e+02 7.142575e+07
7.890000e+02 7.377302e+07
7.900000e+02 7.619102e+07
7.910000e+02 7.868042e+07
7.920000e+02 8.124422e+07
7.930000e+02 8.388423e+07
7.940000e+02 8.660402e+07
7.950000e+02 8.940218e+07
7.960000e+02 9.228290e+07
7.970000e+02 9.524814e+07
7.980000e+02 9.829348e+07
7.990000e+02 1.014342e+08
8.000000e+02 1.046663e+08
8.010000e+02 1.079925e+08
8.020000e+02 1.114140e+08
8.030000e+02 1.149349e+08
8.040000e+02 1.185563e+08
8.050000e+02 1.222819e+08
8.060000e+02 1.261138e+08
8.070000e+02 1.300549e+08
8.080000e+02 1.341080e+08
8.090000e+02 1.382758e+08
8.100000e+02 1.425614e+08
8.110000e+02 1.469679e+08
8.120000e+02 1.514983e+08
8.130000e+02 1.561541e+08
8.140000e+02 1.609407e+08
8.150000e+02 1.658631e+08
8.160000e+02 1.709170e+08
8.170000e+02 1.761153e+08
8.180000e+02 1.814550e+08
8.190000e+02 1.869416e+08
8.200000e+02 1.925788e+08
8.210000e+02 1.983563e+08
8.220000e+02 2.043051e+08
8.230000e+02 2.104170e+08
8.240000e+02 2.166921e+08
8.250000e+02 2.231381e+08
8.260000e+02 2.297580e+08
8.270000e+02 2.365557e+08
8.280000e+02 2.435357e+08
8.290000e+02 2.507024e+08
8.300000e+02 2.580599e+08
8.310000e+02 2.656131e+08
8.320000e+02 2.733665e+08
8.330000e+02 2.813257e+08
8.340000e+02 2.894932e+08
8.350000e+02 2.979242e+08
8.360000e+02 3.064844e+08
8.370000e+02 3.153046e+08
8.380000e+02 3.243635e+08
8.390000e+02 3.336540e+08
8.400000e+02 3.431870e+08
8.410000e+02 3.529677e+08
8.420000e+02 3.630316e+08
8.430000e+02 3.732602e+08
8.440000e+02 3.838184e+08
8.450000e+02 3.946396e+08
8.460000e+02 4.057380e+08
8.470000e+02 4.171206e+08
8.480000e+02 4.287899e+08
8.490000e+02 4.407500e+08
8.500000e+02 4.530132e+08
8.510000e+02 4.655848e+08
8.520000e+02 4.784744e+08
8.530000e+02 4.916842e+08
8.540000e+02 5.052140e+08
8.550000e+02 5.190872e+08
8.560000e+02 5.333040e+08
8.570000e+02 5.478721e+08
8.580000e+02 5.627999e+08
8.590000e+02 5.780764e+08
8.600000e+02 5.937441e+08
8.610000e+02 6.097944e+08
8.620000e+02 6.262360e+08
8.630000e+02 6.430556e+08
8.640000e+02 6.603019e+08
8.650000e+02 6.779685e+08
8.660000e+02 6.960571e+08
8.670000e+02 7.145820e+08
8.680000e+02 7.335509e+08
8.690000e+02 7.529731e+08
8.700000e+02 7.728684e+08
8.710000e+02 7.932155e+08
8.720000e+02 8.140553e+08
8.730000e+02 8.353879e+08
8.740000e+02 8.572230e+08
8.750000e+02 8.795714e+08
8.760000e+02 9.024552e+08
8.770000e+02 9.258640e+08
8.780000e+02 9.498147e+08
8.790000e+02 9.743238e+08
8.800000e+02 9.994029e+08
8.810000e+02 1.025059e+09
8.820000e+02 1.051310e+09
8.830000e+02 1.078161e+09
8.840000e+02 1.105630e+09
8.850000e+02 1.133727e+09
8.860000e+02 1.162478e+09
8.870000e+02 1.191857e+09
8.880000e+02 1.221915e+09
8.890000e+02 1.252653e+09
8.900000e+02 1.284086e+09
8.910000e+02 1.316225e+09
8.920000e+02 1.359712e+09
8.930000e+02 1.382684e+09
8.940000e+02 1.417033e+09
8.950000e+02 1.452160e+09
8.960000e+02 1.488031e+09
8.970000e+02 1.524716e+09
8.980000e+02 1.562211e+09
8.990000e+02 1.600532e+09
9.000000e+02 1.639695e+09
9.010000e+02 1.679716e+09
9.020000e+02 1.720611e+09
9.030000e+02 1.762421e+09
9.040000e+02 1.805277e+09
9.050000e+02 1.848740e+09
9.060000e+02 1.893334e+09
9.070000e+02 1.939008e+09
9.080000e+02 1.985362e+09
9.090000e+02 2.032861e+09
9.100000e+02 2.081378e+09
9.110000e+02 2.130921e+09
9.120000e+02 2.181481e+09
9.130000e+02 2.261648e+09
9.140000e+02 2.279156e+09
9.150000e+02 2.771660e+09
9.160000e+02 4.155664e+09
9.170000e+02 4.533464e+09
9.180000e+02 3.882940e+09
9.190000e+02 7.771572e+09
9.200000e+02 1.268648e+10
9.210000e+02 2.946208e+09
9.220000e+02 1.841335e+10
9.230000e+02 4.686867e+09
9.240000e+02 1.674284e+10
9.250000e+02 2.445007e+10
9.260000e+02 6.489319e+09
9.270000e+02 1.952111e+10
9.280000e+02 3.341488e+10
9.290000e+02 2.833675e+10
9.300000e+02 2.000421e+10
9.310000e+02 7.773149e+09
9.320000e+02 3.146329e+10
9.330000e+02 4.274508e+10
9.340000e+02 4.690955e+10
9.350000e+02 2.057826e+10
9.360000e+02 4.149202e+10
9.370000e+02 1.252673e+10
9.380000e+02 7.316575e+09
9.390000e+02 3.472015e+10
9.400000e+02 4.918911e+10
9.410000e+02 3.780075e+10
9.420000e+02 5.873220e+10
9.430000e+02 6.098378e+10
9.440000e+02 3.264223e+10
9.450000e+02 6.276873e+10
9.460000e+02 6.199468e+10
9.470000e+02 4.572158e+10
9.480000e+02 4.935814e+10
9.490000e+02 2.783501e+10
9.500000e+02 1.011439e+10
9.510000e+02 4.200267e+10
9.520000e+02 6.096973e+10
9.530000e+02 6.840317e+10
9.540000e+02 5.934954e+10
9.550000e+02 7.579024e+10
9.560000e+02 7.420186e+10
9.570000e+02 6.657400e+10
9.580000e+02 8.069602e+10
9.590000e+02 8.296243e+10
9.600000e+02 2.124136e+10
9.610000e+02 8.596796e+10
9.620000e+02 8.560636e+10
9.630000e+02 8.865645e+10
9.640000e+02 6.838075e+09
9.650000e+02 8.180196e+10
9.660000e+02 9.191091e+10
9.670000e+02 9.198894e+10
9.680000e+02 9.040929e+10
9.690000e+02 8.979150e+10
9.700000e+02 8.429949e+10
9.710000e+02 6.833811e+10
9.720000e+02 3.007208e+10
9.730000e+02 2.698045e+10
9.740000e+02 6.960801e+10
9.750000e+02 9.047709e+10
9.760000e+02 1.005117e+11
9.770000e+02 1.058673e+11
9.780000e+02 1.094715e+11
9.790000e+02 1.125003e+11
9.800000e+02 1.149733e+11
9.810000e+02 1.171655e+11
9.820000e+02 1.168127e+11
9.830000e+02 1.212008e+11
9.840000e+02 4.039958e+10
9.850000e+02 1.252617e+11
9.860000e+02 1.271953e+11
9.870000e+02 1.286367e+11
9.880000e+02 1.271430e+11
9.890000e+02 7.462593e+10
9.900000e+02 1.323344e+10
9.910000e+02 1.357214e+11
9.920000e+02 1.259834e+11
9.930000e+02 1.328107e+11
9.940000e+02 2.169974e+10
9.950000e+02 2.787729e+10
9.960000e+02 2.241528e+10
9.970000e+02 2.984409e+10
9.980000e+02 1.515383e+11
9.990000e+02 1.491307e+11
1.000000e+03 1.563423e+11
1.001000e+03 1.587741e+11
1.002000e+03 1.608032e+11
1.003000e+03 1.216301e+11
1.004000e+03 1.656700e+11
1.005000e+03 1.335551e+11
1.006000e+03 1.703588e+11
1.007000e+03 1.726683e+11
1.008000e+03 1.749186e+11
1.009000e+03 1.609830e+11
1.010000e+03 1.799403e+11
1.011000e+03 1.823938e+11
1.012000e+03 1.845457e+11
1.013000e+03 1.871511e+11
1.014000e+03 1.896315e+11
1.015000e+03 1.857542e+11
1.016000e+03 1.936474e+11
1.017000e+03 1.962167e+11
1.018000e+03 1.978494e+11
1.019000e+03 1.992757e+11
1.020000e+03 1.995276e+11
1.021000e+03 1.585690e+11
1.022000e+03 1.897070e+11
1.023000e+03 1.820989e+11
1.024000e+03 1.486982e+11
1.025000e+03 7.769547e+10
1.026000e+03 3.773626e+10
1.027000e+03 1.277162e+11
1.028000e+03 7.015386e+10
1.029000e+03 2.095942e+11
1.030000e+03 2.166754e+11
1.031000e+03 2.334498e+11
1.032000e+03 2.324988e+11
1.033000e+03 1.479140e+11
1.034000e+03 2.505670e+11
1.035000e+03 5.831560e+10
1.036000e+03 2.529798e+11
1.037000e+03 2.823373e+10
1.038000e+03 2.667653e+11
1.039000e+03 2.637857e+11
1.040000e+03 2.746213e+11
1.041000e+03 2.771388e+11
1.042000e+03 2.472036e+11
1.043000e+03 2.819035e+11
1.044000e+03 2.845119e+11
1.045000e+03 2.931572e+11
1.046000e+03 2.974150e+11
1.047000e+03 3.008220e+11
1.048000e+03 2.915915e+11
1.049000e+03 3.046964e+11
1.050000e+03 3.140876e+11
1.051000e+03 3.182077e+11
1.052000e+03 3.222955e+11
1.053000e+03 3.014677e+11
1.054000e+03 3.302760e+11
1.055000e+03 3.346033e+11
1.056000e+03 3.393474e+11
1.057000e+03 3.427556e+11
1.058000e+03 3.475101e+11
1.059000e+03 3.522916e+11
1.060000e+03 3.569700e+11
1.061000e+03 3.615498e+11
1.062000e+03 3.660667e+11
1.063000e+03 2.099625e+11
1.064000e+03 7.510884e+10
1.065000e+03 3.956618e+11
1.066000e+03 3.775966e+11
1.067000e+03 3.319344e+11
1.068000e+03 4.115938e+11
1.069000e+03 4.165806e+11
1.070000e+03 3.857078e+11
1.071000e+03 4.279919e+11
1.072000e+03 4.329448e+11
1.073000e+03 4.386634e+11
1.074000e+03 4.436715e+11
1.075000e+03 4.478779e+11
1.076000e+03 4.547501e+11
1.077000e+03 4.577501e+11
1.078000e+03 4.649930e+11
1.079000e+03 4.669830e+11
1.080000e+03 4.746182e+11
1.081000e+03 4.832341e+11
1.082000e+03 4.888774e+11
1.083000e+03 4.929629e+11
1.084000e+03 2.648504e+11
1.085000e+03 3.970371e+11
1.086000e+03 5.131007e+11
1.087000e+03 5.181471e+11
1.088000e+03 5.232715e+11
1.089000e+03 5.299648e+11
1.090000e+03 5.342605e+11
1.091000e+03 5.440083e+11
1.092000e+03 5.505552e+11
1.093000e+03 5.565050e+11
1.094000e+03 5.636601e+11
1.095000e+03 5.671177e+11
1.096000e+03 5.761564e+11
1.097000e+03 5.784971e+11
1.098000e+03 5.535510e+11
1.099000e+03 5.938616e+11
1.100000e+03 5.947910e+11
1.101000e+03 5.682207e+11
1.102000e+03 1.003563e+12
1.103000e+03 1.958973e+12
1.104000e+03 1.125817e+12
1.105000e+03 5.944792e+11
1.106000e+03 3.078724e+12
1.107000e+03 3.023138e+12
1.108000e+03 3.145375e+12
1.109000e+03 1.849571e+12
1.110000e+03 6.211358e+11
1.111000e+03 1.085023e+12
1.112000e+03 2.923795e+12
1.113000e+03 3.299025e+12
1.114000e+03 4.619284e+11
1.115000e+03 3.274641e+12
1.116000e+03 3.359180e+12
1.117000e+03 5.172392e+11
1.118000e+03 2.901016e+12
1.119000e+03 3.431760e+12
1.120000e+03 3.487096e+12
1.121000e+03 2.547198e+12
1.122000e+03 1.173634e+11
1.123000e+03 8.356558e+11
1.124000e+03 3.570267e+12
1.125000e+03 1.510285e+12
1.126000e+03 3.662095e+12
1.127000e+03 3.588972e+12
1.128000e+03 1.988847e+12
1.129000e+03 3.687916e+12
1.130000e+03 2.486851e+12
1.131000e+03 3.868839e+12
1.132000e+03 3.128681e+11
1.133000e+03 3.589829e+12
1.134000e+03 3.912788e+12
1.135000e+03 1.647918e+11
1.136000e+03 3.839695e+12
1.137000e+03 4.098816e+12
1.138000e+03 4.158279e+12
1.139000e+03 4.079556e+12
1.140000e+03 2.229946e+11
1.141000e+03 4.268327e+12
1.142000e+03 3.627095e+12
1.143000e+03 4.315409e+12
1.144000e+03 4.370454e+12
1.145000e+03 3.886447e+12
1.146000e+03 4.398113e+12
1.147000e+03 4.446320e+12
1.148000e+03 4.496830e+12
1.149000e+03 4.569122e+12
1.150000e+03 4.276472e+12
1.151000e+03 4.624893e+12
1.152000e+03 4.555947e+12
1.153000e+03 1.342398e+12
1.154000e+03 4.197788e+11
1.155000e+03 3.956563e+12
1.156000e+03 1.954908e+12
1.157000e+03 4.870755e+12
1.158000e+03 2.881396e+11
1.159000e+03 4.282442e+12
1.160000e+03 4.754521e+12
1.161000e+03 5.062978e+12
1.162000e+03 9.300638e+11
1.163000e+03 4.633512e+12
1.164000e+03 5.043741e+11
1.165000e+03 5.225679e+12
1.166000e+03 5.092924e+12
1.167000e+03 4.491252e+12
1.168000e+03 5.348247e+12
1.169000e+03 5.209666e+12
1.170000e+03 5.449885e+12
1.171000e+03 5.491229e+12
1.172000e+03 4.913525e+12
1.173000e+03 5.527756e+12
1.174000e+03 5.299955e+12
1.175000e+03 5.120134e+11
1.176000e+03 3.636650e+11
1.177000e+03 5.496895e+12
1.178000e+03 4.781983e+12
1.179000e+03 5.754193e+12
1.180000e+03 4.319654e+12
1.181000e+03 5.643933e+12
1.182000e+03 5.899167e+12
1.183000e+03 5.918719e+12
1.184000e+03 5.957905e+12
1.185000e+03 5.401898e+12
1.186000e+03 5.994306e+12
1.187000e+03 6.019329e+12
1.188000e+03 5.350433e+12
1.189000e+03 3.820859e+11
1.190000e+03 1.694532e+12
1.191000e+03 5.867325e+12
1.192000e+03 5.950239e+12
1.193000e+03 2.933260e+11
1.194000e+03 4.370145e+11
1.195000e+03 3.039366e+12
1.196000e+03 5.859586e+12
1.197000e+03 6.005781e+12
1.198000e+03 6.094136e+12
1.199000e+03 5.984309e+12
1.200000e+03 5.600506e+12
1.201000e+03 5.681152e+12
1.202000e+03 5.580258e+12
1.203000e+03 5.563210e+12
1.204000e+03 5.191627e+12
1.205000e+03 4.979066e+12
1.206000e+03 3.504375e+12
1.207000e+03 2.823054e+12
1.208000e+03 3.803237e+12
1.209000e+03 2.996955e+12
1.210000e+03 5.974298e+11
1.211000e+03 2.197098e+12
1.212000e+03 1.619914e+12
1.213000e+03 1.111094e+12
1.214000e+03 6.926409e+11
1.215000e+03 4.316459e+11
1.216000e+03 3.863452e+11
1.217000e+03 6.020680e+11
1.218000e+03 1.003850e+12
1.219000e+03 1.554045e+12
1.220000e+03 2.192458e+12
1.221000e+03 2.865329e+12
1.222000e+03 3.543672e+12
1.223000e+03 4.201084e+12
1.224000e+03 4.823886e+12
1.225000e+03 5.395364e+12
1.226000e+03 5.859641e+12
1.227000e+03 6.422431e+12
1.228000e+03 6.967520e+12
1.229000e+03 7.308640e+12
1.230000e+03 7.764457e+12
1.231000e+03 8.215735e+12
1.232000e+03 8.596284e+12
1.233000e+03 8.944903e+12
1.234000e+03 7.268449e+12
1.235000e+03 9.504287e+12
1.236000e+03 9.869987e+12
1.237000e+03 1.009576e+13
1.238000e+03 1.039995e+13
1.239000e+03 1.066497e+13
1.240000e+03 1.021712e+13
1.241000e+03 1.470543e+13
1.242000e+03 1.013886e+13
1.243000e+03 1.283300e+13
1.244000e+03 7.118206e+12
1.245000e+03 9.547408e+12
1.246000e+03 1.832298e+13
1.247000e+03 1.959996e+13
1.248000e+03 7.600271e+12
1.249000e+03 8.810152e+12
1.250000e+03 2.176093e+13
1.251000e+03 2.189150e+13
1.252000e+03 2.135502e+13
1.253000e+03 2.415776e+13
1.254000e+03 2.470480e+13
1.255000e+03 2.459895e+13
1.256000e+03 2.463902e+13
1.257000e+03 2.686027e+13
1.258000e+03 2.708129e+13
1.259000e+03 2.661426e+13
1.260000e+03 2.431287e+13
1.261000e+03 7.111762e+11
1.262000e+03 5.118601e+12
1.263000e+03 3.032865e+13
1.264000e+03 2.847497e+13
1.265000e+03 6.665997e+11
1.266000e+03 3.229048e+13
1.267000e+03 3.427008e+13
