# wavelength_A flux
5.000000e+02 1.418299e-14
5.010000e+02 1.655775e-14
5.020000e+02 1.931784e-14
5.030000e+02 2.252380e-14
5.040000e+02 2.624533e-14
5.050000e+02 3.149319e-14
5.060000e+02 3.664376e-14
5.070000e+02 4.261047e-14
5.080000e+02 4.951846e-14
5.090000e+02 5.751234e-14
5.100000e+02 6.675507e-14
5.110000e+02 7.743718e-14
5.120000e+02 8.977474e-14
5.130000e+02 1.040162e-13
5.140000e+02 1.204458e-13
5.150000e+02 1.393868e-13
5.160000e+02 1.612169e-13
5.170000e+02 1.863464e-13
5.180000e+02 2.152894e-13
5.190000e+02 2.485734e-13
5.200000e+02 2.868397e-13
5.210000e+02 3.308086e-13
5.220000e+02 3.812523e-13
5.230000e+02 4.392585e-13
5.240000e+02 5.057452e-13
5.250000e+02 5.819739e-13
5.260000e+02 6.693206e-13
5.270000e+02 7.693558e-13
5.280000e+02 8.838616e-13
5.290000e+02 1.014557e-12
5.300000e+02 1.164648e-12
5.310000e+02 1.335830e-12
5.320000e+02 1.531365e-12
5.330000e+02 1.754586e-12
5.340000e+02 2.009289e-12
5.350000e+02 2.299760e-12
5.360000e+02 2.630836e-12
5.370000e+02 2.962453e-12
5.380000e+02 3.437531e-12
5.390000e+02 3.926374e-12
5.400000e+02 4.482594e-12
5.410000e+02 5.114451e-12
5.420000e+02 5.833375e-12
5.430000e+02 6.649592e-12
5.440000e+02 7.576181e-12
5.450000e+02 8.627623e-12
5.460000e+02 9.818154e-12
5.470000e+02 1.117207e-11
5.480000e+02 1.270390e-11
5.490000e+02 1.443885e-11
5.500000e+02 1.640279e-11
5.510000e+02 1.862501e-11
5.520000e+02 2.113821e-11
5.530000e+02 2.397920e-11
5.540000e+02 2.718925e-11
5.550000e+02 3.081460e-11
5.560000e+02 3.490712e-11
5.570000e+02 3.952488e-11
5.580000e+02 4.473294e-11
5.590000e+02 5.060409e-11
5.600000e+02 5.721978e-11
5.610000e+02 6.467110e-11
5.620000e+02 7.305987e-11
5.630000e+02 8.249983e-11
5.640000e+02 9.311805e-11
5.650000e+02 1.050561e-10
5.660000e+02 1.184731e-10
5.670000e+02 1.335445e-10
5.680000e+02 1.504680e-10
5.690000e+02 1.694624e-10
5.700000e+02 1.907721e-10
5.710000e+02 2.146700e-10
5.720000e+02 2.414581e-10
5.730000e+02 2.714739e-10
5.740000e+02 3.050921e-10
5.750000e+02 3.427360e-10
5.760000e+02 3.847931e-10
5.770000e+02 4.319735e-10
5.780000e+02 4.846588e-10
5.790000e+02 5.435460e-10
5.800000e+02 6.093389e-10
5.810000e+02 6.828170e-10
5.820000e+02 7.648442e-10
5.830000e+02 8.563705e-10
5.840000e+02 9.581537e-10
5.850000e+02 1.072265e-09
5.860000e+02 1.199255e-09
5.870000e+02 1.340664e-09
5.880000e+02 1.498152e-09
5.890000e+02 1.673449e-09
5.900000e+02 1.868606e-09
5.910000e+02 2.085667e-09
5.920000e+02 2.327063e-09
5.930000e+02 2.595396e-09
5.940000e+02 2.893569e-09
5.950000e+02 3.224726e-09
5.960000e+02 3.592543e-09
5.970000e+02 4.000751e-09
5.980000e+02 4.453681e-09
5.990000e+02 4.956049e-09
6.000000e+02 5.513048e-09
6.010000e+02 6.128971e-09
6.020000e+02 6.814384e-09
6.030000e+02 7.571921e-09
6.040000e+02 8.410657e-09
6.050000e+02 9.338922e-09
6.060000e+02 1.036591e-08
6.070000e+02 1.150177e-08
6.080000e+02 1.275755e-08
6.090000e+02 1.414544e-08
6.100000e+02 1.567879e-08
6.110000e+02 1.737236e-08
6.120000e+02 1.924212e-08
6.130000e+02 2.130577e-08
6.140000e+02 2.358260e-08
6.150000e+02 2.609383e-08
6.160000e+02 2.886262e-08
6.170000e+02 3.191439e-08
6.180000e+02 3.527692e-08
6.190000e+02 3.898064e-08
6.200000e+02 4.305884e-08
6.210000e+02 4.754789e-08
6.220000e+02 5.248756e-08
6.230000e+02 5.792134e-08
6.240000e+02 6.389671e-08
6.250000e+02 7.046555e-08
6.260000e+02 7.768447e-08
6.270000e+02 8.561527e-08
6.280000e+02 9.432544e-08
6.290000e+02 1.038885e-07
6.300000e+02 1.143847e-07
6.310000e+02 1.258916e-07
6.320000e+02 1.385342e-07
6.330000e+02 1.523857e-07
6.340000e+02 1.675718e-07
6.350000e+02 1.842126e-07
6.360000e+02 2.023286e-07
6.370000e+02 2.224110e-07
6.380000e+02 2.442725e-07
6.390000e+02 2.682009e-07
6.400000e+02 2.943841e-07
6.410000e+02 3.230258e-07
6.420000e+02 3.543477e-07
6.430000e+02 3.885905e-07
6.440000e+02 4.260154e-07
6.450000e+02 4.669063e-07
6.460000e+02 5.115714e-07
6.470000e+02 5.603445e-07
6.480000e+02 6.135886e-07
6.490000e+02 6.716963e-07
6.500000e+02 7.350939e-07
6.510000e+02 8.042439e-07
6.520000e+02 8.796468e-07
6.530000e+02 9.618442e-07
6.540000e+02 1.051424e-06
6.550000e+02 1.149021e-06
6.560000e+02 1.255324e-06
6.570000e+02 1.371048e-06
6.580000e+02 1.497089e-06
6.590000e+02 1.634226e-06
6.600000e+02 1.783425e-06
6.610000e+02 1.945727e-06
6.620000e+02 2.122209e-06
6.630000e+02 2.314067e-06
6.640000e+02 2.522587e-06
6.650000e+02 2.749145e-06
6.660000e+02 2.995263e-06
6.670000e+02 3.262531e-06
6.680000e+02 3.552703e-06
6.690000e+02 3.867656e-06
6.700000e+02 4.209419e-06
6.710000e+02 4.580178e-06
6.720000e+02 4.982289e-06
6.730000e+02 5.418293e-06
6.740000e+02 5.890923e-06
6.750000e+02 6.403128e-06
6.760000e+02 6.958080e-06
6.770000e+02 7.559195e-06
6.780000e+02 8.210150e-06
6.790000e+02 8.914902e-06
6.800000e+02 9.677706e-06
6.810000e+02 1.050314e-05
6.820000e+02 1.139613e-05
6.830000e+02 1.236196e-05
6.840000e+02 1.340632e-05
6.850000e+02 1.453525e-05
6.860000e+02 1.575553e-05
6.870000e+02 1.707395e-05
6.880000e+02 1.849829e-05
6.890000e+02 2.003654e-05
6.900000e+02 2.169746e-05
6.910000e+02 2.349042e-05
6.920000e+02 2.542546e-05
6.930000e+02 2.751334e-05
6.940000e+02 2.976560e-05
6.950000e+02 3.219464e-05
6.960000e+02 3.481371e-05
6.970000e+02 3.763658e-05
6.980000e+02 4.067984e-05
6.990000e+02 4.395844e-05
7.000000e+02 4.749031e-05
7.010000e+02 5.129414e-05
7.020000e+02 5.538996e-05
7.030000e+02 5.979919e-05
7.040000e+02 6.454474e-05
7.050000e+02 6.965115e-05
7.060000e+02 7.514451e-05
7.070000e+02 8.105319e-05
7.080000e+02 8.740684e-05
7.090000e+02 9.423707e-05
7.100000e+02 1.015797e-04
7.110000e+02 1.094697e-04
7.120000e+02 1.179466e-04
7.130000e+02 1.270522e-04
7.140000e+02 1.368310e-04
7.150000e+02 1.473303e-04
7.160000e+02 1.586014e-04
7.170000e+02 1.706974e-04
7.180000e+02 1.836757e-04
7.190000e+02 1.976024e-04
7.200000e+02 2.125377e-04
7.210000e+02 2.285536e-04
7.220000e+02 2.457246e-04
7.230000e+02 2.641304e-04
7.240000e+02 2.838556e-04
7.250000e+02 3.049906e-04
7.260000e+02 3.276306e-04
7.270000e+02 3.518805e-04
7.280000e+02 3.778468e-04
7.290000e+02 4.056464e-04
7.300000e+02 4.354028e-04
7.310000e+02 4.672473e-04
7.320000e+02 5.013198e-04
7.330000e+02 5.377688e-04
7.340000e+02 5.767525e-04
7.350000e+02 6.184390e-04
7.360000e+02 6.630064e-04
7.370000e+02 7.106463e-04
7.380000e+02 7.615588e-04
7.390000e+02 8.159590e-04
7.400000e+02 8.740711e-04
7.410000e+02 9.361472e-04
7.420000e+02 1.002430e-03
7.430000e+02 1.073208e-03
7.440000e+02 1.148758e-03
7.450000e+02 1.229391e-03
7.460000e+02 1.315433e-03
7.470000e+02 1.407231e-03
7.480000e+02 1.505150e-03
7.490000e+02 1.609580e-03
7.500000e+02 1.720933e-03
7.510000e+02 1.839647e-03
7.520000e+02 1.966184e-03
7.530000e+02 2.101037e-03
7.540000e+02 2.244724e-03
7.550000e+02 2.397798e-03
7.560000e+02 2.560842e-03
7.570000e+02 2.734402e-03
7.580000e+02 2.919349e-03
7.590000e+02 3.116150e-03
7.600000e+02 3.325641e-03
7.610000e+02 3.548573e-03
7.620000e+02 3.785772e-03
7.630000e+02 4.038105e-03
7.640000e+02 4.306495e-03
7.650000e+02 4.591909e-03
7.660000e+02 4.895386e-03
7.670000e+02 5.218003e-03
7.680000e+02 5.560886e-03
7.690000e+02 5.925329e-03
7.700000e+02 6.312536e-03
7.710000e+02 6.723884e-03
7.720000e+02 7.160812e-03
7.730000e+02 7.624827e-03
7.740000e+02 8.117528e-03
7.750000e+02 8.640601e-03
7.760000e+02 9.194691e-03
7.770000e+02 9.785085e-03
7.780000e+02 1.041036e-02
7.790000e+02 1.107374e-02
7.800000e+02 1.177743e-02
7.810000e+02 1.252377e-02
7.820000e+02 1.331521e-02
7.830000e+02 1.415433e-02
7.840000e+02 1.504388e-02
7.850000e+02 1.598672e-02
7.860000e+02 1.698587e-02
7.870000e+02 1.804464e-02
7.880000e+02 1.916625e-02
7.890000e+02 2.035430e-02
7.900000e+02 2.161254e-02
7.910000e+02 2.294490e-02
7.920000e+02 2.435554e-02
7.930000e+02 2.584882e-02
7.940000e+02 2.742933e-02
7.950000e+02 2.910192e-02
7.960000e+02 3.087167e-02
7.970000e+02 3.274394e-02
7.980000e+02 3.472438e-02
7.990000e+02 3.681891e-02
8.000000e+02 3.903378e-02
8.010000e+02 4.137545e-02
8.020000e+02 4.385109e-02
8.030000e+02 4.646768e-02
8.040000e+02 4.923294e-02
8.050000e+02 5.215489e-02
8.060000e+02 5.524194e-02
8.070000e+02 5.850295e-02
8.080000e+02 6.194721e-02
8.090000e+02 6.558449e-02
8.100000e+02 6.942504e-02
8.110000e+02 7.347964e-02
8.120000e+02 7.775960e-02
8.130000e+02 8.227682e-02
8.140000e+02 8.704374e-02
8.150000e+02 9.207342e-02
8.160000e+02 9.737968e-02
8.170000e+02 1.029768e-01
8.180000e+02 1.088801e-01
8.190000e+02 1.151052e-01
8.200000e+02 1.216689e-01
8.210000e+02 1.285886e-01
8.220000e+02 1.358826e-01
8.230000e+02 1.435700e-01
8.240000e+02 1.516710e-01
8.250000e+02 1.602067e-01
8.260000e+02 1.691991e-01
8.270000e+02 1.786715e-01
8.280000e+02 1.886479e-01
8.290000e+02 1.991539e-01
8.300000e+02 2.102162e-01
8.310000e+02 2.218624e-01
8.320000e+02 2.341219e-01
8.330000e+02 2.470252e-01
8.340000e+02 2.606044e-01
8.350000e+02 2.748764e-01
8.360000e+02 2.899247e-01
8.370000e+02 3.057396e-01
8.380000e+02 3.223687e-01
8.390000e+02 3.398662e-01
8.400000e+02 3.582610e-01
8.410000e+02 3.776016e-01
8.420000e+02 3.979290e-01
8.430000e+02 4.193058e-01
8.440000e+02 4.417679e-01
8.450000e+02 4.653727e-01
8.460000e+02 4.901752e-01
8.470000e+02 5.162327e-01
8.480000e+02 5.436054e-01
8.490000e+02 5.723560e-01
8.500000e+02 6.025502e-01
8.510000e+02 6.342564e-01
8.520000e+02 6.675451e-01
8.530000e+02 7.024941e-01
8.540000e+02 7.391809e-01
8.550000e+02 7.776834e-01
8.560000e+02 8.180891e-01
8.570000e+02 8.604867e-01
8.580000e+02 9.049690e-01
8.590000e+02 9.516330e-01
8.600000e+02 1.000580e+00
8.610000e+02 1.051914e+00
8.620000e+02 1.105747e+00
8.630000e+02 1.162192e+00
8.640000e+02 1.221372e+00
8.650000e+02 1.283406e+00
8.660000e+02 1.348433e+00
8.670000e+02 1.416582e+00
8.680000e+02 1.487996e+00
8.690000e+02 1.562823e+00
8.700000e+02 1.641218e+00
8.710000e+02 1.723340e+00
8.720000e+02 1.809358e+00
8.730000e+02 1.899444e+00
8.740000e+02 1.993782e+00
8.750000e+02 2.092561e+00
8.760000e+02 2.195976e+00
8.770000e+02 2.304230e+00
8.780000e+02 2.417551e+00
8.790000e+02 2.536147e+00
8.800000e+02 2.660254e+00
8.810000e+02 2.790114e+00
8.820000e+02 2.925979e+00
8.830000e+02 3.068110e+00
8.840000e+02 3.216781e+00
8.850000e+02 3.372274e+00
8.860000e+02 3.534885e+00
8.870000e+02 3.704921e+00
8.880000e+02 3.882702e+00
8.890000e+02 4.068559e+00
8.900000e+02 4.262839e+00
8.910000e+02 4.465902e+00
8.920000e+02 4.674614e+00
8.930000e+02 4.899885e+00
8.940000e+02 5.131599e+00
8.950000e+02 5.373682e+00
8.960000e+02 5.626575e+00
8.970000e+02 5.890729e+00
8.980000e+02 6.166618e+00
8.990000e+02 6.454731e+00
9.000000e+02 6.755580e+00
9.010000e+02 7.069694e+00
9.020000e+02 7.397624e+00
9.030000e+02 7.739939e+00
9.040000e+02 8.097219e+00
9.050000e+02 8.470124e+00
9.060000e+02 8.859279e+00
9.070000e+02 9.265223e+00
9.080000e+02 9.688965e+00
9.090000e+02 1.013092e+01
9.100000e+02 1.059194e+01
9.110000e+02 1.107281e+01
9.120000e+02 1.157446e+01
9.130000e+02 1.202008e+01
9.140000e+02 1.290976e+01
9.150000e+02 9.682977e+01
9.160000e+02 1.436373e+02
9.170000e+02 1.492069e+02
9.180000e+02 1.547131e+02
9.190000e+02 1.610475e+02
9.200000e+02 1.672452e+02
9.210000e+02 1.703807e+01
9.220000e+02 1.801099e+02
9.230000e+02 1.864306e+02
9.240000e+02 1.883477e+02
9.250000e+02 1.991669e+02
9.260000e+02 2.085092e+02
9.270000e+02 2.167368e+02
9.280000e+02 2.251859e+02
9.290000e+02 2.306668e+02
9.300000e+02 2.398173e+02
9.310000e+02 2.498031e+02
9.320000e+02 2.608948e+02
9.330000e+02 2.702104e+02
9.340000e+02 2.803803e+02
9.350000e+02 7.041052e+01
9.360000e+02 2.837563e+02
9.370000e+02 5.726361e+01
9.380000e+02 1.431983e+02
9.390000e+02 3.357259e+02
9.400000e+02 3.486589e+02
9.410000e+02 1.267539e+02
9.420000e+02 3.747277e+02
9.430000e+02 3.876293e+02
9.440000e+02 3.245428e+02
9.450000e+02 4.169342e+02
9.460000e+02 4.320114e+02
9.470000e+02 3.360705e+02
9.480000e+02 3.267549e+02
9.490000e+02 4.770685e+02
9.500000e+02 9.126096e+01
9.510000e+02 5.081520e+02
9.520000e+02 5.344357e+02
9.530000e+02 5.471557e+02
9.540000e+02 4.901345e+02
9.550000e+02 5.941344e+02
9.560000e+02 3.714297e+02
9.570000e+02 4.106513e+02
9.580000e+02 6.480419e+02
9.590000e+02 6.858555e+02
9.600000e+02 1.433645e+02
9.610000e+02 7.329794e+02
9.620000e+02 7.609403e+02
9.630000e+02 7.876469e+02
9.640000e+02 1.071840e+02
9.650000e+02 7.833589e+02
9.660000e+02 8.731235e+02
9.670000e+02 8.958112e+02
9.680000e+02 9.290110e+02
9.690000e+02 9.623150e+02
9.700000e+02 9.985163e+02
9.710000e+02 1.024641e+03
9.720000e+02 9.941667e+02
9.730000e+02 1.007596e+03
9.740000e+02 1.130744e+03
9.750000e+02 1.181686e+03
9.760000e+02 1.224555e+03
9.770000e+02 1.267939e+03
9.780000e+02 1.308436e+03
9.790000e+02 1.356502e+03
9.800000e+02 1.401868e+03
9.810000e+02 1.449786e+03
9.820000e+02 1.495784e+03
9.830000e+02 1.548939e+03
9.840000e+02 7.988994e+02
9.850000e+02 1.654203e+03
9.860000e+02 1.709193e+03
9.870000e+02 1.767217e+03
9.880000e+02 1.810391e+03
9.890000e+02 1.688261e+03
9.900000e+02 3.557800e+02
9.910000e+02 1.996706e+03
9.920000e+02 1.817732e+03
9.930000e+02 2.036462e+03
9.940000e+02 4.000685e+02
9.950000e+02 8.332584e+02
9.960000e+02 2.203872e+03
9.970000e+02 5.479331e+02
9.980000e+02 2.519237e+03
9.990000e+02 2.562540e+03
1.000000e+03 2.690767e+03
1.001000e+03 2.778537e+03
1.002000e+03 2.867784e+03
1.003000e+03 2.894529e+03
1.004000e+03 3.038268e+03
1.005000e+03 3.035837e+03
1.006000e+03 3.254523e+03
1.007000e+03 3.349938e+03
1.008000e+03 3.458794e+03
1.009000e+03 3.547032e+03
1.010000e+03 3.688286e+03
1.011000e+03 3.804741e+03
1.012000e+03 3.924487e+03
1.013000e+03 4.047664e+03
1.014000e+03 4.051462e+03
1.015000e+03 4.245471e+03
1.016000e+03 4.429637e+03
1.017000e+03 4.452734e+03
1.018000e+03 4.706996e+03
1.019000e+03 4.815878e+03
1.020000e+03 4.998179e+03
1.021000e+03 2.526789e+03
1.022000e+03 4.709789e+03
1.023000e+03 5.328558e+03
1.024000e+03 4.700799e+03
1.025000e+03 4.220651e+03
1.026000e+03 2.251187e+03
1.027000e+03 5.228373e+03
1.028000e+03 1.680648e+03
1.029000e+03 6.333486e+03
1.030000e+03 6.634434e+03
1.031000e+03 6.962477e+03
1.032000e+03 7.136959e+03
1.033000e+03 3.201871e+03
1.034000e+03 7.651384e+03
1.035000e+03 1.825322e+03
1.036000e+03 7.146598e+03
1.037000e+03 3.615681e+03
1.038000e+03 8.635730e+03
1.039000e+03 8.838734e+03
1.040000e+03 9.164460e+03
1.041000e+03 9.285879e+03
1.042000e+03 9.709503e+03
1.043000e+03 9.579738e+03
1.044000e+03 1.030812e+04
1.045000e+03 1.060743e+04
1.046000e+03 1.093747e+04
1.047000e+03 1.125643e+04
1.048000e+03 1.153582e+04
1.049000e+03 1.147617e+04
1.050000e+03 1.227999e+04
1.051000e+03 1.263820e+04
1.052000e+03 1.301855e+04
1.053000e+03 1.336913e+04
1.054000e+03 1.332469e+04
1.055000e+03 1.352862e+04
1.056000e+03 1.460409e+04
1.057000e+03 1.502368e+04
1.058000e+03 1.545123e+04
1.059000e+03 1.587529e+04
1.060000e+03 1.629584e+04
1.061000e+03 1.683469e+04
1.062000e+03 1.730388e+04
1.063000e+03 5.687413e+03
1.064000e+03 4.281241e+03
1.065000e+03 1.848497e+04
1.066000e+03 1.269194e+04
1.067000e+03 1.981449e+04
1.068000e+03 2.052475e+04
1.069000e+03 2.047615e+04
1.070000e+03 2.166274e+04
1.071000e+03 2.231938e+04
1.072000e+03 2.294623e+04
1.073000e+03 2.325726e+04
1.074000e+03 2.424428e+04
1.075000e+03 2.491709e+04
1.076000e+03 2.562306e+04
1.077000e+03 2.616670e+04
1.078000e+03 2.704830e+04
1.079000e+03 2.777998e+04
1.080000e+03 2.858207e+04
1.081000e+03 2.937554e+04
1.082000e+03 3.017037e+04
1.083000e+03 3.100347e+04
1.084000e+03 3.186310e+04
1.085000e+03 2.373431e+04
1.086000e+03 3.362176e+04
1.087000e+03 3.445271e+04
1.088000e+03 3.537717e+04
1.089000e+03 3.642584e+04
1.090000e+03 3.737509e+04
1.091000e+03 3.828517e+04
1.092000e+03 3.944010e+04
1.093000e+03 4.047579e+04
1.094000e+03 4.158345e+04
1.095000e+03 4.268763e+04
1.096000e+03 4.379488e+04
1.097000e+03 4.375002e+04
1.098000e+03 4.525027e+04
1.099000e+03 4.739241e+04
1.100000e+03 4.595696e+04
1.101000e+03 4.579701e+04
1.102000e+03 9.879579e+04
1.103000e+03 3.011093e+05
1.104000e+03 1.292100e+05
1.105000e+03 5.102675e+04
1.106000e+03 6.976339e+05
1.107000e+03 5.352581e+05
1.108000e+03 7.083698e+05
1.109000e+03 4.790361e+05
1.110000e+03 2.845806e+05
1.111000e+03 1.186211e+05
1.112000e+03 6.717009e+05
1.113000e+03 8.126920e+05
1.114000e+03 4.447169e+04
1.115000e+03 7.904554e+05
1.116000e+03 8.105197e+05
1.117000e+03 5.132181e+04
1.118000e+03 5.908299e+05
1.119000e+03 9.088436e+05
1.120000e+03 8.822293e+05
1.121000e+03 9.105791e+05
1.122000e+03 2.143369e+04
1.123000e+03 9.810562e+04
1.124000e+03 1.003985e+06
1.125000e+03 6.803585e+05
1.126000e+03 1.048377e+06
1.127000e+03 1.035612e+06
1.128000e+03 5.901881e+05
1.129000e+03 1.084317e+06
1.130000e+03 9.259898e+05
1.131000e+03 1.158996e+06
1.132000e+03 6.318275e+04
1.133000e+03 1.023468e+06
1.134000e+03 1.140896e+06
1.135000e+03 3.754456e+04
1.136000e+03 1.257046e+06
1.137000e+03 1.304409e+06
1.138000e+03 1.325626e+06
1.139000e+03 1.326390e+06
1.140000e+03 4.270238e+04
1.141000e+03 1.412637e+06
1.142000e+03 1.437488e+06
1.143000e+03 1.465995e+06
1.144000e+03 1.498785e+06
1.145000e+03 1.172874e+06
1.146000e+03 1.559033e+06
1.147000e+03 1.568513e+06
1.148000e+03 1.549444e+06
1.149000e+03 1.650051e+06
1.150000e+03 1.674648e+06
1.151000e+03 1.707654e+06
1.152000e+03 1.752004e+06
1.153000e+03 7.792598e+05
1.154000e+03 4.083132e+05
1.155000e+03 1.673555e+06
1.156000e+03 4.123558e+05
1.157000e+03 1.923489e+06
1.158000e+03 6.948963e+04
1.159000e+03 1.647570e+06
1.160000e+03 2.020795e+06
1.161000e+03 2.085686e+06
1.162000e+03 7.808464e+05
1.163000e+03 2.145436e+06
1.164000e+03 9.440412e+04
1.165000e+03 2.254013e+06
1.166000e+03 2.300068e+06
1.167000e+03 2.345444e+06
1.168000e+03 2.410068e+06
1.169000e+03 2.394361e+06
1.170000e+03 2.515483e+06
1.171000e+03 2.572559e+06
1.172000e+03 2.615897e+06
1.173000e+03 2.685601e+06
1.174000e+03 2.590469e+06
1.175000e+03 1.190895e+05
1.176000e+03 1.058580e+05
1.177000e+03 2.920161e+06
1.178000e+03 2.944259e+06
1.179000e+03 3.041705e+06
1.180000e+03 2.631453e+06
1.181000e+03 3.159679e+06
1.182000e+03 3.242323e+06
1.183000e+03 3.301965e+06
1.184000e+03 3.362706e+06
1.185000e+03 3.413170e+06
1.186000e+03 3.440321e+06
1.187000e+03 3.546108e+06
1.188000e+03 3.587580e+06
1.189000e+03 1.454075e+05
1.190000e+03 4.919305e+05
1.191000e+03 3.711920e+06
1.192000e+03 3.760101e+06
1.193000e+03 1.371198e+05
1.194000e+03 1.707192e+05
1.195000e+03 3.395128e+06
1.196000e+03 3.929872e+06
1.197000e+03 6.097334e+06
1.198000e+03 6.068495e+06
1.199000e+03 6.003219e+06
1.200000e+03 5.391667e+06
1.201000e+03 5.672511e+06
1.202000e+03 5.612997e+06
1.203000e+03 7.267639e+06
1.204000e+03 6.538914e+06
1.205000e+03 6.061587e+06
1.206000e+03 5.761094e+06
1.207000e+03 7.579550e+05
1.208000e+03 4.172483e+06
1.209000e+03 3.173386e+06
1.210000e+03 2.537345e+05
1.211000e+03 1.843925e+06
1.212000e+03 1.177612e+06
1.213000e+03 7.506994e+05
1.214000e+03 4.437817e+05
1.215000e+03 2.827495e+05
1.216000e+03 2.563850e+05
1.217000e+03 3.977850e+05
1.218000e+03 6.971608e+05
1.219000e+03 1.210905e+06
1.220000e+03 1.951954e+06
1.221000e+03 2.902067e+06
1.222000e+03 4.020710e+06
1.223000e+03 5.268512e+06
1.224000e+03 6.651917e+06
1.225000e+03 7.990478e+06
1.226000e+03 9.657807e+06
1.227000e+03 1.111139e+07
1.228000e+03 1.284115e+07
1.229000e+03 1.463086e+07
1.230000e+03 1.587437e+07
1.231000e+03 1.779421e+07
1.232000e+03 1.990311e+07
1.233000e+03 2.167447e+07
1.234000e+03 1.287394e+07
1.235000e+03 2.517595e+07
1.236000e+03 2.628540e+07
1.237000e+03 2.862058e+07
1.238000e+03 3.029989e+07
1.239000e+03 3.192211e+07
1.240000e+03 3.024848e+07
1.241000e+03 5.009876e+07
1.242000e+03 3.122759e+07
1.243000e+03 4.461776e+07
1.244000e+03 2.082864e+07
1.245000e+03 3.029085e+07
1.246000e+03 7.729771e+07
1.247000e+03 7.895144e+07
1.248000e+03 2.266569e+07
1.249000e+03 2.845645e+07
1.250000e+03 9.337773e+07
1.251000e+03 9.893144e+07
1.252000e+03 1.023132e+08
1.253000e+03 1.078933e+08
1.254000e+03 1.111019e+08
1.255000e+03 1.137685e+08
1.256000e+03 1.175915e+08
1.257000e+03 1.230422e+08
1.258000e+03 1.225823e+08
1.259000e+03 1.252366e+08
1.260000e+03 9.855726e+07
1.261000e+03 7.065503e+05
1.262000e+03 1.514262e+07
1.263000e+03 1.392674e+08
1.264000e+03 1.248636e+08
1.265000e+03 7.343000e+05
1.266000e+03 1.519181e+08
1.267000e+03 1.600521e+08
