# wavelength_A flux
5.000000e+02 9.928402e-11
5.010000e+02 1.138846e-10
5.020000e+02 1.305585e-10
5.030000e+02 1.495894e-10
5.040000e+02 1.712986e-10
5.050000e+02 2.006442e-10
5.060000e+02 2.294773e-10
5.070000e+02 2.623100e-10
5.080000e+02 2.996771e-10
5.090000e+02 3.421901e-10
5.100000e+02 3.905140e-10
5.110000e+02 4.454252e-10
5.120000e+02 5.077867e-10
5.130000e+02 5.785733e-10
5.140000e+02 6.588813e-10
5.150000e+02 7.499369e-10
5.160000e+02 8.531503e-10
5.170000e+02 9.700231e-10
5.180000e+02 1.102420e-09
5.190000e+02 1.252203e-09
5.200000e+02 1.421614e-09
5.210000e+02 1.613129e-09
5.220000e+02 1.829342e-09
5.230000e+02 2.073919e-09
5.240000e+02 2.349797e-09
5.250000e+02 2.661084e-09
5.260000e+02 3.012109e-09
5.270000e+02 3.407777e-09
5.280000e+02 3.853553e-09
5.290000e+02 4.354585e-09
5.300000e+02 4.920570e-09
5.310000e+02 5.556250e-09
5.320000e+02 6.271102e-09
5.330000e+02 7.074570e-09
5.340000e+02 7.977245e-09
5.350000e+02 8.990900e-09
5.360000e+02 1.012861e-08
5.370000e+02 1.126907e-08
5.380000e+02 1.283650e-08
5.390000e+02 1.444125e-08
5.400000e+02 1.623929e-08
5.410000e+02 1.825158e-08
5.420000e+02 2.050662e-08
5.430000e+02 2.302885e-08
5.440000e+02 2.584966e-08
5.450000e+02 2.900324e-08
5.460000e+02 3.252203e-08
5.470000e+02 3.646369e-08
5.480000e+02 4.085868e-08
5.490000e+02 4.576392e-08
5.500000e+02 5.123598e-08
5.510000e+02 5.733801e-08
5.520000e+02 6.413958e-08
5.530000e+02 7.171779e-08
5.540000e+02 8.015781e-08
5.550000e+02 8.955378e-08
5.560000e+02 1.000098e-07
5.570000e+02 1.116406e-07
5.580000e+02 1.245729e-07
5.590000e+02 1.389468e-07
5.600000e+02 1.549164e-07
5.610000e+02 1.726519e-07
5.620000e+02 1.923408e-07
5.630000e+02 2.141895e-07
5.640000e+02 2.384256e-07
5.650000e+02 2.652990e-07
5.660000e+02 2.950866e-07
5.670000e+02 3.280901e-07
5.680000e+02 3.646435e-07
5.690000e+02 4.051130e-07
5.700000e+02 4.499005e-07
5.710000e+02 4.994502e-07
5.720000e+02 5.542457e-07
5.730000e+02 6.148206e-07
5.740000e+02 6.817596e-07
5.750000e+02 7.557155e-07
5.760000e+02 8.372701e-07
5.770000e+02 9.275034e-07
5.780000e+02 1.026961e-06
5.790000e+02 1.136668e-06
5.800000e+02 1.257635e-06
5.810000e+02 1.390972e-06
5.820000e+02 1.537888e-06
5.830000e+02 1.699697e-06
5.840000e+02 1.877370e-06
5.850000e+02 2.073902e-06
5.860000e+02 2.289838e-06
5.870000e+02 2.527232e-06
5.880000e+02 2.788252e-06
5.890000e+02 3.075109e-06
5.900000e+02 3.390410e-06
5.910000e+02 3.736691e-06
5.920000e+02 4.116941e-06
5.930000e+02 4.534336e-06
5.940000e+02 4.992357e-06
5.950000e+02 5.494654e-06
5.960000e+02 6.045767e-06
5.970000e+02 6.649771e-06
5.980000e+02 7.311692e-06
5.990000e+02 8.036847e-06
6.000000e+02 8.831020e-06
6.010000e+02 9.699479e-06
6.020000e+02 1.065212e-05
6.030000e+02 1.169330e-05
6.040000e+02 1.283215e-05
6.050000e+02 1.407739e-05
6.060000e+02 1.543852e-05
6.070000e+02 1.692595e-05
6.080000e+02 1.855080e-05
6.090000e+02 2.032525e-05
6.100000e+02 2.226245e-05
6.110000e+02 2.437677e-05
6.120000e+02 2.668361e-05
6.130000e+02 2.919976e-05
6.140000e+02 3.194339e-05
6.150000e+02 3.493417e-05
6.160000e+02 3.819339e-05
6.170000e+02 4.174409e-05
6.180000e+02 4.561119e-05
6.190000e+02 4.982164e-05
6.200000e+02 5.440461e-05
6.210000e+02 5.939156e-05
6.220000e+02 6.481657e-05
6.230000e+02 7.071639e-05
6.240000e+02 7.713075e-05
6.250000e+02 8.410252e-05
6.260000e+02 9.167800e-05
6.270000e+02 9.990710e-05
6.280000e+02 1.088438e-04
6.290000e+02 1.185461e-04
6.300000e+02 1.290767e-04
6.310000e+02 1.404983e-04
6.320000e+02 1.528983e-04
6.330000e+02 1.663402e-04
6.340000e+02 1.809142e-04
6.350000e+02 1.967103e-04
6.360000e+02 2.136308e-04
6.370000e+02 2.323694e-04
6.380000e+02 2.524509e-04
6.390000e+02 2.741935e-04
6.400000e+02 2.977283e-04
6.410000e+02 3.231963e-04
6.420000e+02 3.507491e-04
6.430000e+02 3.805497e-04
6.440000e+02 4.127728e-04
6.450000e+02 4.476063e-04
6.460000e+02 4.852524e-04
6.470000e+02 5.259269e-04
6.480000e+02 5.698633e-04
6.490000e+02 6.173102e-04
6.500000e+02 6.685353e-04
6.510000e+02 7.238258e-04
6.520000e+02 7.834891e-04
6.530000e+02 8.478552e-04
6.540000e+02 9.172772e-04
6.550000e+02 9.921341e-04
6.560000e+02 1.072831e-03
6.570000e+02 1.159780e-03
6.580000e+02 1.253514e-03
6.590000e+02 1.354463e-03
6.600000e+02 1.463177e-03
6.610000e+02 1.580240e-03
6.620000e+02 1.706248e-03
6.630000e+02 1.841858e-03
6.640000e+02 1.987766e-03
6.650000e+02 2.144713e-03
6.660000e+02 2.313510e-03
6.670000e+02 2.494991e-03
6.680000e+02 2.690072e-03
6.690000e+02 2.899722e-03
6.700000e+02 3.124977e-03
6.710000e+02 3.366944e-03
6.720000e+02 3.626798e-03
6.730000e+02 3.905812e-03
6.740000e+02 4.205316e-03
6.750000e+02 4.526748e-03
6.760000e+02 4.871636e-03
6.770000e+02 5.241608e-03
6.780000e+02 5.638400e-03
6.790000e+02 6.063864e-03
6.800000e+02 6.519968e-03
6.810000e+02 7.008814e-03
6.820000e+02 7.532636e-03
6.830000e+02 8.093817e-03
6.840000e+02 8.694888e-03
6.850000e+02 9.338520e-03
6.860000e+02 1.002766e-02
6.870000e+02 1.076523e-02
6.880000e+02 1.155468e-02
6.890000e+02 1.239927e-02
6.900000e+02 1.330274e-02
6.910000e+02 1.426900e-02
6.920000e+02 1.530219e-02
6.930000e+02 1.640672e-02
6.940000e+02 1.758726e-02
6.950000e+02 1.884879e-02
6.960000e+02 2.019658e-02
6.970000e+02 2.163598e-02
6.980000e+02 2.317374e-02
6.990000e+02 2.481537e-02
7.000000e+02 2.656783e-02
7.010000e+02 2.843823e-02
7.020000e+02 3.043411e-02
7.030000e+02 3.256347e-02
7.040000e+02 3.483478e-02
7.050000e+02 3.725702e-02
7.060000e+02 3.983970e-02
7.070000e+02 4.259297e-02
7.080000e+02 4.552746e-02
7.090000e+02 4.865432e-02
7.100000e+02 5.198612e-02
7.110000e+02 5.553497e-02
7.120000e+02 5.931453e-02
7.130000e+02 6.333901e-02
7.140000e+02 6.762347e-02
7.150000e+02 7.218383e-02
7.160000e+02 7.703700e-02
7.170000e+02 8.220048e-02
7.180000e+02 8.769290e-02
7.190000e+02 9.353654e-02
7.200000e+02 9.974960e-02
7.210000e+02 1.063554e-01
7.220000e+02 1.133775e-01
7.230000e+02 1.208406e-01
7.240000e+02 1.287712e-01
7.250000e+02 1.371970e-01
7.260000e+02 1.461471e-01
7.270000e+02 1.556527e-01
7.280000e+02 1.657464e-01
7.290000e+02 1.764625e-01
7.300000e+02 1.878376e-01
7.310000e+02 1.999099e-01
7.320000e+02 2.127200e-01
7.330000e+02 2.263105e-01
7.340000e+02 2.407266e-01
7.350000e+02 2.560156e-01
7.360000e+02 2.722275e-01
7.370000e+02 2.894157e-01
7.380000e+02 3.076350e-01
7.390000e+02 3.269444e-01
7.400000e+02 3.474044e-01
7.410000e+02 3.690835e-01
7.420000e+02 3.920453e-01
7.430000e+02 4.163672e-01
7.440000e+02 4.421211e-01
7.450000e+02 4.693882e-01
7.460000e+02 4.982528e-01
7.470000e+02 5.288032e-01
7.480000e+02 5.611327e-01
7.490000e+02 5.953393e-01
7.500000e+02 6.315259e-01
7.510000e+02 6.698011e-01
7.520000e+02 7.102788e-01
7.530000e+02 7.530789e-01
7.540000e+02 7.983273e-01
7.550000e+02 8.461564e-01
7.560000e+02 8.967054e-01
7.570000e+02 9.501000e-01
7.580000e+02 1.006555e+00
7.590000e+02 1.066167e+00
7.600000e+02 1.129136e+00
7.610000e+02 1.195632e+00
7.620000e+02 1.265843e+00
7.630000e+02 1.339964e+00
7.640000e+02 1.418202e+00
7.650000e+02 1.500772e+00
7.660000e+02 1.587903e+00
7.670000e+02 1.679832e+00
7.680000e+02 1.776798e+00
7.690000e+02 1.879091e+00
7.700000e+02 1.986959e+00
7.710000e+02 2.100696e+00
7.720000e+02 2.220606e+00
7.730000e+02 2.347004e+00
7.740000e+02 2.480222e+00
7.750000e+02 2.620607e+00
7.760000e+02 2.768249e+00
7.770000e+02 2.924350e+00
7.780000e+02 3.088490e+00
7.790000e+02 3.261358e+00
7.800000e+02 3.443394e+00
7.810000e+02 3.635057e+00
7.820000e+02 3.836825e+00
7.830000e+02 4.049199e+00
7.840000e+02 4.272711e+00
7.850000e+02 4.507907e+00
7.860000e+02 4.755360e+00
7.870000e+02 5.015695e+00
7.880000e+02 5.289509e+00
7.890000e+02 5.577477e+00
7.900000e+02 5.880286e+00
7.910000e+02 6.198658e+00
7.920000e+02 6.533348e+00
7.930000e+02 6.885142e+00
7.940000e+02 7.254864e+00
7.950000e+02 7.643375e+00
7.960000e+02 8.051575e+00
7.970000e+02 8.480403e+00
7.980000e+02 8.930840e+00
7.990000e+02 9.403913e+00
8.000000e+02 9.900692e+00
8.010000e+02 1.042227e+01
8.020000e+02 1.096989e+01
8.030000e+02 1.154470e+01
8.040000e+02 1.214799e+01
8.050000e+02 1.278109e+01
8.060000e+02 1.344540e+01
8.070000e+02 1.414235e+01
8.080000e+02 1.487345e+01
8.090000e+02 1.564029e+01
8.100000e+02 1.644450e+01
8.110000e+02 1.728779e+01
8.120000e+02 1.817196e+01
8.130000e+02 1.909886e+01
8.140000e+02 2.007044e+01
8.150000e+02 2.108870e+01
8.160000e+02 2.215581e+01
8.170000e+02 2.327391e+01
8.180000e+02 2.444534e+01
8.190000e+02 2.567245e+01
8.200000e+02 2.695774e+01
8.210000e+02 2.830381e+01
8.220000e+02 2.971336e+01
8.230000e+02 3.118919e+01
8.240000e+02 3.273424e+01
8.250000e+02 3.435156e+01
8.260000e+02 3.604432e+01
8.270000e+02 3.781582e+01
8.280000e+02 3.966952e+01
8.290000e+02 4.160896e+01
8.300000e+02 4.363792e+01
8.310000e+02 4.576024e+01
8.320000e+02 4.797997e+01
8.330000e+02 5.030130e+01
8.340000e+02 5.272859e+01
8.350000e+02 5.526227e+01
8.360000e+02 5.791917e+01
8.370000e+02 6.069257e+01
8.380000e+02 6.359041e+01
8.390000e+02 6.661990e+01
8.400000e+02 6.978490e+01
8.410000e+02 7.309169e+01
8.420000e+02 7.654501e+01
8.430000e+02 8.015470e+01
8.440000e+02 8.392356e+01
8.450000e+02 8.785947e+01
8.460000e+02 9.196938e+01
8.470000e+02 9.626050e+01
8.480000e+02 1.007403e+02
8.490000e+02 1.054166e+02
8.500000e+02 1.102975e+02
8.510000e+02 1.153912e+02
8.520000e+02 1.207065e+02
8.530000e+02 1.262527e+02
8.540000e+02 1.320394e+02
8.550000e+02 1.380753e+02
8.560000e+02 1.443711e+02
8.570000e+02 1.509373e+02
8.580000e+02 1.577847e+02
8.590000e+02 1.649247e+02
8.600000e+02 1.723688e+02
8.610000e+02 1.801293e+02
8.620000e+02 1.882188e+02
8.630000e+02 1.966500e+02
8.640000e+02 2.054371e+02
8.650000e+02 2.145931e+02
8.660000e+02 2.241341e+02
8.670000e+02 2.340738e+02
8.680000e+02 2.444282e+02
8.690000e+02 2.552137e+02
8.700000e+02 2.664469e+02
8.710000e+02 2.781452e+02
8.720000e+02 2.903266e+02
8.730000e+02 3.030098e+02
8.740000e+02 3.162142e+02
8.750000e+02 3.299597e+02
8.760000e+02 3.442670e+02
8.770000e+02 3.591570e+02
8.780000e+02 3.746540e+02
8.790000e+02 3.907789e+02
8.800000e+02 4.075561e+02
8.810000e+02 4.250104e+02
8.820000e+02 4.431673e+02
8.830000e+02 4.620533e+02
8.840000e+02 4.816955e+02
8.850000e+02 5.021224e+02
8.860000e+02 5.233631e+02
8.870000e+02 5.454481e+02
8.880000e+02 5.684086e+02
8.890000e+02 5.922770e+02
8.900000e+02 6.170869e+02
8.910000e+02 6.428728e+02
8.920000e+02 6.689619e+02
8.930000e+02 6.975175e+02
8.940000e+02 7.264516e+02
8.950000e+02 7.565123e+02
8.960000e+02 7.877416e+02
8.970000e+02 8.201808e+02
8.980000e+02 8.538738e+02
8.990000e+02 8.888661e+02
9.000000e+02 9.252041e+02
9.010000e+02 9.629363e+02
9.020000e+02 1.002112e+03
9.030000e+02 1.042784e+03
9.040000e+02 1.084997e+03
9.050000e+02 1.128827e+03
9.060000e+02 1.174313e+03
9.070000e+02 1.221500e+03
9.080000e+02 1.270500e+03
9.090000e+02 1.321325e+03
9.100000e+02 1.374057e+03
9.110000e+02 1.428766e+03
9.120000e+02 1.485542e+03
9.130000e+02 1.528183e+03
9.140000e+02 1.632568e+03
9.150000e+02 8.127159e+03
9.160000e+02 1.632712e+04
9.170000e+02 1.691518e+04
9.180000e+02 1.721131e+04
9.190000e+02 1.825606e+04
9.200000e+02 1.889956e+04
9.210000e+02 2.066333e+03
9.220000e+02 2.016001e+04
9.230000e+02 2.038701e+04
9.240000e+02 2.030377e+04
9.250000e+02 2.196253e+04
9.260000e+02 2.272478e+04
9.270000e+02 2.365807e+04
9.280000e+02 2.446454e+04
9.290000e+02 2.520706e+04
9.300000e+02 2.581631e+04
9.310000e+02 2.650373e+04
9.320000e+02 2.778622e+04
9.330000e+02 2.863419e+04
9.340000e+02 2.958867e+04
9.350000e+02 8.024893e+03
9.360000e+02 3.024778e+04
9.370000e+02 6.512595e+03
9.380000e+02 1.772321e+04
9.390000e+02 3.448867e+04
9.400000e+02 3.571169e+04
9.410000e+02 1.490627e+04
9.420000e+02 3.801248e+04
9.430000e+02 3.916190e+04
9.440000e+02 3.071870e+04
9.450000e+02 4.168957e+04
9.460000e+02 4.298212e+04
9.470000e+02 3.568564e+04
9.480000e+02 3.680364e+04
9.490000e+02 4.677173e+04
9.500000e+02 1.004468e+04
9.510000e+02 4.899712e+04
9.520000e+02 5.165590e+04
9.530000e+02 5.241759e+04
9.540000e+02 4.720904e+04
9.550000e+02 5.658876e+04
9.560000e+02 4.417186e+04
9.570000e+02 4.032603e+04
9.580000e+02 6.011011e+04
9.590000e+02 6.411955e+04
9.600000e+02 1.450949e+04
9.610000e+02 6.800486e+04
9.620000e+02 7.011438e+04
9.630000e+02 7.225010e+04
9.640000e+02 1.053482e+04
9.650000e+02 7.101273e+04
9.660000e+02 7.895883e+04
9.670000e+02 8.069650e+04
9.680000e+02 8.279963e+04
9.690000e+02 8.583231e+04
9.700000e+02 8.863800e+04
9.710000e+02 9.035216e+04
9.720000e+02 8.735704e+04
9.730000e+02 8.818448e+04
9.740000e+02 9.865939e+04
9.750000e+02 1.025244e+05
9.760000e+02 1.058618e+05
9.770000e+02 1.090618e+05
9.780000e+02 1.120276e+05
9.790000e+02 1.156529e+05
9.800000e+02 1.189933e+05
9.810000e+02 1.224574e+05
9.820000e+02 1.255163e+05
9.830000e+02 1.297008e+05
9.840000e+02 6.361471e+04
9.850000e+02 1.372161e+05
9.860000e+02 1.411122e+05
9.870000e+02 1.453552e+05
9.880000e+02 1.474812e+05
9.890000e+02 1.313399e+05
9.900000e+02 2.942589e+04
9.910000e+02 1.607634e+05
9.920000e+02 1.461663e+05
9.930000e+02 1.637239e+05
9.940000e+02 3.435519e+04
9.950000e+02 6.274281e+04
9.960000e+02 1.389843e+05
9.970000e+02 4.800008e+04
9.980000e+02 1.973871e+05
9.990000e+02 1.995144e+05
1.000000e+03 2.090775e+05
1.001000e+03 2.149631e+05
1.002000e+03 2.208900e+05
1.003000e+03 2.182638e+05
1.004000e+03 2.312085e+05
1.005000e+03 2.264571e+05
1.006000e+03 2.464275e+05
1.007000e+03 2.528270e+05
1.008000e+03 2.597888e+05
1.009000e+03 2.637961e+05
1.010000e+03 2.745384e+05
1.011000e+03 2.820231e+05
1.012000e+03 2.896452e+05
1.013000e+03 2.974745e+05
1.014000e+03 2.903089e+05
1.015000e+03 3.066532e+05
1.016000e+03 3.208624e+05
1.017000e+03 3.162412e+05
1.018000e+03 3.384169e+05
1.019000e+03 3.431513e+05
1.020000e+03 3.567793e+05
1.021000e+03 2.046284e+05
1.022000e+03 3.395301e+05
1.023000e+03 3.731119e+05
1.024000e+03 3.553355e+05
1.025000e+03 2.914273e+05
1.026000e+03 1.579898e+05
1.027000e+03 3.754322e+05
1.028000e+03 1.255484e+05
1.029000e+03 4.288324e+05
1.030000e+03 4.568869e+05
1.031000e+03 4.747090e+05
1.032000e+03 4.869802e+05
1.033000e+03 2.304465e+05
1.034000e+03 5.157154e+05
1.035000e+03 1.324884e+05
1.036000e+03 4.904722e+05
1.037000e+03 1.437274e+05
1.038000e+03 5.729172e+05
1.039000e+03 5.840786e+05
1.040000e+03 6.030697e+05
1.041000e+03 6.122106e+05
1.042000e+03 6.321640e+05
1.043000e+03 6.276173e+05
1.044000e+03 6.673401e+05
1.045000e+03 6.841459e+05
1.046000e+03 7.027522e+05
1.047000e+03 7.199066e+05
1.048000e+03 7.314230e+05
1.049000e+03 7.363157e+05
1.050000e+03 7.763612e+05
1.051000e+03 7.954617e+05
1.052000e+03 8.168762e+05
1.053000e+03 8.339237e+05
1.054000e+03 8.169533e+05
1.055000e+03 8.684675e+05
1.056000e+03 9.022232e+05
1.057000e+03 9.241594e+05
1.058000e+03 9.466539e+05
1.059000e+03 9.663400e+05
1.060000e+03 9.871111e+05
1.061000e+03 1.019802e+06
1.062000e+03 1.043556e+06
1.063000e+03 4.067171e+05
1.064000e+03 2.773149e+05
1.065000e+03 1.088286e+06
1.066000e+03 8.994658e+05
1.067000e+03 1.164035e+06
1.068000e+03 1.212544e+06
1.069000e+03 1.206353e+06
1.070000e+03 1.267068e+06
1.071000e+03 1.303716e+06
1.072000e+03 1.335244e+06
1.073000e+03 1.333576e+06
1.074000e+03 1.399359e+06
1.075000e+03 1.432332e+06
1.076000e+03 1.468784e+06
1.077000e+03 1.495307e+06
1.078000e+03 1.537701e+06
1.079000e+03 1.573324e+06
1.080000e+03 1.613508e+06
1.081000e+03 1.652474e+06
1.082000e+03 1.690999e+06
1.083000e+03 1.730727e+06
1.084000e+03 1.772363e+06
1.085000e+03 1.384240e+06
1.086000e+03 1.857320e+06
1.087000e+03 1.890638e+06
1.088000e+03 1.940380e+06
1.089000e+03 1.990358e+06
1.090000e+03 2.032441e+06
1.091000e+03 2.078020e+06
1.092000e+03 2.131995e+06
1.093000e+03 2.180064e+06
1.094000e+03 2.231359e+06
1.095000e+03 2.282452e+06
1.096000e+03 2.334275e+06
1.097000e+03 2.363327e+06
1.098000e+03 2.423216e+06
1.099000e+03 2.497461e+06
1.100000e+03 2.486812e+06
1.101000e+03 2.396902e+06
1.102000e+03 5.100442e+06
1.103000e+03 1.546782e+07
1.104000e+03 6.389380e+06
1.105000e+03 2.646478e+06
1.106000e+03 3.333148e+07
1.107000e+03 2.082050e+07
1.108000e+03 3.472294e+07
1.109000e+03 2.330045e+07
1.110000e+03 1.092996e+07
1.111000e+03 5.892808e+06
1.112000e+03 3.294295e+07
1.113000e+03 3.858507e+07
1.114000e+03 2.267558e+06
1.115000e+03 3.587363e+07
1.116000e+03 3.598068e+07
1.117000e+03 2.498928e+06
1.118000e+03 2.861745e+07
1.119000e+03 4.212617e+07
1.120000e+03 3.892170e+07
1.121000e+03 4.071075e+07
1.122000e+03 1.104530e+06
1.123000e+03 5.184882e+06
1.124000e+03 4.601868e+07
1.125000e+03 2.753894e+07
1.126000e+03 4.788294e+07
1.127000e+03 4.715436e+07
1.128000e+03 2.308821e+07
1.129000e+03 4.883787e+07
1.130000e+03 4.509089e+07
1.131000e+03 5.216588e+07
1.132000e+03 3.004188e+06
1.133000e+03 4.355170e+07
1.134000e+03 5.230295e+07
1.135000e+03 1.877852e+06
1.136000e+03 5.424763e+07
1.137000e+03 5.759353e+07
1.138000e+03 5.785787e+07
1.139000e+03 5.828075e+07
1.140000e+03 2.021120e+06
1.141000e+03 6.164915e+07
1.142000e+03 6.222979e+07
1.143000e+03 6.354536e+07
1.144000e+03 6.492758e+07
1.145000e+03 4.631307e+07
1.146000e+03 6.712626e+07
1.147000e+03 6.733448e+07
1.148000e+03 6.312264e+07
1.149000e+03 7.036322e+07
1.150000e+03 7.046570e+07
1.151000e+03 7.247858e+07
1.152000e+03 7.394774e+07
1.153000e+03 2.815648e+07
1.154000e+03 8.250672e+06
1.155000e+03 6.569245e+07
1.156000e+03 2.167463e+07
1.157000e+03 8.016414e+07
1.158000e+03 3.195583e+06
1.159000e+03 7.059637e+07
1.160000e+03 8.228530e+07
1.161000e+03 8.592601e+07
1.162000e+03 2.697773e+07
1.163000e+03 8.633102e+07
1.164000e+03 4.269800e+06
1.165000e+03 9.175824e+07
1.166000e+03 9.299620e+07
1.167000e+03 9.390320e+07
1.168000e+03 9.714974e+07
1.169000e+03 9.658590e+07
1.170000e+03 1.005741e+08
1.171000e+03 1.024929e+08
1.172000e+03 1.025056e+08
1.173000e+03 1.063692e+08
1.174000e+03 9.643170e+07
1.175000e+03 5.155464e+06
1.176000e+03 4.554944e+06
1.177000e+03 1.140470e+08
1.178000e+03 1.128908e+08
1.179000e+03 1.180277e+08
1.180000e+03 9.619240e+07
1.181000e+03 1.215900e+08
1.182000e+03 1.243184e+08
1.183000e+03 1.259716e+08
1.184000e+03 1.277676e+08
1.185000e+03 1.289491e+08
1.186000e+03 1.281922e+08
1.187000e+03 1.336392e+08
1.188000e+03 1.334600e+08
1.189000e+03 5.898104e+06
1.190000e+03 2.225647e+07
1.191000e+03 1.378873e+08
1.192000e+03 1.394793e+08
1.193000e+03 5.642096e+06
1.194000e+03 6.783008e+06
1.195000e+03 1.155392e+08
1.196000e+03 1.437844e+08
1.197000e+03 2.053688e+08
1.198000e+03 2.015983e+08
1.199000e+03 2.020426e+08
1.200000e+03 1.804057e+08
1.201000e+03 1.908475e+08
1.202000e+03 1.874882e+08
1.203000e+03 2.296040e+08
1.204000e+03 2.032715e+08
1.205000e+03 1.942996e+08
1.206000e+03 1.799377e+08
1.207000e+03 3.277499e+07
1.208000e+03 1.362062e+08
1.209000e+03 1.050818e+08
1.210000e+03 9.836256e+06
1.211000e+03 6.302160e+07
1.212000e+03 4.148579e+07
1.213000e+03 2.662438e+07
1.214000e+03 1.602307e+07
1.215000e+03 1.044596e+07
1.216000e+03 9.585980e+06
1.217000e+03 1.435669e+07
1.218000e+03 2.454278e+07
1.219000e+03 4.161475e+07
1.220000e+03 6.536916e+07
1.221000e+03 9.514844e+07
1.222000e+03 1.289622e+08
1.223000e+03 1.659426e+08
1.224000e+03 2.054081e+08
1.225000e+03 2.384335e+08
1.226000e+03 2.873190e+08
1.227000e+03 3.263107e+08
1.228000e+03 3.658228e+08
1.229000e+03 4.131180e+08
1.230000e+03 4.497906e+08
1.231000e+03 4.813995e+08
1.232000e+03 5.406294e+08
1.233000e+03 5.810134e+08
1.234000e+03 3.641067e+08
1.235000e+03 6.575531e+08
1.236000e+03 6.611962e+08
1.237000e+03 7.316572e+08
1.238000e+03 7.637277e+08
1.239000e+03 7.968182e+08
1.240000e+03 7.512458e+08
1.241000e+03 1.305019e+09
1.242000e+03 7.385906e+08
1.243000e+03 1.114010e+09
1.244000e+03 4.719135e+08
1.245000e+03 6.970388e+08
1.246000e+03 2.077719e+09
1.247000e+03 2.119699e+09
1.248000e+03 5.075937e+08
1.249000e+03 6.423717e+08
1.250000e+03 2.514088e+09
1.251000e+03 2.673161e+09
1.252000e+03 2.701932e+09
1.253000e+03 2.895751e+09
1.254000e+03 2.901956e+09
1.255000e+03 3.067702e+09
1.256000e+03 3.061277e+09
1.257000e+03 3.264299e+09
1.258000e+03 3.019723e+09
1.259000e+03 3.202059e+09
1.260000e+03 2.628134e+09
1.261000e+03 2.343721e+07
1.262000e+03 3.203325e+08
1.263000e+03 3.637262e+09
1.264000e+03 3.099335e+09
1.265000e+03 2.419411e+07
1.266000e+03 3.874049e+09
1.267000e+03 3.890250e+09
