# wavelength_A flux
5.000000e+02 7.288469e-35
5.010000e+02 9.343445e-35
5.020000e+02 1.196573e-34
5.030000e+02 1.530862e-34
5.040000e+02 1.956588e-34
5.050000e+02 2.499075e-34
5.060000e+02 3.187707e-34
5.070000e+02 4.062092e-34
5.080000e+02 5.171327e-34
5.090000e+02 6.577065e-34
5.100000e+02 8.354582e-34
5.110000e+02 1.060821e-33
5.120000e+02 1.345318e-33
5.130000e+02 1.704517e-33
5.140000e+02 2.157584e-33
5.150000e+02 2.728527e-33
5.160000e+02 3.447353e-33
5.170000e+02 4.351538e-33
5.180000e+02 5.487834e-33
5.190000e+02 6.914536e-33
5.200000e+02 8.704248e-33
5.210000e+02 1.094732e-32
5.220000e+02 1.375606e-32
5.230000e+02 1.727011e-32
5.240000e+02 2.166259e-32
5.250000e+02 2.714832e-32
5.260000e+02 3.399343e-32
5.270000e+02 4.252739e-32
5.280000e+02 5.315771e-32
5.290000e+02 6.638804e-32
5.300000e+02 8.284028e-32
5.310000e+02 1.032817e-31
5.320000e+02 1.286583e-31
5.330000e+02 1.601351e-31
5.340000e+02 1.991460e-31
5.350000e+02 2.474544e-31
5.360000e+02 3.072270e-31
5.370000e+02 3.810990e-31
5.380000e+02 4.724083e-31
5.390000e+02 5.850803e-31
5.400000e+02 7.240390e-31
5.410000e+02 8.952798e-31
5.420000e+02 1.106135e-30
5.430000e+02 1.365564e-30
5.440000e+02 1.684504e-30
5.450000e+02 2.076301e-30
5.460000e+02 2.557224e-30
5.470000e+02 3.147089e-30
5.480000e+02 3.870020e-30
5.490000e+02 4.755355e-30
5.500000e+02 5.838755e-30
5.510000e+02 7.163527e-30
5.520000e+02 8.782227e-30
5.530000e+02 1.075859e-29
5.540000e+02 1.316985e-29
5.550000e+02 1.610952e-29
5.560000e+02 1.969077e-29
5.570000e+02 2.405043e-29
5.580000e+02 2.935382e-29
5.590000e+02 3.580057e-29
5.600000e+02 4.363152e-29
5.610000e+02 5.313706e-29
5.620000e+02 6.466709e-29
5.630000e+02 7.864285e-29
5.640000e+02 9.557120e-29
5.650000e+02 1.160615e-28
5.660000e+02 1.408461e-28
5.670000e+02 1.708039e-28
5.680000e+02 2.069900e-28
5.690000e+02 2.506692e-28
5.700000e+02 3.033570e-28
5.710000e+02 3.668684e-28
5.720000e+02 4.433750e-28
5.730000e+02 5.354740e-28
5.740000e+02 6.462691e-28
5.750000e+02 7.794670e-28
5.760000e+02 9.394915e-28
5.770000e+02 1.131620e-27
5.780000e+02 1.362141e-27
5.790000e+02 1.638547e-27
5.800000e+02 1.969757e-27
5.810000e+02 2.366381e-27
5.820000e+02 2.841035e-27
5.830000e+02 3.408707e-27
5.840000e+02 4.087195e-27
5.850000e+02 4.897624e-27
5.860000e+02 5.865040e-27
5.870000e+02 7.019133e-27
5.880000e+02 8.395069e-27
5.890000e+02 1.003448e-26
5.900000e+02 1.198662e-26
5.910000e+02 1.430971e-26
5.920000e+02 1.707257e-26
5.930000e+02 2.035646e-26
5.940000e+02 2.425729e-26
5.950000e+02 2.888818e-26
5.960000e+02 3.438249e-26
5.970000e+02 4.089734e-26
5.980000e+02 4.861773e-26
5.990000e+02 5.776137e-26
6.000000e+02 6.858431e-26
6.010000e+02 8.138753e-26
6.020000e+02 9.652459e-26
6.030000e+02 1.144106e-25
6.040000e+02 1.355328e-25
6.050000e+02 1.604624e-25
6.060000e+02 1.898690e-25
6.070000e+02 2.245372e-25
6.080000e+02 2.653854e-25
6.090000e+02 3.134885e-25
6.100000e+02 3.701034e-25
6.110000e+02 4.366994e-25
6.120000e+02 5.149933e-25
6.130000e+02 6.069895e-25
6.140000e+02 7.150269e-25
6.150000e+02 8.418341e-25
6.160000e+02 9.905919e-25
6.170000e+02 1.165006e-24
6.180000e+02 1.369393e-24
6.190000e+02 1.608775e-24
6.200000e+02 1.888997e-24
6.210000e+02 2.216853e-24
6.220000e+02 2.600240e-24
6.230000e+02 3.048331e-24
6.240000e+02 3.571773e-24
6.250000e+02 4.182922e-24
6.260000e+02 4.896107e-24
6.270000e+02 5.727941e-24
6.280000e+02 6.697667e-24
6.290000e+02 7.827573e-24
6.300000e+02 9.143453e-24
6.310000e+02 1.067515e-23
6.320000e+02 1.245717e-23
6.330000e+02 1.452940e-23
6.340000e+02 1.693791e-23
6.350000e+02 1.973588e-23
6.360000e+02 2.298472e-23
6.370000e+02 2.675523e-23
6.380000e+02 3.112906e-23
6.390000e+02 3.620031e-23
6.400000e+02 4.207735e-23
6.410000e+02 4.888496e-23
6.420000e+02 5.676675e-23
6.430000e+02 6.588788e-23
6.440000e+02 7.643828e-23
6.450000e+02 8.863617e-23
6.460000e+02 1.027323e-22
6.470000e+02 1.190143e-22
6.480000e+02 1.378128e-22
6.490000e+02 1.595064e-22
6.500000e+02 1.845297e-22
6.510000e+02 2.133806e-22
6.520000e+02 2.466294e-22
6.530000e+02 2.849294e-22
6.540000e+02 3.290279e-22
6.550000e+02 3.797801e-22
6.560000e+02 4.381641e-22
6.570000e+02 5.052976e-22
6.580000e+02 5.824579e-22
6.590000e+02 6.711035e-22
6.600000e+02 7.728996e-22
6.610000e+02 8.897460e-22
6.620000e+02 1.023810e-21
6.630000e+02 1.177562e-21
6.640000e+02 1.353818e-21
6.650000e+02 1.555786e-21
6.660000e+02 1.787117e-21
6.670000e+02 2.051969e-21
6.680000e+02 2.355070e-21
6.690000e+02 2.701801e-21
6.700000e+02 3.098274e-21
6.710000e+02 3.551439e-21
6.720000e+02 4.069186e-21
6.730000e+02 4.660477e-21
6.740000e+02 5.335480e-21
6.750000e+02 6.105733e-21
6.760000e+02 6.984320e-21
6.770000e+02 7.986071e-21
6.780000e+02 9.127793e-21
6.790000e+02 1.042852e-20
6.800000e+02 1.190981e-20
6.810000e+02 1.359605e-20
6.820000e+02 1.551485e-20
6.830000e+02 1.769741e-20
6.840000e+02 2.017902e-20
6.850000e+02 2.299955e-20
6.860000e+02 2.620405e-20
6.870000e+02 2.984337e-20
6.880000e+02 3.397493e-20
6.890000e+02 3.866351e-20
6.900000e+02 4.398218e-20
6.910000e+02 5.001331e-20
6.920000e+02 5.684975e-20
6.930000e+02 6.459612e-20
6.940000e+02 7.337024e-20
6.950000e+02 8.330475e-20
6.960000e+02 9.454892e-20
6.970000e+02 1.072707e-19
6.980000e+02 1.216590e-19
6.990000e+02 1.379261e-19
7.000000e+02 1.563106e-19
7.010000e+02 1.770806e-19
7.020000e+02 2.005371e-19
7.030000e+02 2.270181e-19
7.040000e+02 2.569027e-19
7.050000e+02 2.906164e-19
7.060000e+02 3.286364e-19
7.070000e+02 3.714973e-19
7.080000e+02 4.197987e-19
7.090000e+02 4.742117e-19
7.100000e+02 5.354884e-19
7.110000e+02 6.044706e-19
7.120000e+02 6.821002e-19
7.130000e+02 7.694309e-19
7.140000e+02 8.676415e-19
7.150000e+02 9.780495e-19
7.160000e+02 1.102127e-18
7.170000e+02 1.241520e-18
7.180000e+02 1.398065e-18
7.190000e+02 1.573815e-18
7.200000e+02 1.771057e-18
7.210000e+02 1.992348e-18
7.220000e+02 2.240536e-18
7.230000e+02 2.518799e-18
7.240000e+02 2.830678e-18
7.250000e+02 3.180120e-18
7.260000e+02 3.571520e-18
7.270000e+02 4.009774e-18
7.280000e+02 4.500331e-18
7.290000e+02 5.049257e-18
7.300000e+02 5.663299e-18
7.310000e+02 6.349960e-18
7.320000e+02 7.117586e-18
7.330000e+02 7.975448e-18
7.340000e+02 8.933853e-18
7.350000e+02 1.000425e-17
7.360000e+02 1.119934e-17
7.370000e+02 1.253324e-17
7.380000e+02 1.402161e-17
7.390000e+02 1.568183e-17
7.400000e+02 1.753316e-17
7.410000e+02 1.959696e-17
7.420000e+02 2.189693e-17
7.430000e+02 2.445929e-17
7.440000e+02 2.731313e-17
7.450000e+02 3.049064e-17
7.460000e+02 3.402746e-17
7.470000e+02 3.796304e-17
7.480000e+02 4.234104e-17
7.490000e+02 4.720974e-17
7.500000e+02 5.262253e-17
7.510000e+02 5.863846e-17
7.520000e+02 6.532274e-17
7.530000e+02 7.274747e-17
7.540000e+02 8.099227e-17
7.550000e+02 9.014506e-17
7.560000e+02 1.003029e-16
7.570000e+02 1.115729e-16
7.580000e+02 1.240732e-16
7.590000e+02 1.379343e-16
7.600000e+02 1.532998e-16
7.610000e+02 1.703282e-16
7.620000e+02 1.891942e-16
7.630000e+02 2.100902e-16
7.640000e+02 2.332281e-16
7.650000e+02 2.588413e-16
7.660000e+02 2.871867e-16
7.670000e+02 3.185473e-16
7.680000e+02 3.532339e-16
7.690000e+02 3.915891e-16
7.700000e+02 4.339891e-16
7.710000e+02 4.808477e-16
7.720000e+02 5.326198e-16
7.730000e+02 5.898050e-16
7.740000e+02 6.529525e-16
7.750000e+02 7.226651e-16
7.760000e+02 7.996048e-16
7.770000e+02 8.844984e-16
7.780000e+02 9.781433e-16
7.790000e+02 1.081414e-15
7.800000e+02 1.195271e-15
7.810000e+02 1.320765e-15
7.820000e+02 1.459052e-15
7.830000e+02 1.611393e-15
7.840000e+02 1.779176e-15
7.850000e+02 1.963917e-15
7.860000e+02 2.167278e-15
7.870000e+02 2.391079e-15
7.880000e+02 2.637311e-15
7.890000e+02 2.908154e-15
7.900000e+02 3.205993e-15
7.910000e+02 3.533435e-15
7.920000e+02 3.893332e-15
7.930000e+02 4.288804e-15
7.940000e+02 4.723258e-15
7.950000e+02 5.200418e-15
7.960000e+02 5.724353e-15
7.970000e+02 6.299506e-15
7.980000e+02 6.930730e-15
7.990000e+02 7.623321e-15
8.000000e+02 8.383062e-15
8.010000e+02 9.216261e-15
8.020000e+02 1.012980e-14
8.030000e+02 1.113118e-14
8.040000e+02 1.222859e-14
8.050000e+02 1.343095e-14
8.060000e+02 1.474799e-14
8.070000e+02 1.619030e-14
8.080000e+02 1.776942e-14
8.090000e+02 1.949792e-14
8.100000e+02 2.138950e-14
8.110000e+02 2.345905e-14
8.120000e+02 2.572279e-14
8.130000e+02 2.819837e-14
8.140000e+02 3.090500e-14
8.150000e+02 3.386354e-14
8.160000e+02 3.709672e-14
8.170000e+02 4.062922e-14
8.180000e+02 4.448786e-14
8.190000e+02 4.870181e-14
8.200000e+02 5.330276e-14
8.210000e+02 5.832510e-14
8.220000e+02 6.380620e-14
8.230000e+02 6.978664e-14
8.240000e+02 7.631047e-14
8.250000e+02 8.342545e-14
8.260000e+02 9.118348e-14
8.270000e+02 9.964079e-14
8.280000e+02 1.088584e-13
8.290000e+02 1.189025e-13
8.300000e+02 1.298447e-13
8.310000e+02 1.417629e-13
8.320000e+02 1.547412e-13
8.330000e+02 1.688709e-13
8.340000e+02 1.842509e-13
8.350000e+02 2.009883e-13
8.360000e+02 2.191989e-13
8.370000e+02 2.390082e-13
8.380000e+02 2.605520e-13
8.390000e+02 2.839774e-13
8.400000e+02 3.094431e-13
8.410000e+02 3.371213e-13
8.420000e+02 3.671979e-13
8.430000e+02 3.998739e-13
8.440000e+02 4.353666e-13
8.450000e+02 4.739109e-13
8.460000e+02 5.157606e-13
8.470000e+02 5.611898e-13
8.480000e+02 6.104948e-13
8.490000e+02 6.639952e-13
8.500000e+02 7.220364e-13
8.510000e+02 7.849910e-13
8.520000e+02 8.532613e-13
8.530000e+02 9.272814e-13
8.540000e+02 1.007519e-12
8.550000e+02 1.094481e-12
8.560000e+02 1.188709e-12
8.570000e+02 1.290793e-12
8.580000e+02 1.401365e-12
8.590000e+02 1.521107e-12
8.600000e+02 1.650755e-12
8.610000e+02 1.791100e-12
8.620000e+02 1.942997e-12
8.630000e+02 2.107364e-12
8.640000e+02 2.285190e-12
8.650000e+02 2.477541e-12
8.660000e+02 2.685564e-12
8.670000e+02 2.910492e-12
8.680000e+02 3.153653e-12
8.690000e+02 3.416477e-12
8.700000e+02 3.700497e-12
8.710000e+02 4.007369e-12
8.720000e+02 4.338867e-12
8.730000e+02 4.696900e-12
8.740000e+02 5.083522e-12
8.750000e+02 5.500938e-12
8.760000e+02 5.951518e-12
8.770000e+02 6.437806e-12
8.780000e+02 6.962537e-12
8.790000e+02 7.528647e-12
8.800000e+02 8.139287e-12
8.810000e+02 8.797841e-12
8.820000e+02 9.507940e-12
8.830000e+02 1.027348e-11
8.840000e+02 1.109864e-11
8.850000e+02 1.198792e-11
8.860000e+02 1.294610e-11
8.870000e+02 1.397837e-11
8.880000e+02 1.509023e-11
8.890000e+02 1.628763e-11
8.900000e+02 1.757691e-11
8.910000e+02 1.896489e-11
8.920000e+02 2.045886e-11
8.930000e+02 2.206662e-11
8.940000e+02 2.379656e-11
8.950000e+02 2.565763e-11
8.960000e+02 2.765942e-11
8.970000e+02 2.981222e-11
8.980000e+02 3.212701e-11
8.990000e+02 3.461555e-11
9.000000e+02 3.729045e-11
9.010000e+02 4.016517e-11
9.020000e+02 4.325410e-11
9.030000e+02 4.657267e-11
9.040000e+02 5.013734e-11
9.050000e+02 5.396571e-11
9.060000e+02 5.807663e-11
9.070000e+02 6.249020e-11
9.080000e+02 6.722794e-11
9.090000e+02 7.231279e-11
9.100000e+02 7.776932e-11
9.110000e+02 8.362372e-11
9.120000e+02 8.990398e-11
9.130000e+02 9.663998e-11
9.140000e+02 1.044818e-10
9.150000e+02 3.270017e-08
9.160000e+02 3.101336e-07
9.170000e+02 8.454844e-08
9.180000e+02 4.287157e-08
9.190000e+02 1.038120e-06
9.200000e+02 3.653563e-06
9.210000e+02 1.712516e-10
9.220000e+02 5.019293e-06
9.230000e+02 1.671087e-08
9.240000e+02 4.326253e-07
9.250000e+02 3.525904e-06
9.260000e+02 6.294107e-08
9.270000e+02 3.098884e-07
9.280000e+02 2.876665e-05
9.290000e+02 2.661892e-05
9.300000e+02 4.214506e-06
9.310000e+02 4.364000e-08
9.320000e+02 1.956786e-05
9.330000e+02 2.953002e-05
9.340000e+02 1.992086e-05
9.350000e+02 2.820593e-08
9.360000e+02 1.311771e-06
9.370000e+02 8.032188e-09
9.380000e+02 1.209901e-08
9.390000e+02 2.719290e-06
9.400000e+02 5.221534e-05
9.410000e+02 7.882896e-07
9.420000e+02 9.206244e-05
9.430000e+02 8.581621e-06
9.440000e+02 1.028383e-04
9.450000e+02 1.032505e-04
9.460000e+02 6.935044e-05
9.470000e+02 8.298412e-08
9.480000e+02 1.856524e-05
9.490000e+02 1.485446e-06
9.500000e+02 9.352478e-09
9.510000e+02 1.114141e-05
9.520000e+02 5.451195e-05
9.530000e+02 1.050894e-06
9.540000e+02 9.461087e-08
9.550000e+02 2.233131e-05
9.560000e+02 8.911832e-05
9.570000e+02 2.944231e-06
9.580000e+02 2.640445e-08
9.590000e+02 2.539464e-04
9.600000e+02 4.209141e-08
9.610000e+02 1.734297e-04
9.620000e+02 9.228818e-05
9.630000e+02 1.111123e-05
9.640000e+02 7.973722e-08
9.650000e+02 2.888846e-07
9.660000e+02 2.560794e-05
9.670000e+02 2.392931e-06
9.680000e+02 1.389461e-06
9.690000e+02 8.173346e-05
9.700000e+02 5.717250e-05
9.710000e+02 2.187125e-06
9.720000e+02 2.068873e-07
9.730000e+02 2.074267e-07
9.740000e+02 1.529125e-05
9.750000e+02 2.844107e-05
9.760000e+02 2.126463e-04
9.770000e+02 2.802822e-04
9.780000e+02 2.269009e-04
9.790000e+02 5.217355e-04
9.800000e+02 5.897737e-04
9.810000e+02 2.332324e-04
9.820000e+02 3.530184e-05
9.830000e+02 7.199826e-04
9.840000e+02 1.044430e-05
9.850000e+02 1.118484e-04
9.860000e+02 1.469238e-04
9.870000e+02 8.907265e-04
9.880000e+02 8.201459e-07
9.890000e+02 7.035402e-04
9.900000e+02 7.279563e-05
9.910000e+02 2.423940e-05
9.920000e+02 1.439897e-07
9.930000e+02 8.596889e-04
9.940000e+02 3.247987e-08
9.950000e+02 3.054935e-05
9.960000e+02 3.906665e-06
9.970000e+02 1.603526e-06
9.980000e+02 1.187866e-03
9.990000e+02 3.458997e-05
1.000000e+03 1.521042e-03
1.001000e+03 1.454442e-03
1.002000e+03 1.808013e-03
1.003000e+03 5.180499e-05
1.004000e+03 1.334702e-06
1.005000e+03 2.598697e-04
1.006000e+03 2.051820e-03
1.007000e+03 2.158428e-03
1.008000e+03 1.989753e-03
1.009000e+03 6.311281e-05
1.010000e+03 2.063369e-03
1.011000e+03 2.365977e-03
1.012000e+03 2.239498e-03
1.013000e+03 2.215396e-03
1.014000e+03 4.807953e-07
1.015000e+03 2.310378e-06
1.016000e+03 2.104777e-04
1.017000e+03 3.543682e-07
1.018000e+03 6.868853e-05
1.019000e+03 2.144254e-06
1.020000e+03 1.491050e-03
1.021000e+03 3.573857e-05
1.022000e+03 1.069970e-04
1.023000e+03 5.870010e-06
1.024000e+03 5.087576e-05
1.025000e+03 2.805527e-07
1.026000e+03 1.916165e-07
1.027000e+03 2.109052e-05
1.028000e+03 1.363151e-06
1.029000e+03 7.956405e-07
1.030000e+03 8.652559e-04
1.031000e+03 1.842013e-03
1.032000e+03 4.051242e-03
1.033000e+03 2.312055e-05
1.034000e+03 3.566498e-03
1.035000e+03 6.826594e-07
1.036000e+03 1.983717e-06
1.037000e+03 1.559295e-02
1.038000e+03 1.977407e-02
1.039000e+03 1.744237e-02
1.040000e+03 2.217010e-02
1.041000e+03 2.386438e-02
1.042000e+03 2.574598e-02
1.043000e+03 1.603799e-02
1.044000e+03 3.076329e-02
1.045000e+03 1.060795e-06
1.046000e+03 2.369443e-02
1.047000e+03 1.157743e-02
1.048000e+03 9.416230e-05
1.049000e+03 1.354421e-02
1.050000e+03 3.240507e-03
1.051000e+03 1.089890e-03
1.052000e+03 4.050947e-02
1.053000e+03 4.528901e-02
1.054000e+03 3.360212e-06
1.055000e+03 4.197327e-02
1.056000e+03 4.885031e-02
1.057000e+03 2.414225e-02
1.058000e+03 1.338838e-03
1.059000e+03 1.851432e-04
1.060000e+03 1.201481e-04
1.061000e+03 4.280300e-02
1.062000e+03 5.106758e-04
1.063000e+03 1.402437e-04
1.064000e+03 1.780689e-06
1.065000e+03 5.729496e-06
1.066000e+03 1.670318e-02
1.067000e+03 5.643012e-04
1.068000e+03 7.882658e-02
1.069000e+03 9.255836e-05
1.070000e+03 1.981902e-02
1.071000e+03 8.017983e-02
1.072000e+03 8.827598e-02
1.073000e+03 1.664460e-05
1.074000e+03 3.844292e-02
1.075000e+03 2.430110e-02
1.076000e+03 5.795544e-02
1.077000e+03 7.792935e-05
1.078000e+03 1.450285e-03
1.079000e+03 1.293115e-02
1.080000e+03 3.765312e-02
1.081000e+03 1.030992e-01
1.082000e+03 8.410181e-02
1.083000e+03 5.891664e-02
1.084000e+03 1.278451e-01
1.085000e+03 1.263728e-02
1.086000e+03 1.452015e-01
1.087000e+03 1.426369e-03
1.088000e+03 1.552142e-01
1.089000e+03 1.591572e-01
1.090000e+03 1.008570e-02
1.091000e+03 1.671012e-02
1.092000e+03 1.628008e-01
1.093000e+03 1.755075e-01
1.094000e+03 1.184057e-01
1.095000e+03 1.945445e-01
1.096000e+03 5.406991e-03
1.097000e+03 1.863497e-01
1.098000e+03 2.010825e-01
1.099000e+03 4.106344e-02
1.100000e+03 2.535610e-04
1.101000e+03 8.687386e-04
1.102000e+03 2.622660e-02
1.103000e+03 2.485999e-01
1.104000e+03 2.596038e-01
1.105000e+03 2.659530e-01
1.106000e+03 1.181889e-01
1.107000e+03 5.080998e-04
1.108000e+03 2.671484e-01
1.109000e+03 1.110688e-02
1.110000e+03 2.904470e-01
1.111000e+03 2.912222e-01
1.112000e+03 2.434157e-01
1.113000e+03 2.548562e-01
1.114000e+03 1.719672e-01
1.115000e+03 1.136026e-02
1.116000e+03 3.892551e-03
1.117000e+03 3.732989e-01
1.118000e+03 1.938275e-02
1.119000e+03 2.936561e-01
1.120000e+03 6.118804e-03
1.121000e+03 4.063980e-01
1.122000e+03 3.452268e-01
1.123000e+03 5.465909e-01
1.124000e+03 6.270018e-01
1.125000e+03 5.379935e-01
1.126000e+03 5.812741e-01
1.127000e+03 5.343098e-01
1.128000e+03 4.066559e-01
1.129000e+03 4.430970e-01
1.130000e+03 4.970188e-01
1.131000e+03 4.244459e-01
1.132000e+03 9.943247e-03
1.133000e+03 1.104411e-01
1.134000e+03 4.139148e-01
1.135000e+03 1.001175e-01
1.136000e+03 1.909391e-01
1.137000e+03 3.881640e-01
1.138000e+03 3.778634e-01
1.139000e+03 4.481069e-01
1.140000e+03 4.306758e-01
1.141000e+03 4.220948e-01
1.142000e+03 4.437731e-01
1.143000e+03 3.650292e-01
1.144000e+03 4.306348e-01
1.145000e+03 4.227340e-03
1.146000e+03 4.625261e-01
1.147000e+03 4.646725e-01
1.148000e+03 5.196938e-02
1.149000e+03 4.541837e-01
1.150000e+03 4.495436e-01
1.151000e+03 4.598959e-01
1.152000e+03 4.520252e-01
1.153000e+03 4.428394e-01
1.154000e+03 4.385933e-01
1.155000e+03 4.279042e-01
1.156000e+03 3.453466e-01
1.157000e+03 4.151489e-01
1.158000e+03 3.827944e-01
1.159000e+03 4.276489e-01
1.160000e+03 3.912003e-01
1.161000e+03 4.006312e-01
1.162000e+03 1.494946e-01
1.163000e+03 2.764350e-01
1.164000e+03 9.138882e-04
1.165000e+03 2.471670e-01
1.166000e+03 1.355238e-01
1.167000e+03 8.977977e-02
1.168000e+03 4.475495e-01
1.169000e+03 4.534144e-01
1.170000e+03 9.362993e-02
1.171000e+03 2.251237e-01
1.172000e+03 1.822653e-01
1.173000e+03 1.574717e-01
1.174000e+03 2.787024e-02
1.175000e+03 8.502901e-04
1.176000e+03 2.903044e-04
1.177000e+03 5.630515e-01
1.178000e+03 5.368482e-01
1.179000e+03 5.139027e-01
1.180000e+03 4.659710e-01
1.181000e+03 4.714776e-01
1.182000e+03 4.571799e-01
1.183000e+03 4.322082e-01
1.184000e+03 4.179022e-01
1.185000e+03 4.066536e-01
1.186000e+03 1.253300e-01
1.187000e+03 3.875376e-01
1.188000e+03 3.614079e-01
1.189000e+03 3.709260e-01
1.190000e+03 3.617076e-01
1.191000e+03 3.423267e-01
1.192000e+03 3.110906e-01
1.193000e+03 2.979887e-01
1.194000e+03 2.978224e-01
1.195000e+03 2.850041e-01
1.196000e+03 2.969016e+00
1.197000e+03 2.874945e+00
1.198000e+03 7.347096e-01
1.199000e+03 2.587019e+00
1.200000e+03 1.411501e+00
1.201000e+03 2.198617e+00
1.202000e+03 1.901261e+00
1.203000e+03 1.756202e+00
1.204000e+03 1.022165e+00
1.205000e+03 1.259783e+00
1.206000e+03 1.014498e+00
1.207000e+03 1.429167e-01
1.208000e+03 5.083379e-01
1.209000e+03 3.788038e-01
1.210000e+03 1.502350e-03
1.211000e+03 1.345669e-01
1.212000e+03 6.459709e-02
1.213000e+03 2.579129e-02
1.214000e+03 7.013588e-03
1.215000e+03 1.236217e-03
1.216000e+03 1.082763e-03
1.217000e+03 4.326966e-03
1.218000e+03 2.069191e-02
1.219000e+03 6.103585e-02
1.220000e+03 1.369978e-01
1.221000e+03 2.766743e-01
1.222000e+03 4.930705e-01
1.223000e+03 7.646778e-01
1.224000e+03 1.050301e+00
1.225000e+03 6.408903e-01
1.226000e+03 2.047493e+00
1.227000e+03 2.638612e+00
1.228000e+03 2.739792e+00
1.229000e+03 3.859519e+00
1.230000e+03 3.309443e+00
1.231000e+03 2.835042e+00
1.232000e+03 5.735547e+00
1.233000e+03 6.416626e+00
1.234000e+03 5.313142e+00
1.235000e+03 7.650659e+00
1.236000e+03 6.636334e+00
1.237000e+03 8.851321e+00
1.238000e+03 9.435299e+00
1.239000e+03 9.749290e+00
1.240000e+03 2.096843e+00
1.241000e+03 1.021307e+01
1.242000e+03 1.160527e+01
1.243000e+03 1.218443e+01
1.244000e+03 1.273433e+01
1.245000e+03 1.321785e+01
1.246000e+03 1.356526e+01
1.247000e+03 1.410297e+01
1.248000e+03 1.034909e+01
1.249000e+03 1.520259e+01
1.250000e+03 1.340136e+01
1.251000e+03 1.639911e+01
1.252000e+03 1.620329e+01
1.253000e+03 1.720891e+01
1.254000e+03 1.721435e+01
1.255000e+03 5.960864e+00
1.256000e+03 1.640883e+01
1.257000e+03 1.352067e+01
1.258000e+03 1.781174e+01
1.259000e+03 1.796052e+01
1.260000e+03 1.992302e+01
1.261000e+03 8.569546e-01
1.262000e+03 2.071595e+01
1.263000e+03 1.915043e+01
1.264000e+03 2.031965e+01
1.265000e+03 1.513212e+00
1.266000e+03 2.380205e+01
1.267000e+03 2.468978e+01
