# wavelength_A flux
5.000000e+02 0.000000e+00
5.010000e+02 0.000000e+00
5.020000e+02 0.000000e+00
5.030000e+02 1.401298e-45
5.040000e+02 1.401298e-45
5.050000e+02 1.401298e-45
5.060000e+02 1.401298e-45
5.070000e+02 2.802597e-45
5.080000e+02 2.802597e-45
5.090000e+02 4.203895e-45
5.100000e+02 5.605194e-45
5.110000e+02 8.407791e-45
5.120000e+02 9.809089e-45
5.130000e+02 1.401298e-44
5.140000e+02 1.821688e-44
5.150000e+02 2.382207e-44
5.160000e+02 3.222986e-44
5.170000e+02 4.344025e-44
5.180000e+02 5.745324e-44
5.190000e+02 7.567012e-44
5.200000e+02 9.949219e-44
5.210000e+02 1.317221e-43
5.220000e+02 1.737610e-43
5.230000e+02 2.284116e-43
5.240000e+02 2.998779e-43
5.250000e+02 3.951662e-43
5.260000e+02 5.184804e-43
5.270000e+02 6.796298e-43
5.280000e+02 8.912258e-43
5.290000e+02 1.165880e-42
5.300000e+02 1.524613e-42
5.310000e+02 1.989844e-42
5.320000e+02 2.596606e-42
5.330000e+02 3.385537e-42
5.340000e+02 4.407084e-42
5.350000e+02 5.734113e-42
5.360000e+02 7.450704e-42
5.370000e+02 9.663354e-42
5.380000e+02 1.254583e-41
5.390000e+02 1.625506e-41
5.400000e+02 2.104190e-41
5.410000e+02 2.721041e-41
5.420000e+02 3.515437e-41
5.430000e+02 4.537545e-41
5.440000e+02 5.850982e-41
5.450000e+02 7.537584e-41
5.460000e+02 9.701049e-41
5.470000e+02 1.247408e-40
5.480000e+02 1.602469e-40
5.490000e+02 2.056672e-40
5.500000e+02 2.637202e-40
5.510000e+02 3.378489e-40
5.520000e+02 4.324197e-40
5.530000e+02 5.529622e-40
5.540000e+02 7.064674e-40
5.550000e+02 9.017776e-40
5.560000e+02 1.150055e-39
5.570000e+02 1.465388e-39
5.580000e+02 1.865533e-39
5.590000e+02 2.372857e-39
5.600000e+02 3.015507e-39
5.610000e+02 3.828880e-39
5.620000e+02 4.857441e-39
5.630000e+02 6.157010e-39
5.640000e+02 7.797593e-39
5.650000e+02 9.866919e-39
5.660000e+02 1.247484e-38
5.670000e+02 1.575878e-38
5.680000e+02 1.989054e-38
5.690000e+02 2.508467e-38
5.700000e+02 3.160898e-38
5.710000e+02 3.979737e-38
5.720000e+02 5.006589e-38
5.730000e+02 6.293254e-38
5.740000e+02 7.904166e-38
5.750000e+02 9.919417e-38
5.760000e+02 1.243845e-37
5.770000e+02 1.558482e-37
5.780000e+02 1.951151e-37
5.790000e+02 2.440824e-37
5.800000e+02 3.050987e-37
5.810000e+02 3.810696e-37
5.820000e+02 4.755873e-37
5.830000e+02 5.930887e-37
5.840000e+02 7.390479e-37
5.850000e+02 9.202293e-37
5.860000e+02 1.144952e-36
5.870000e+02 1.423470e-36
5.880000e+02 1.768405e-36
5.890000e+02 2.195275e-36
5.900000e+02 2.723149e-36
5.910000e+02 3.375447e-36
5.920000e+02 4.180902e-36
5.930000e+02 5.174745e-36
5.940000e+02 6.400148e-36
5.950000e+02 7.909969e-36
5.960000e+02 9.768880e-36
5.970000e+02 1.205595e-35
5.980000e+02 1.486781e-35
5.990000e+02 1.832239e-35
6.000000e+02 2.256363e-35
6.010000e+02 2.776699e-35
6.020000e+02 3.414627e-35
6.030000e+02 4.196179e-35
6.040000e+02 5.153027e-35
6.050000e+02 6.323681e-35
6.060000e+02 7.754935e-35
6.070000e+02 9.503609e-35
6.080000e+02 1.163865e-34
6.090000e+02 1.424367e-34
6.100000e+02 1.741997e-34
6.110000e+02 2.129027e-34
6.120000e+02 2.600306e-34
6.130000e+02 3.173793e-34
6.140000e+02 3.871194e-34
6.150000e+02 4.718730e-34
6.160000e+02 5.748048e-34
6.170000e+02 6.997328e-34
6.180000e+02 8.512594e-34
6.190000e+02 1.034930e-33
6.200000e+02 1.257420e-33
6.210000e+02 1.526765e-33
6.220000e+02 1.852623e-33
6.230000e+02 2.246605e-33
6.240000e+02 2.722654e-33
6.250000e+02 3.297506e-33
6.260000e+02 3.991235e-33
6.270000e+02 4.827908e-33
6.280000e+02 5.836358e-33
6.290000e+02 7.051110e-33
6.300000e+02 8.513474e-33
6.310000e+02 1.027286e-32
6.320000e+02 1.238831e-32
6.330000e+02 1.493037e-32
6.340000e+02 1.798324e-32
6.350000e+02 2.164739e-32
6.360000e+02 2.604261e-32
6.370000e+02 3.131165e-32
6.380000e+02 3.762454e-32
6.390000e+02 4.518367e-32
6.400000e+02 5.422981e-32
6.410000e+02 6.504921e-32
6.420000e+02 7.798204e-32
6.430000e+02 9.343228e-32
6.440000e+02 1.118794e-31
6.450000e+02 1.338923e-31
6.460000e+02 1.601454e-31
6.470000e+02 1.914377e-31
6.480000e+02 2.287159e-31
6.490000e+02 2.731001e-31
6.500000e+02 3.259156e-31
6.510000e+02 3.887294e-31
6.520000e+02 4.633934e-31
6.530000e+02 5.520945e-31
6.540000e+02 6.574145e-31
6.550000e+02 7.823996e-31
6.560000e+02 9.306415e-31
6.570000e+02 1.106373e-30
6.580000e+02 1.314582e-30
6.590000e+02 1.561139e-30
6.600000e+02 1.852952e-30
6.610000e+02 2.198146e-30
6.620000e+02 2.606272e-30
6.630000e+02 3.088552e-30
6.640000e+02 3.658163e-30
6.650000e+02 4.330572e-30
6.660000e+02 5.123922e-30
6.670000e+02 6.059485e-30
6.680000e+02 7.162194e-30
6.690000e+02 8.461249e-30
6.700000e+02 9.990838e-30
6.710000e+02 1.179097e-29
6.720000e+02 1.390843e-29
6.730000e+02 1.639792e-29
6.740000e+02 1.932335e-29
6.750000e+02 2.275936e-29
6.760000e+02 2.679307e-29
6.770000e+02 3.152616e-29
6.780000e+02 3.707715e-29
6.790000e+02 4.358425e-29
6.800000e+02 5.120843e-29
6.810000e+02 6.013719e-29
6.820000e+02 7.058873e-29
6.830000e+02 8.281694e-29
6.840000e+02 9.711705e-29
6.850000e+02 1.138322e-28
6.860000e+02 1.333611e-28
6.870000e+02 1.561667e-28
6.880000e+02 1.827863e-28
6.890000e+02 2.138434e-28
6.900000e+02 2.500611e-28
6.910000e+02 2.922773e-28
6.920000e+02 3.414630e-28
6.930000e+02 3.987427e-28
6.940000e+02 4.654182e-28
6.950000e+02 5.429953e-28
6.960000e+02 6.332162e-28
6.970000e+02 7.380944e-28
6.980000e+02 8.599567e-28
6.990000e+02 1.001491e-27
7.000000e+02 1.165799e-27
7.010000e+02 1.356463e-27
7.020000e+02 1.577613e-27
7.030000e+02 1.834010e-27
7.040000e+02 2.131145e-27
7.050000e+02 2.475339e-27
7.060000e+02 2.873876e-27
7.070000e+02 3.335136e-27
7.080000e+02 3.868762e-27
7.090000e+02 4.485847e-27
7.100000e+02 5.199139e-27
7.110000e+02 6.023292e-27
7.120000e+02 6.975134e-27
7.130000e+02 8.073990e-27
7.140000e+02 9.342038e-27
7.150000e+02 1.080472e-26
7.160000e+02 1.249122e-26
7.170000e+02 1.443498e-26
7.180000e+02 1.667432e-26
7.190000e+02 1.925316e-26
7.200000e+02 2.222173e-26
7.210000e+02 2.563758e-26
7.220000e+02 2.956650e-26
7.230000e+02 3.408375e-26
7.240000e+02 3.927536e-26
7.250000e+02 4.523961e-26
7.260000e+02 5.208879e-26
7.270000e+02 5.995111e-26
7.280000e+02 6.897288e-26
7.290000e+02 7.932102e-26
7.300000e+02 9.118594e-26
7.310000e+02 1.047847e-25
7.320000e+02 1.203645e-25
7.330000e+02 1.382073e-25
7.340000e+02 1.586339e-25
7.350000e+02 1.820095e-25
7.360000e+02 2.087497e-25
7.370000e+02 2.393272e-25
7.380000e+02 2.742795e-25
7.390000e+02 3.142176e-25
7.400000e+02 3.598356e-25
7.410000e+02 4.119219e-25
7.420000e+02 4.713716e-25
7.430000e+02 5.392007e-25
7.440000e+02 6.165618e-25
7.450000e+02 7.047620e-25
7.460000e+02 8.052835e-25
7.470000e+02 9.198059e-25
7.480000e+02 1.050232e-24
7.490000e+02 1.198717e-24
7.500000e+02 1.367701e-24
7.510000e+02 1.559945e-24
7.520000e+02 1.778572e-24
7.530000e+02 2.027116e-24
7.540000e+02 2.309571e-24
7.550000e+02 2.630450e-24
7.560000e+02 2.994853e-24
7.570000e+02 3.408540e-24
7.580000e+02 3.878012e-24
7.590000e+02 4.410608e-24
7.600000e+02 5.014608e-24
7.610000e+02 5.699348e-24
7.620000e+02 6.475358e-24
7.630000e+02 7.354504e-24
7.640000e+02 8.350153e-24
7.650000e+02 9.477367e-24
7.660000e+02 1.075310e-23
7.670000e+02 1.219643e-23
7.680000e+02 1.382885e-23
7.690000e+02 1.567449e-23
7.700000e+02 1.776053e-23
7.710000e+02 2.011750e-23
7.720000e+02 2.277972e-23
7.730000e+02 2.578573e-23
7.740000e+02 2.917881e-23
7.750000e+02 3.300758e-23
7.760000e+02 3.732658e-23
7.770000e+02 4.219700e-23
7.780000e+02 4.768749e-23
7.790000e+02 5.387502e-23
7.800000e+02 6.084584e-23
7.810000e+02 6.869664e-23
7.820000e+02 7.753571e-23
7.830000e+02 8.748431e-23
7.840000e+02 9.867823e-23
7.850000e+02 1.112694e-22
7.860000e+02 1.254278e-22
7.870000e+02 1.413437e-22
7.880000e+02 1.592296e-22
7.890000e+02 1.793231e-22
7.900000e+02 2.018900e-22
7.910000e+02 2.272269e-22
7.920000e+02 2.556650e-22
7.930000e+02 2.875746e-22
7.940000e+02 3.233683e-22
7.950000e+02 3.635071e-22
7.960000e+02 4.085047e-22
7.970000e+02 4.589345e-22
7.980000e+02 5.154355e-22
7.990000e+02 5.787197e-22
8.000000e+02 6.495806e-22
8.010000e+02 7.289020e-22
8.020000e+02 8.176683e-22
8.030000e+02 9.169749e-22
8.040000e+02 1.028041e-21
8.050000e+02 1.152224e-21
8.060000e+02 1.291032e-21
8.070000e+02 1.446144e-21
8.080000e+02 1.619424e-21
8.090000e+02 1.812946e-21
8.100000e+02 2.029013e-21
8.110000e+02 2.270183e-21
8.120000e+02 2.539296e-21
8.130000e+02 2.839507e-21
8.140000e+02 3.174315e-21
8.150000e+02 3.547604e-21
8.160000e+02 3.963679e-21
8.170000e+02 4.427318e-21
8.180000e+02 4.943816e-21
8.190000e+02 5.519040e-21
8.200000e+02 6.159493e-21
8.210000e+02 6.872378e-21
8.220000e+02 7.665671e-21
8.230000e+02 8.548202e-21
8.240000e+02 9.529747e-21
8.250000e+02 1.062112e-20
8.260000e+02 1.183428e-20
8.270000e+02 1.318247e-20
8.280000e+02 1.468032e-20
8.290000e+02 1.634399e-20
8.300000e+02 1.819137e-20
8.310000e+02 2.024219e-20
8.320000e+02 2.251826e-20
8.330000e+02 2.504368e-20
8.340000e+02 2.784501e-20
8.350000e+02 3.095162e-20
8.360000e+02 3.439587e-20
8.370000e+02 3.821349e-20
8.380000e+02 4.244386e-20
8.390000e+02 4.713041e-20
8.400000e+02 5.232102e-20
8.410000e+02 5.806844e-20
8.420000e+02 6.443081e-20
8.430000e+02 7.147215e-20
8.440000e+02 7.926296e-20
8.450000e+02 8.788087e-20
8.460000e+02 9.741132e-20
8.470000e+02 1.079483e-19
8.480000e+02 1.195953e-19
8.490000e+02 1.324660e-19
8.500000e+02 1.466855e-19
8.510000e+02 1.623914e-19
8.520000e+02 1.797348e-19
8.530000e+02 1.988818e-19
8.540000e+02 2.200148e-19
8.550000e+02 2.433343e-19
8.560000e+02 2.690602e-19
8.570000e+02 2.974341e-19
8.580000e+02 3.287211e-19
8.590000e+02 3.632122e-19
8.600000e+02 4.012264e-19
8.610000e+02 4.431137e-19
8.620000e+02 4.892580e-19
8.630000e+02 5.400800e-19
8.640000e+02 5.960407e-19
8.650000e+02 6.576455e-19
8.660000e+02 7.254479e-19
8.670000e+02 8.000543e-19
8.680000e+02 8.821285e-19
8.690000e+02 9.723971e-19
8.700000e+02 1.071656e-18
8.710000e+02 1.180776e-18
8.720000e+02 1.300708e-18
8.730000e+02 1.432495e-18
8.740000e+02 1.577277e-18
8.750000e+02 1.736297e-18
8.760000e+02 1.910919e-18
8.770000e+02 2.102629e-18
8.780000e+02 2.313053e-18
8.790000e+02 2.543967e-18
8.800000e+02 2.797311e-18
8.810000e+02 3.075201e-18
8.820000e+02 3.379950e-18
8.830000e+02 3.714081e-18
8.840000e+02 4.080345e-18
8.850000e+02 4.481748e-18
8.860000e+02 4.921565e-18
8.870000e+02 5.403368e-18
8.880000e+02 5.931052e-18
8.890000e+02 6.508863e-18
8.900000e+02 7.141429e-18
8.910000e+02 7.833790e-18
8.920000e+02 8.591438e-18
8.930000e+02 9.420356e-18
8.940000e+02 1.032706e-17
8.950000e+02 1.131863e-17
8.960000e+02 1.240280e-17
8.970000e+02 1.358796e-17
8.980000e+02 1.488324e-17
8.990000e+02 1.629860e-17
9.000000e+02 1.784485e-17
9.010000e+02 1.953374e-17
9.020000e+02 2.137805e-17
9.030000e+02 2.339167e-17
9.040000e+02 2.558971e-17
9.050000e+02 2.798856e-17
9.060000e+02 3.060605e-17
9.070000e+02 3.346152e-17
9.080000e+02 3.657599e-17
9.090000e+02 3.997228e-17
9.100000e+02 4.367514e-17
9.110000e+02 4.771145e-17
9.120000e+02 5.211037e-17
9.130000e+02 5.690353e-17
9.140000e+02 6.946348e-17
9.150000e+02 4.612615e-14
9.160000e+02 4.403474e-13
9.170000e+02 1.630134e-13
9.180000e+02 6.345978e-14
9.190000e+02 1.455460e-12
9.200000e+02 4.852325e-12
9.210000e+02 1.142296e-16
9.220000e+02 7.489758e-12
9.230000e+02 2.572951e-14
9.240000e+02 5.556350e-13
9.250000e+02 6.181227e-12
9.260000e+02 1.039049e-13
9.270000e+02 5.863040e-13
9.280000e+02 4.245433e-11
9.290000e+02 3.194578e-11
9.300000e+02 6.750135e-12
9.310000e+02 8.425654e-14
9.320000e+02 3.086449e-11
9.330000e+02 7.241167e-11
9.340000e+02 8.893966e-11
9.350000e+02 1.071353e-13
9.360000e+02 4.492049e-12
9.370000e+02 2.334976e-14
9.380000e+02 2.278994e-14
9.390000e+02 7.181592e-12
9.400000e+02 9.557395e-11
9.410000e+02 8.931774e-13
9.420000e+02 1.814573e-10
9.430000e+02 3.818745e-11
9.440000e+02 2.122714e-10
9.450000e+02 2.103778e-10
9.460000e+02 1.618141e-10
9.470000e+02 1.129513e-13
9.480000e+02 1.158624e-11
9.490000e+02 3.482929e-12
9.500000e+02 2.190177e-14
9.510000e+02 2.701722e-11
9.520000e+02 1.326200e-10
9.530000e+02 7.088604e-12
9.540000e+02 1.814772e-13
9.550000e+02 5.500589e-11
9.560000e+02 1.307474e-11
9.570000e+02 1.453287e-11
9.580000e+02 8.151813e-14
9.590000e+02 6.770918e-10
9.600000e+02 1.778855e-13
9.610000e+02 6.411319e-10
9.620000e+02 4.844676e-10
9.630000e+02 2.144329e-11
9.640000e+02 3.646528e-12
9.650000e+02 5.005441e-13
9.660000e+02 1.401164e-10
9.670000e+02 1.164091e-11
9.680000e+02 7.645357e-12
9.690000e+02 2.348390e-10
9.700000e+02 2.180498e-10
9.710000e+02 1.077771e-11
9.720000e+02 5.229356e-13
9.730000e+02 5.965888e-13
9.740000e+02 4.981011e-11
9.750000e+02 1.600980e-10
9.760000e+02 7.333952e-10
9.770000e+02 1.089313e-09
9.780000e+02 1.146362e-09
9.790000e+02 1.917731e-09
9.800000e+02 2.223546e-09
9.810000e+02 1.444992e-09
9.820000e+02 3.914293e-10
9.830000e+02 2.940751e-09
9.840000e+02 8.012218e-11
9.850000e+02 6.054290e-10
9.860000e+02 4.328454e-10
9.870000e+02 3.827607e-09
9.880000e+02 1.994183e-12
9.890000e+02 3.968645e-09
9.900000e+02 3.134343e-09
9.910000e+02 3.921416e-10
9.920000e+02 6.787288e-13
9.930000e+02 3.461430e-09
9.940000e+02 2.653433e-13
9.950000e+02 1.818394e-10
9.960000e+02 1.194689e-11
9.970000e+02 1.522948e-12
9.980000e+02 7.000005e-09
9.990000e+02 5.284897e-10
1.000000e+03 8.719422e-09
1.001000e+03 7.699991e-09
1.002000e+03 1.009451e-08
1.003000e+03 5.434142e-10
1.004000e+03 4.363621e-12
1.005000e+03 3.234311e-09
1.006000e+03 1.239832e-08
1.007000e+03 1.299770e-08
1.008000e+03 1.293198e-08
1.009000e+03 2.452980e-10
1.010000e+03 1.412918e-08
1.011000e+03 1.498289e-08
1.012000e+03 1.514289e-08
1.013000e+03 1.537105e-08
1.014000e+03 3.353762e-12
1.015000e+03 9.258372e-12
1.016000e+03 1.861563e-09
1.017000e+03 3.093525e-12
1.018000e+03 8.269447e-10
1.019000e+03 1.207390e-11
1.020000e+03 9.678456e-09
1.021000e+03 1.623586e-10
1.022000e+03 1.148024e-09
1.023000e+03 4.969092e-11
1.024000e+03 2.415929e-10
1.025000e+03 2.343366e-12
1.026000e+03 1.412241e-12
1.027000e+03 1.248222e-10
1.028000e+03 1.308165e-11
1.029000e+03 6.910028e-12
1.030000e+03 8.114398e-09
1.031000e+03 2.621728e-08
1.032000e+03 3.384392e-08
1.033000e+03 3.206893e-10
1.034000e+03 3.494334e-08
1.035000e+03 8.171241e-12
1.036000e+03 1.922729e-11
1.037000e+03 2.092738e-07
1.038000e+03 2.627228e-07
1.039000e+03 2.662047e-07
1.040000e+03 3.265342e-07
1.041000e+03 2.692424e-07
1.042000e+03 3.951725e-07
1.043000e+03 2.030429e-07
1.044000e+03 4.844159e-07
1.045000e+03 1.743703e-11
1.046000e+03 3.473511e-07
1.047000e+03 2.399473e-07
1.048000e+03 2.206775e-09
1.049000e+03 2.783898e-07
1.050000e+03 2.817711e-08
1.051000e+03 6.985260e-09
1.052000e+03 7.519397e-07
1.053000e+03 8.609533e-07
1.054000e+03 4.428102e-11
1.055000e+03 1.782157e-07
1.056000e+03 9.554663e-07
1.057000e+03 4.466824e-07
1.058000e+03 2.130406e-08
1.059000e+03 5.978563e-09
1.060000e+03 1.296485e-09
1.061000e+03 1.179374e-06
1.062000e+03 9.578415e-09
1.063000e+03 1.485979e-10
1.064000e+03 1.784883e-11
1.065000e+03 8.049028e-11
1.066000e+03 1.111857e-08
1.067000e+03 1.573744e-08
1.068000e+03 1.908151e-06
1.069000e+03 1.996640e-09
1.070000e+03 3.639119e-07
1.071000e+03 2.039481e-06
1.072000e+03 2.294804e-06
1.073000e+03 2.237357e-10
1.074000e+03 1.508995e-06
1.075000e+03 1.299146e-06
1.076000e+03 3.515428e-07
1.077000e+03 1.157787e-09
1.078000e+03 3.508785e-08
1.079000e+03 3.757693e-07
1.080000e+03 7.764811e-07
1.081000e+03 3.455144e-06
1.082000e+03 2.892660e-06
1.083000e+03 2.287802e-06
1.084000e+03 3.127991e-06
1.085000e+03 4.468452e-07
1.086000e+03 4.646876e-06
1.087000e+03 4.883896e-08
1.088000e+03 5.032902e-06
1.089000e+03 5.214747e-06
1.090000e+03 4.954695e-07
1.091000e+03 1.077458e-06
1.092000e+03 1.612804e-06
1.093000e+03 5.081872e-06
1.094000e+03 2.896969e-06
1.095000e+03 7.022213e-06
1.096000e+03 1.215340e-07
1.097000e+03 7.365825e-06
1.098000e+03 3.272375e-06
1.099000e+03 1.027490e-06
1.100000e+03 3.963081e-09
1.101000e+03 1.508832e-08
1.102000e+03 1.644532e-06
1.103000e+03 9.885006e-06
1.104000e+03 1.059502e-05
1.105000e+03 1.104122e-05
1.106000e+03 4.365462e-06
1.107000e+03 1.888566e-08
1.108000e+03 1.225257e-05
1.109000e+03 7.469662e-07
1.110000e+03 1.166618e-05
1.111000e+03 1.266687e-05
1.112000e+03 1.282772e-05
1.113000e+03 1.135072e-05
1.114000e+03 4.035168e-06
1.115000e+03 4.565145e-07
1.116000e+03 7.287193e-08
1.117000e+03 1.858814e-05
1.118000e+03 1.338649e-06
1.119000e+03 1.505763e-05
1.120000e+03 2.665693e-07
1.121000e+03 2.130775e-05
1.122000e+03 1.410437e-05
1.123000e+03 3.342533e-05
1.124000e+03 4.202855e-05
1.125000e+03 3.556393e-05
1.126000e+03 2.943030e-05
1.127000e+03 2.921309e-05
1.128000e+03 2.663688e-05
1.129000e+03 2.281789e-05
1.130000e+03 2.609707e-05
1.131000e+03 2.121150e-05
1.132000e+03 3.238401e-07
1.133000e+03 9.311709e-06
1.134000e+03 2.160752e-05
1.135000e+03 5.672349e-06
1.136000e+03 9.408811e-06
1.137000e+03 1.649122e-05
1.138000e+03 1.921641e-05
1.139000e+03 2.087423e-05
1.140000e+03 2.029195e-05
1.141000e+03 1.707722e-05
1.142000e+03 2.044809e-05
1.143000e+03 1.636804e-05
1.144000e+03 1.912977e-05
1.145000e+03 1.776516e-07
1.146000e+03 2.122162e-05
1.147000e+03 2.150196e-05
1.148000e+03 4.576195e-06
1.149000e+03 2.109398e-05
1.150000e+03 2.057737e-05
1.151000e+03 2.083054e-05
1.152000e+03 2.034838e-05
1.153000e+03 2.004691e-05
1.154000e+03 1.910789e-05
1.155000e+03 1.920253e-05
1.156000e+03 7.294568e-06
1.157000e+03 1.849197e-05
1.158000e+03 1.794903e-05
1.159000e+03 1.868390e-05
1.160000e+03 1.814331e-05
1.161000e+03 1.715117e-05
1.162000e+03 7.805111e-06
1.163000e+03 1.305245e-05
1.164000e+03 3.508558e-08
1.165000e+03 9.396164e-06
1.166000e+03 4.654956e-06
1.167000e+03 2.930754e-06
1.168000e+03 1.990325e-05
1.169000e+03 1.990631e-05
1.170000e+03 3.168535e-06
1.171000e+03 8.537052e-06
1.172000e+03 6.808698e-06
1.173000e+03 5.674444e-06
1.174000e+03 1.559662e-06
1.175000e+03 4.633148e-08
1.176000e+03 1.545914e-08
1.177000e+03 2.709515e-05
1.178000e+03 2.541850e-05
1.179000e+03 2.415131e-05
1.180000e+03 2.223155e-05
1.181000e+03 2.167891e-05
1.182000e+03 2.098397e-05
1.183000e+03 1.989374e-05
1.184000e+03 1.906883e-05
1.185000e+03 1.851288e-05
1.186000e+03 7.095670e-06
1.187000e+03 1.736358e-05
1.188000e+03 1.678684e-05
1.189000e+03 1.656736e-05
1.190000e+03 1.609437e-05
1.191000e+03 1.520524e-05
1.192000e+03 1.362288e-05
1.193000e+03 1.356827e-05
1.194000e+03 1.307985e-05
1.195000e+03 1.248899e-05
1.196000e+03 3.039480e-04
1.197000e+03 2.829219e-04
1.198000e+03 7.594806e-05
1.199000e+03 2.324263e-04
1.200000e+03 1.290347e-04
1.201000e+03 1.792499e-04
1.202000e+03 1.449375e-04
1.203000e+03 1.267353e-04
1.204000e+03 8.113368e-05
1.205000e+03 7.981243e-05
1.206000e+03 5.994318e-05
1.207000e+03 4.639791e-06
1.208000e+03 2.626267e-05
1.209000e+03 1.861218e-05
1.210000e+03 1.133767e-07
1.211000e+03 5.902652e-06
1.212000e+03 2.637297e-06
1.213000e+03 9.669322e-07
1.214000e+03 2.947337e-07
1.215000e+03 4.396576e-08
1.216000e+03 2.286718e-08
1.217000e+03 2.161449e-07
1.218000e+03 8.004906e-07
1.219000e+03 2.574862e-06
1.220000e+03 6.575171e-06
1.221000e+03 1.368621e-05
1.222000e+03 2.641421e-05
1.223000e+03 4.357346e-05
1.224000e+03 6.656485e-05
1.225000e+03 5.919980e-05
1.226000e+03 1.499792e-04
1.227000e+03 2.094992e-04
1.228000e+03 2.686806e-04
1.229000e+03 3.659626e-04
1.230000e+03 1.545205e-05
1.231000e+03 3.416598e-04
1.232000e+03 6.626177e-04
1.233000e+03 7.894761e-04
1.234000e+03 7.517570e-04
1.235000e+03 1.047822e-03
1.236000e+03 1.074964e-03
1.237000e+03 1.319933e-03
1.238000e+03 1.463365e-03
1.239000e+03 1.540771e-03
1.240000e+03 1.405402e-04
1.241000e+03 1.693436e-03
1.242000e+03 2.037577e-03
1.243000e+03 2.194602e-03
1.244000e+03 2.364399e-03
1.245000e+03 1.986646e-03
1.246000e+03 2.611400e-03
1.247000e+03 2.701325e-03
1.248000e+03 6.959215e-04
1.249000e+03 2.930909e-03
1.250000e+03 2.977939e-03
1.251000e+03 3.442775e-03
1.252000e+03 3.233579e-03
1.253000e+03 3.663813e-03
1.254000e+03 3.614387e-03
1.255000e+03 3.927649e-04
1.256000e+03 3.402040e-03
1.257000e+03 2.498877e-03
1.258000e+03 3.263757e-03
1.259000e+03 4.122333e-03
1.260000e+03 4.373707e-03
1.261000e+03 1.037819e-04
1.262000e+03 4.557250e-03
1.263000e+03 2.888807e-03
1.264000e+03 4.298314e-03
1.265000e+03 3.926933e-03
1.266000e+03 5.623631e-03
1.267000e+03 6.075993e-03
