# wavelength_A flux
5.000000e+02 3.125648e-14
5.010000e+02 3.645334e-14
5.020000e+02 4.248729e-14
5.030000e+02 4.948879e-14
5.040000e+02 5.760792e-14
5.050000e+02 6.504762e-14
5.060000e+02 7.565010e-14
5.070000e+02 8.792628e-14
5.080000e+02 1.021317e-13
5.090000e+02 1.185595e-13
5.100000e+02 1.375460e-13
5.110000e+02 1.594766e-13
5.120000e+02 1.847928e-13
5.130000e+02 2.139999e-13
5.140000e+02 2.476762e-13
5.150000e+02 2.864865e-13
5.160000e+02 3.311751e-13
5.170000e+02 3.826388e-13
5.180000e+02 4.417917e-13
5.190000e+02 5.098251e-13
5.200000e+02 5.879984e-13
5.210000e+02 6.777736e-13
5.220000e+02 7.809268e-13
5.230000e+02 8.990108e-13
5.240000e+02 1.034518e-12
5.250000e+02 1.189776e-12
5.260000e+02 1.367591e-12
5.270000e+02 1.571117e-12
5.280000e+02 1.803944e-12
5.290000e+02 2.070817e-12
5.300000e+02 2.374352e-12
5.310000e+02 2.721794e-12
5.320000e+02 3.118410e-12
5.330000e+02 3.570923e-12
5.340000e+02 4.086943e-12
5.350000e+02 4.675078e-12
5.360000e+02 5.345101e-12
5.370000e+02 6.193046e-12
5.380000e+02 6.976139e-12
5.390000e+02 7.963265e-12
5.400000e+02 9.085694e-12
5.410000e+02 1.036240e-11
5.420000e+02 1.180972e-11
5.430000e+02 1.345375e-11
5.440000e+02 1.531922e-11
5.450000e+02 1.743469e-11
5.460000e+02 1.983714e-11
5.470000e+02 2.254903e-11
5.480000e+02 2.562516e-11
5.490000e+02 2.910673e-11
5.500000e+02 3.304542e-11
5.510000e+02 3.749907e-11
5.520000e+02 4.253265e-11
5.530000e+02 4.821901e-11
5.540000e+02 5.463979e-11
5.550000e+02 6.188650e-11
5.560000e+02 7.006160e-11
5.570000e+02 7.927978e-11
5.580000e+02 8.966942e-11
5.590000e+02 1.013740e-10
5.600000e+02 1.145541e-10
5.610000e+02 1.293891e-10
5.620000e+02 1.460791e-10
5.630000e+02 1.648479e-10
5.640000e+02 1.859451e-10
5.650000e+02 2.096492e-10
5.660000e+02 2.362704e-10
5.670000e+02 2.661550e-10
5.680000e+02 2.996885e-10
5.690000e+02 3.373001e-10
5.700000e+02 3.794682e-10
5.710000e+02 4.267237e-10
5.720000e+02 4.796590e-10
5.730000e+02 5.389315e-10
5.740000e+02 6.052719e-10
5.750000e+02 6.794814e-10
5.760000e+02 7.625391e-10
5.770000e+02 8.552658e-10
5.780000e+02 9.589420e-10
5.790000e+02 1.074743e-09
5.800000e+02 1.204034e-09
5.810000e+02 1.348330e-09
5.820000e+02 1.509308e-09
5.830000e+02 1.688840e-09
5.840000e+02 1.889471e-09
5.850000e+02 2.112032e-09
5.860000e+02 2.360249e-09
5.870000e+02 2.636742e-09
5.880000e+02 2.944481e-09
5.890000e+02 3.286880e-09
5.900000e+02 3.667611e-09
5.910000e+02 4.090893e-09
5.920000e+02 4.561268e-09
5.930000e+02 5.083779e-09
5.940000e+02 5.663987e-09
5.950000e+02 6.308020e-09
5.960000e+02 7.022633e-09
5.970000e+02 7.815268e-09
5.980000e+02 8.694119e-09
5.990000e+02 9.668206e-09
6.000000e+02 1.074746e-08
6.010000e+02 1.194284e-08
6.020000e+02 1.326621e-08
6.030000e+02 1.473092e-08
6.040000e+02 1.635142e-08
6.050000e+02 1.814365e-08
6.060000e+02 2.012513e-08
6.070000e+02 2.231498e-08
6.080000e+02 2.473437e-08
6.090000e+02 2.740638e-08
6.100000e+02 3.035639e-08
6.110000e+02 3.361216e-08
6.120000e+02 3.720418e-08
6.130000e+02 4.116582e-08
6.140000e+02 4.553362e-08
6.150000e+02 5.034759e-08
6.160000e+02 5.565154e-08
6.170000e+02 6.149337e-08
6.180000e+02 6.792548e-08
6.190000e+02 7.500518e-08
6.200000e+02 8.279508e-08
6.210000e+02 9.136363e-08
6.220000e+02 1.007856e-07
6.230000e+02 1.111426e-07
6.240000e+02 1.225237e-07
6.250000e+02 1.350262e-07
6.260000e+02 1.487562e-07
6.270000e+02 1.638294e-07
6.280000e+02 1.803719e-07
6.290000e+02 1.985213e-07
6.300000e+02 2.184274e-07
6.310000e+02 2.403527e-07
6.320000e+02 2.641769e-07
6.330000e+02 2.903933e-07
6.340000e+02 3.191080e-07
6.350000e+02 3.505587e-07
6.360000e+02 3.849834e-07
6.370000e+02 4.226604e-07
6.380000e+02 4.638839e-07
6.390000e+02 5.089730e-07
6.400000e+02 5.582752e-07
6.410000e+02 6.121685e-07
6.420000e+02 6.710627e-07
6.430000e+02 7.354029e-07
6.440000e+02 8.056721e-07
6.450000e+02 8.823945e-07
6.460000e+02 9.661378e-07
6.470000e+02 1.057519e-06
6.480000e+02 1.157205e-06
6.490000e+02 1.265920e-06
6.500000e+02 1.384448e-06
6.510000e+02 1.513637e-06
6.520000e+02 1.654408e-06
6.530000e+02 1.807756e-06
6.540000e+02 1.974756e-06
6.550000e+02 2.156575e-06
6.560000e+02 2.354471e-06
6.570000e+02 2.569831e-06
6.580000e+02 2.804059e-06
6.590000e+02 3.058815e-06
6.600000e+02 3.335795e-06
6.610000e+02 3.636855e-06
6.620000e+02 3.964004e-06
6.630000e+02 4.319405e-06
6.640000e+02 4.705394e-06
6.650000e+02 5.124497e-06
6.660000e+02 5.579425e-06
6.670000e+02 6.073119e-06
6.680000e+02 6.608739e-06
6.690000e+02 7.189694e-06
6.700000e+02 7.819658e-06
6.710000e+02 8.502589e-06
6.720000e+02 9.242750e-06
6.730000e+02 1.004473e-05
6.740000e+02 1.091347e-05
6.750000e+02 1.185430e-05
6.760000e+02 1.287293e-05
6.770000e+02 1.397551e-05
6.780000e+02 1.516869e-05
6.790000e+02 1.645956e-05
6.800000e+02 1.785580e-05
6.810000e+02 1.936561e-05
6.820000e+02 2.099785e-05
6.830000e+02 2.276201e-05
6.840000e+02 2.466828e-05
6.850000e+02 2.672762e-05
6.860000e+02 2.895177e-05
6.870000e+02 3.135336e-05
6.880000e+02 3.394590e-05
6.890000e+02 3.674393e-05
6.900000e+02 3.976302e-05
6.910000e+02 4.301985e-05
6.920000e+02 4.653232e-05
6.930000e+02 5.031963e-05
6.940000e+02 5.440231e-05
6.950000e+02 5.880239e-05
6.960000e+02 6.354345e-05
6.970000e+02 6.865122e-05
6.980000e+02 7.415126e-05
6.990000e+02 8.007399e-05
7.000000e+02 8.644986e-05
7.010000e+02 9.331199e-05
7.020000e+02 1.006958e-04
7.030000e+02 1.086392e-04
7.040000e+02 1.171827e-04
7.050000e+02 1.263695e-04
7.060000e+02 1.362460e-04
7.070000e+02 1.468616e-04
7.080000e+02 1.582690e-04
7.090000e+02 1.705248e-04
7.100000e+02 1.836890e-04
7.110000e+02 1.978260e-04
7.120000e+02 2.130045e-04
7.130000e+02 2.292976e-04
7.140000e+02 2.467834e-04
7.150000e+02 2.655453e-04
7.160000e+02 2.856722e-04
7.170000e+02 3.072591e-04
7.180000e+02 3.304077e-04
7.190000e+02 3.552220e-04
7.200000e+02 3.818208e-04
7.210000e+02 4.103250e-04
7.220000e+02 4.408648e-04
7.230000e+02 4.735787e-04
7.240000e+02 5.086144e-04
7.250000e+02 5.461291e-04
7.260000e+02 5.862900e-04
7.270000e+02 6.292750e-04
7.280000e+02 6.752737e-04
7.290000e+02 7.244872e-04
7.300000e+02 7.771301e-04
7.310000e+02 8.334299e-04
7.320000e+02 8.936287e-04
7.330000e+02 9.579841e-04
7.340000e+02 1.026770e-03
7.350000e+02 1.100276e-03
7.360000e+02 1.178811e-03
7.370000e+02 1.262703e-03
7.380000e+02 1.352301e-03
7.390000e+02 1.447974e-03
7.400000e+02 1.550115e-03
7.410000e+02 1.659139e-03
7.420000e+02 1.775489e-03
7.430000e+02 1.899634e-03
7.440000e+02 2.032070e-03
7.450000e+02 2.173326e-03
7.460000e+02 2.323961e-03
7.470000e+02 2.484567e-03
7.480000e+02 2.655773e-03
7.490000e+02 2.838245e-03
7.500000e+02 3.032688e-03
7.510000e+02 3.239851e-03
7.520000e+02 3.460524e-03
7.530000e+02 3.695548e-03
7.540000e+02 3.945808e-03
7.550000e+02 4.212248e-03
7.560000e+02 4.495859e-03
7.570000e+02 4.797702e-03
7.580000e+02 5.118875e-03
7.590000e+02 5.460576e-03
7.600000e+02 5.824036e-03
7.610000e+02 6.210583e-03
7.620000e+02 6.621611e-03
7.630000e+02 7.058592e-03
7.640000e+02 7.523085e-03
7.650000e+02 8.016738e-03
7.660000e+02 8.541290e-03
7.670000e+02 9.098580e-03
7.680000e+02 9.690560e-03
7.690000e+02 1.031926e-02
7.700000e+02 1.098686e-02
7.710000e+02 1.169564e-02
7.720000e+02 1.244803e-02
7.730000e+02 1.324657e-02
7.740000e+02 1.409395e-02
7.750000e+02 1.499301e-02
7.760000e+02 1.594682e-02
7.770000e+02 1.695830e-02
7.780000e+02 1.803102e-02
7.790000e+02 1.916841e-02
7.800000e+02 2.037419e-02
7.810000e+02 2.165224e-02
7.820000e+02 2.300669e-02
7.830000e+02 2.444188e-02
7.840000e+02 2.596236e-02
7.850000e+02 2.757296e-02
7.860000e+02 2.927875e-02
7.870000e+02 3.108505e-02
7.880000e+02 3.299751e-02
7.890000e+02 3.502204e-02
7.900000e+02 3.716488e-02
7.910000e+02 3.943258e-02
7.920000e+02 4.183204e-02
7.930000e+02 4.437054e-02
7.940000e+02 4.705572e-02
7.950000e+02 4.989561e-02
7.960000e+02 5.289867e-02
7.970000e+02 5.607380e-02
7.980000e+02 5.943035e-02
7.990000e+02 6.297814e-02
8.000000e+02 6.672752e-02
8.010000e+02 7.068934e-02
8.020000e+02 7.487501e-02
8.030000e+02 7.929654e-02
8.040000e+02 8.396650e-02
8.050000e+02 8.889815e-02
8.060000e+02 9.410539e-02
8.070000e+02 9.960280e-02
8.080000e+02 1.054057e-01
8.090000e+02 1.115302e-01
8.100000e+02 1.179932e-01
8.110000e+02 1.248124e-01
8.120000e+02 1.320064e-01
8.130000e+02 1.395947e-01
8.140000e+02 1.475978e-01
8.150000e+02 1.560372e-01
8.160000e+02 1.649354e-01
8.170000e+02 1.743160e-01
8.180000e+02 1.842038e-01
8.190000e+02 1.946247e-01
8.200000e+02 2.056060e-01
8.210000e+02 2.171763e-01
8.220000e+02 2.293653e-01
8.230000e+02 2.422045e-01
8.240000e+02 2.557267e-01
8.250000e+02 2.699662e-01
8.260000e+02 2.849591e-01
8.270000e+02 3.007430e-01
8.280000e+02 3.173576e-01
8.290000e+02 3.348440e-01
8.300000e+02 3.532457e-01
8.310000e+02 3.726080e-01
8.320000e+02 3.929782e-01
8.330000e+02 4.144061e-01
8.340000e+02 4.369435e-01
8.350000e+02 4.606471e-01
8.360000e+02 4.855669e-01
8.370000e+02 5.117689e-01
8.380000e+02 5.393135e-01
8.390000e+02 5.682654e-01
8.400000e+02 5.986927e-01
8.410000e+02 6.306664e-01
8.420000e+02 6.642613e-01
8.430000e+02 6.995534e-01
8.440000e+02 7.366257e-01
8.450000e+02 7.755622e-01
8.460000e+02 8.164516e-01
8.470000e+02 8.593864e-01
8.480000e+02 9.044633e-01
8.490000e+02 9.517832e-01
8.500000e+02 1.001452e+00
8.510000e+02 1.053578e+00
8.520000e+02 1.108279e+00
8.530000e+02 1.165673e+00
8.540000e+02 1.225885e+00
8.550000e+02 1.289047e+00
8.560000e+02 1.355295e+00
8.570000e+02 1.424771e+00
8.580000e+02 1.497624e+00
8.590000e+02 1.574008e+00
8.600000e+02 1.654086e+00
8.610000e+02 1.738025e+00
8.620000e+02 1.826002e+00
8.630000e+02 1.918199e+00
8.640000e+02 2.014808e+00
8.650000e+02 2.116027e+00
8.660000e+02 2.222066e+00
8.670000e+02 2.333139e+00
8.680000e+02 2.449472e+00
8.690000e+02 2.571301e+00
8.700000e+02 2.698870e+00
8.710000e+02 2.832433e+00
8.720000e+02 2.972258e+00
8.730000e+02 3.118621e+00
8.740000e+02 3.271809e+00
8.750000e+02 3.432122e+00
8.760000e+02 3.599874e+00
8.770000e+02 3.775389e+00
8.780000e+02 3.959007e+00
8.790000e+02 4.151079e+00
8.800000e+02 4.351972e+00
8.810000e+02 4.562068e+00
8.820000e+02 4.781765e+00
8.830000e+02 5.011475e+00
8.840000e+02 5.251628e+00
8.850000e+02 5.502673e+00
8.860000e+02 5.765073e+00
8.870000e+02 6.039312e+00
8.880000e+02 6.325895e+00
8.890000e+02 6.625343e+00
8.900000e+02 6.938200e+00
8.910000e+02 7.265032e+00
8.920000e+02 7.606033e+00
8.930000e+02 7.962995e+00
8.940000e+02 8.335371e+00
8.950000e+02 8.724214e+00
8.960000e+02 9.130210e+00
8.970000e+02 9.554070e+00
8.980000e+02 9.996535e+00
8.990000e+02 1.045837e+01
9.000000e+02 1.094038e+01
9.010000e+02 1.144339e+01
9.020000e+02 1.196826e+01
9.030000e+02 1.251587e+01
9.040000e+02 1.308718e+01
9.050000e+02 1.368312e+01
9.060000e+02 1.430471e+01
9.070000e+02 1.495297e+01
9.080000e+02 1.562900e+01
9.090000e+02 1.633390e+01
9.100000e+02 1.706883e+01
9.110000e+02 1.783500e+01
9.120000e+02 1.863367e+01
9.130000e+02 1.944665e+01
9.140000e+02 2.017439e+01
9.150000e+02 9.003270e+01
9.160000e+02 3.222190e+02
9.170000e+02 2.041723e+02
9.180000e+02 2.514665e+02
9.190000e+02 6.126657e+02
9.200000e+02 7.282235e+02
9.210000e+02 2.747965e+01
9.220000e+02 7.488971e+02
9.230000e+02 2.437722e+02
9.240000e+02 3.907191e+02
9.250000e+02 6.360197e+02
9.260000e+02 6.007869e+02
9.270000e+02 3.317444e+02
9.280000e+02 1.014332e+03
9.290000e+02 8.910891e+02
9.300000e+02 1.041006e+03
9.310000e+02 3.055502e+02
9.320000e+02 1.164253e+03
9.330000e+02 1.037248e+03
9.340000e+02 9.025267e+02
9.350000e+02 3.161588e+01
9.360000e+02 4.219251e+02
9.370000e+02 3.162736e+01
9.380000e+02 2.950362e+02
9.390000e+02 5.835965e+02
9.400000e+02 1.517978e+03
9.410000e+02 1.920700e+02
9.420000e+02 1.634716e+03
9.430000e+02 7.754667e+02
9.440000e+02 1.252441e+03
9.450000e+02 1.805471e+03
9.460000e+02 1.692023e+03
9.470000e+02 2.347402e+02
9.480000e+02 1.750389e+03
9.490000e+02 1.935502e+03
9.500000e+02 5.867145e+01
9.510000e+02 1.783324e+03
9.520000e+02 2.031827e+03
9.530000e+02 3.295005e+02
9.540000e+02 2.514837e+02
9.550000e+02 1.577113e+03
9.560000e+02 2.435453e+03
9.570000e+02 4.172777e+02
9.580000e+02 1.294370e+02
9.590000e+02 2.882193e+03
9.600000e+02 8.094336e+01
9.610000e+02 2.588601e+03
9.620000e+02 2.105545e+03
9.630000e+02 1.970026e+03
9.640000e+02 1.454827e+02
9.650000e+02 4.385956e+02
9.660000e+02 2.039634e+03
9.670000e+02 9.854561e+02
9.680000e+02 5.768176e+02
9.690000e+02 2.985816e+03
9.700000e+02 2.850681e+03
9.710000e+02 9.798828e+02
9.720000e+02 1.292104e+03
9.730000e+02 3.129986e+03
9.740000e+02 3.537327e+03
9.750000e+02 2.710230e+03
9.760000e+02 4.738598e+03
9.770000e+02 4.648977e+03
9.780000e+02 3.811115e+03
9.790000e+02 5.504479e+03
9.800000e+02 5.681567e+03
9.810000e+02 4.391613e+03
9.820000e+02 2.320917e+03
9.830000e+02 6.138398e+03
9.840000e+02 7.052730e+02
9.850000e+02 4.048988e+03
9.860000e+02 4.099810e+03
9.870000e+02 6.956595e+03
9.880000e+02 7.620259e+02
9.890000e+02 4.673767e+03
9.900000e+02 2.824649e+02
9.910000e+02 1.593007e+03
9.920000e+02 3.807762e+02
9.930000e+02 7.744421e+03
9.940000e+02 3.776870e+02
9.950000e+02 5.592651e+02
9.960000e+02 1.394062e+03
9.970000e+02 4.380735e+02
9.980000e+02 8.800657e+03
9.990000e+02 2.180029e+03
1.000000e+03 1.019063e+04
1.001000e+03 1.090284e+04
1.002000e+03 1.108838e+04
1.003000e+03 4.197883e+03
1.004000e+03 1.376680e+03
1.005000e+03 5.712940e+03
1.006000e+03 1.233329e+04
1.007000e+03 1.293119e+04
1.008000e+03 1.260961e+04
1.009000e+03 5.841807e+03
1.010000e+03 1.337497e+04
1.011000e+03 1.439771e+04
1.012000e+03 1.413365e+04
1.013000e+03 1.424101e+04
1.014000e+03 7.461963e+02
1.015000e+03 1.447355e+03
1.016000e+03 6.406913e+03
1.017000e+03 8.189287e+02
1.018000e+03 6.702713e+03
1.019000e+03 1.617197e+03
1.020000e+03 1.853372e+04
1.021000e+03 2.833462e+03
1.022000e+03 6.255578e+03
1.023000e+03 1.981494e+03
1.024000e+03 1.743245e+04
1.025000e+03 9.405454e+02
1.026000e+03 1.502345e+03
1.027000e+03 1.322866e+04
1.028000e+03 1.001443e+03
1.029000e+03 1.261027e+03
1.030000e+03 1.806862e+04
1.031000e+03 1.409655e+04
1.032000e+03 2.381935e+04
1.033000e+03 1.661084e+03
1.034000e+03 2.072277e+04
1.035000e+03 1.385373e+03
1.036000e+03 1.696732e+03
1.037000e+03 2.790811e+04
1.038000e+03 3.138820e+04
1.039000e+03 2.999421e+04
1.040000e+03 3.148938e+04
1.041000e+03 3.419406e+04
1.042000e+03 3.468170e+04
1.043000e+03 3.143202e+04
1.044000e+03 3.767531e+04
1.045000e+03 3.612377e+04
1.046000e+03 3.834961e+04
1.047000e+03 2.845247e+04
1.048000e+03 6.513195e+03
1.049000e+03 3.428516e+04
1.050000e+03 2.933065e+04
1.051000e+03 2.288608e+04
1.052000e+03 4.505640e+04
1.053000e+03 4.756180e+04
1.054000e+03 2.710992e+03
1.055000e+03 5.074807e+04
1.056000e+03 5.220550e+04
1.057000e+03 4.332163e+04
1.058000e+03 3.215341e+04
1.059000e+03 1.506948e+04
1.060000e+03 9.451910e+03
1.061000e+03 4.996250e+04
1.062000e+03 2.477119e+04
1.063000e+03 9.983110e+03
1.064000e+03 3.976461e+03
1.065000e+03 4.101293e+03
1.066000e+03 5.346932e+04
1.067000e+03 1.411339e+04
1.068000e+03 7.245680e+04
1.069000e+03 7.210898e+03
1.070000e+03 6.160551e+04
1.071000e+03 7.773982e+04
1.072000e+03 7.949173e+04
1.073000e+03 6.064969e+03
1.074000e+03 5.815596e+04
1.075000e+03 5.026380e+04
1.076000e+03 8.850431e+04
1.077000e+03 1.115810e+04
1.078000e+03 4.186637e+04
1.079000e+03 6.687372e+04
1.080000e+03 7.740878e+04
1.081000e+03 9.128066e+04
1.082000e+03 9.073968e+04
1.083000e+03 8.508080e+04
1.084000e+03 1.096179e+05
1.085000e+03 5.316241e+04
1.086000e+03 1.151234e+05
1.087000e+03 2.821562e+04
1.088000e+03 1.208656e+05
1.089000e+03 1.245387e+05
1.090000e+03 6.016752e+04
1.091000e+03 6.120770e+04
1.092000e+03 1.330229e+05
1.093000e+03 1.362141e+05
1.094000e+03 1.259471e+05
1.095000e+03 1.438862e+05
1.096000e+03 8.801809e+04
1.097000e+03 1.383632e+05
1.098000e+03 1.542860e+05
1.099000e+03 1.173035e+05
1.100000e+03 2.291533e+04
1.101000e+03 3.676974e+04
1.102000e+03 1.118035e+05
1.103000e+03 6.206348e+05
1.104000e+03 3.464524e+05
1.105000e+03 1.715567e+05
1.106000e+03 4.232705e+05
1.107000e+03 2.322406e+04
1.108000e+03 7.171049e+05
1.109000e+03 9.613794e+04
1.110000e+03 4.707058e+05
1.111000e+03 3.573790e+05
1.112000e+03 6.254421e+05
1.113000e+03 9.139942e+05
1.114000e+03 1.222302e+05
1.115000e+03 1.782543e+05
1.116000e+03 1.314395e+05
1.117000e+03 1.139286e+05
1.118000e+03 1.352546e+05
1.119000e+03 7.966254e+05
1.120000e+03 1.343421e+05
1.121000e+03 9.683338e+05
1.122000e+03 2.825762e+04
1.123000e+03 4.987581e+05
1.124000e+03 1.099712e+06
1.125000e+03 8.386310e+05
1.126000e+03 1.254936e+06
1.127000e+03 1.169027e+06
1.128000e+03 5.980544e+05
1.129000e+03 9.537481e+05
1.130000e+03 1.237332e+06
1.131000e+03 1.299562e+06
1.132000e+03 5.387700e+04
1.133000e+03 2.746470e+05
1.134000e+03 9.967082e+05
1.135000e+03 4.401272e+04
1.136000e+03 5.750548e+05
1.137000e+03 1.425370e+06
1.138000e+03 1.018135e+06
1.139000e+03 1.526216e+06
1.140000e+03 3.623870e+04
1.141000e+03 1.537452e+06
1.142000e+03 1.640222e+06
1.143000e+03 1.425146e+06
1.144000e+03 1.695093e+06
1.145000e+03 1.008076e+05
1.146000e+03 1.781693e+06
1.147000e+03 1.742459e+06
1.148000e+03 3.212798e+05
1.149000e+03 1.735540e+06
1.150000e+03 1.503712e+06
1.151000e+03 1.931058e+06
1.152000e+03 1.909400e+06
1.153000e+03 1.279016e+06
1.154000e+03 1.973447e+06
1.155000e+03 1.787830e+06
1.156000e+03 1.708999e+06
1.157000e+03 2.088505e+06
1.158000e+03 1.388314e+05
1.159000e+03 2.078578e+06
1.160000e+03 1.541261e+06
1.161000e+03 2.240752e+06
1.162000e+03 5.425962e+05
1.163000e+03 1.223140e+06
1.164000e+03 5.940912e+04
1.165000e+03 2.364084e+06
1.166000e+03 2.219941e+06
1.167000e+03 2.204346e+06
1.168000e+03 2.599299e+06
1.169000e+03 2.608860e+06
1.170000e+03 2.380900e+06
1.171000e+03 2.597991e+06
1.172000e+03 1.923730e+06
1.173000e+03 2.835029e+06
1.174000e+03 3.737361e+05
1.175000e+03 8.257125e+04
1.176000e+03 1.008895e+05
1.177000e+03 3.085800e+06
1.178000e+03 3.122955e+06
1.179000e+03 3.130927e+06
1.180000e+03 2.351130e+06
1.181000e+03 3.297879e+06
1.182000e+03 3.259712e+06
1.183000e+03 3.015572e+06
1.184000e+03 2.917795e+06
1.185000e+03 3.267654e+06
1.186000e+03 1.246185e+06
1.187000e+03 3.411304e+06
1.188000e+03 2.527056e+06
1.189000e+03 1.266368e+05
1.190000e+03 2.469490e+06
1.191000e+03 3.503695e+06
1.192000e+03 3.794119e+06
1.193000e+03 1.882763e+05
1.194000e+03 1.441265e+05
1.195000e+03 3.520429e+06
1.196000e+03 3.883315e+06
1.197000e+03 5.682136e+06
1.198000e+03 2.474333e+06
1.199000e+03 5.611004e+06
1.200000e+03 3.030572e+06
1.201000e+03 5.411214e+06
1.202000e+03 4.311904e+06
1.203000e+03 6.281799e+06
1.204000e+03 2.708793e+06
1.205000e+03 5.510469e+06
1.206000e+03 5.539548e+06
1.207000e+03 6.987065e+05
1.208000e+03 4.241556e+06
1.209000e+03 3.431589e+06
1.210000e+03 2.202095e+05
1.211000e+03 1.904991e+06
1.212000e+03 1.107295e+06
1.213000e+03 6.065183e+05
1.214000e+03 2.853938e+05
1.215000e+03 2.210445e+05
1.216000e+03 2.826440e+05
1.217000e+03 2.496445e+05
1.218000e+03 5.191842e+05
1.219000e+03 1.091226e+06
1.220000e+03 1.513438e+06
1.221000e+03 2.991167e+06
1.222000e+03 3.999081e+06
1.223000e+03 5.098362e+06
1.224000e+03 6.217472e+06
1.225000e+03 2.666154e+06
1.226000e+03 8.660150e+06
1.227000e+03 9.406646e+06
1.228000e+03 6.437571e+06
1.229000e+03 1.031120e+07
1.230000e+03 1.004342e+07
1.231000e+03 6.264356e+06
1.232000e+03 1.333637e+07
1.233000e+03 1.412765e+07
1.234000e+03 1.003964e+07
1.235000e+03 1.493466e+07
1.236000e+03 8.704821e+06
1.237000e+03 1.614314e+07
1.238000e+03 1.598432e+07
1.239000e+03 1.575217e+07
1.240000e+03 1.081841e+07
1.241000e+03 1.581491e+07
1.242000e+03 1.698923e+07
1.243000e+03 1.914775e+07
1.244000e+03 1.736498e+07
1.245000e+03 1.860050e+07
1.246000e+03 1.995969e+07
1.247000e+03 2.051400e+07
1.248000e+03 1.597689e+07
1.249000e+03 2.044633e+07
1.250000e+03 1.857386e+07
1.251000e+03 2.360332e+07
1.252000e+03 2.268380e+07
1.253000e+03 2.445983e+07
1.254000e+03 2.388939e+07
1.255000e+03 2.482015e+07
1.256000e+03 2.413355e+07
1.257000e+03 2.363814e+07
1.258000e+03 2.226976e+07
1.259000e+03 2.556238e+07
1.260000e+03 2.717096e+07
1.261000e+03 8.482940e+05
1.262000e+03 1.984673e+07
1.263000e+03 2.823972e+07
1.264000e+03 2.575314e+07
1.265000e+03 9.975760e+05
1.266000e+03 3.010751e+07
1.267000e+03 2.776911e+07
