# wavelength_A flux
5.000000e+02 1.764753e-15
5.010000e+02 2.068885e-15
5.020000e+02 2.423847e-15
5.030000e+02 2.837869e-15
5.040000e+02 3.320470e-15
5.050000e+02 3.988026e-15
5.060000e+02 4.659516e-15
5.070000e+02 5.440629e-15
5.080000e+02 6.348698e-15
5.090000e+02 7.403767e-15
5.100000e+02 8.628718e-15
5.110000e+02 1.005020e-14
5.120000e+02 1.169863e-14
5.130000e+02 1.360915e-14
5.140000e+02 1.582208e-14
5.150000e+02 1.838352e-14
5.160000e+02 2.134741e-14
5.170000e+02 2.477302e-14
5.180000e+02 2.873375e-14
5.190000e+02 3.330670e-14
5.200000e+02 3.858483e-14
5.210000e+02 4.467331e-14
5.220000e+02 5.168656e-14
5.230000e+02 5.978043e-14
5.240000e+02 6.909463e-14
5.250000e+02 7.981466e-14
5.260000e+02 9.214547e-14
5.270000e+02 1.063215e-13
5.280000e+02 1.226099e-13
5.290000e+02 1.412776e-13
5.300000e+02 1.627841e-13
5.310000e+02 1.874119e-13
5.320000e+02 2.156484e-13
5.330000e+02 2.480037e-13
5.340000e+02 2.850594e-13
5.350000e+02 3.274757e-13
5.360000e+02 3.760000e-13
5.370000e+02 4.255650e-13
5.380000e+02 4.949002e-13
5.390000e+02 5.673339e-13
5.400000e+02 6.500560e-13
5.410000e+02 7.443741e-13
5.420000e+02 8.520588e-13
5.430000e+02 9.747631e-13
5.440000e+02 1.114560e-12
5.450000e+02 1.273760e-12
5.460000e+02 1.454705e-12
5.470000e+02 1.661114e-12
5.480000e+02 1.895522e-12
5.490000e+02 2.161943e-12
5.500000e+02 2.464586e-12
5.510000e+02 2.808222e-12
5.520000e+02 3.198207e-12
5.530000e+02 3.640581e-12
5.540000e+02 4.142145e-12
5.550000e+02 4.710545e-12
5.560000e+02 5.354386e-12
5.570000e+02 6.083337e-12
5.580000e+02 6.908264e-12
5.590000e+02 7.841370e-12
5.600000e+02 8.896352e-12
5.610000e+02 1.008858e-11
5.620000e+02 1.143530e-11
5.630000e+02 1.295583e-11
5.640000e+02 1.467183e-11
5.650000e+02 1.660751e-11
5.660000e+02 1.879018e-11
5.670000e+02 2.125005e-11
5.680000e+02 2.402125e-11
5.690000e+02 2.714172e-11
5.700000e+02 3.065395e-11
5.710000e+02 3.460550e-11
5.720000e+02 3.904927e-11
5.730000e+02 4.404448e-11
5.740000e+02 4.965714e-11
5.750000e+02 5.596186e-11
5.760000e+02 6.302910e-11
5.770000e+02 7.098063e-11
5.780000e+02 7.988893e-11
5.790000e+02 8.987728e-11
5.800000e+02 1.010719e-10
5.810000e+02 1.136134e-10
5.820000e+02 1.276577e-10
5.830000e+02 1.433773e-10
5.840000e+02 1.609183e-10
5.850000e+02 1.806329e-10
5.860000e+02 2.026439e-10
5.870000e+02 2.272306e-10
5.880000e+02 2.546968e-10
5.890000e+02 2.853625e-10
5.900000e+02 3.196047e-10
5.910000e+02 3.578054e-10
5.920000e+02 4.004174e-10
5.930000e+02 4.479264e-10
5.940000e+02 5.008763e-10
5.950000e+02 5.598629e-10
5.960000e+02 6.255653e-10
5.970000e+02 6.987030e-10
5.980000e+02 7.800928e-10
5.990000e+02 8.706318e-10
6.000000e+02 9.713107e-10
6.010000e+02 1.082944e-09
6.020000e+02 1.207577e-09
6.030000e+02 1.345703e-09
6.040000e+02 1.499075e-09
6.050000e+02 1.669308e-09
6.060000e+02 1.858187e-09
6.070000e+02 2.067684e-09
6.080000e+02 2.299961e-09
6.090000e+02 2.557405e-09
6.100000e+02 2.842635e-09
6.110000e+02 3.158558e-09
6.120000e+02 3.508331e-09
6.130000e+02 3.895454e-09
6.140000e+02 4.323765e-09
6.150000e+02 4.797484e-09
6.160000e+02 5.321241e-09
6.170000e+02 5.900124e-09
6.180000e+02 6.539717e-09
6.190000e+02 7.246144e-09
6.200000e+02 8.026127e-09
6.210000e+02 8.887034e-09
6.220000e+02 9.836942e-09
6.230000e+02 1.088470e-08
6.240000e+02 1.204001e-08
6.250000e+02 1.331349e-08
6.260000e+02 1.471675e-08
6.270000e+02 1.626253e-08
6.280000e+02 1.796475e-08
6.290000e+02 1.983862e-08
6.300000e+02 2.190080e-08
6.310000e+02 2.416676e-08
6.320000e+02 2.666452e-08
6.330000e+02 2.940739e-08
6.340000e+02 3.242262e-08
6.350000e+02 3.573519e-08
6.360000e+02 3.936142e-08
6.370000e+02 4.336927e-08
6.380000e+02 4.775506e-08
6.390000e+02 5.256791e-08
6.400000e+02 5.784779e-08
6.410000e+02 6.363823e-08
6.420000e+02 6.998671e-08
6.430000e+02 7.694486e-08
6.440000e+02 8.456895e-08
6.450000e+02 9.292016e-08
6.460000e+02 1.020652e-07
6.470000e+02 1.120765e-07
6.480000e+02 1.230328e-07
6.490000e+02 1.350199e-07
6.500000e+02 1.481308e-07
6.510000e+02 1.624668e-07
6.520000e+02 1.781379e-07
6.530000e+02 1.952632e-07
6.540000e+02 2.139725e-07
6.550000e+02 2.344064e-07
6.560000e+02 2.567174e-07
6.570000e+02 2.810654e-07
6.580000e+02 3.076473e-07
6.590000e+02 3.366402e-07
6.600000e+02 3.682592e-07
6.610000e+02 4.027380e-07
6.620000e+02 4.403192e-07
6.630000e+02 4.812724e-07
6.640000e+02 5.258883e-07
6.650000e+02 5.744794e-07
6.660000e+02 6.273902e-07
6.670000e+02 6.849843e-07
6.680000e+02 7.476611e-07
6.690000e+02 8.158507e-07
6.700000e+02 8.900183e-07
6.710000e+02 9.706663e-07
6.720000e+02 1.058338e-06
6.730000e+02 1.153620e-06
6.740000e+02 1.257145e-06
6.750000e+02 1.369598e-06
6.760000e+02 1.491716e-06
6.770000e+02 1.624296e-06
6.780000e+02 1.768197e-06
6.790000e+02 1.924345e-06
6.800000e+02 2.093741e-06
6.810000e+02 2.277461e-06
6.820000e+02 2.476666e-06
6.830000e+02 2.692606e-06
6.840000e+02 2.926629e-06
6.850000e+02 3.180169e-06
6.860000e+02 3.454839e-06
6.870000e+02 3.752264e-06
6.880000e+02 4.074287e-06
6.890000e+02 4.422839e-06
6.900000e+02 4.800019e-06
6.910000e+02 5.208081e-06
6.920000e+02 5.649445e-06
6.930000e+02 6.126714e-06
6.940000e+02 6.642685e-06
6.950000e+02 7.200363e-06
6.960000e+02 7.802977e-06
6.970000e+02 8.453901e-06
6.980000e+02 9.157132e-06
6.990000e+02 9.916390e-06
7.000000e+02 1.073605e-05
7.010000e+02 1.162073e-05
7.020000e+02 1.257534e-05
7.030000e+02 1.360518e-05
7.040000e+02 1.471593e-05
7.050000e+02 1.591367e-05
7.060000e+02 1.720489e-05
7.070000e+02 1.859666e-05
7.080000e+02 2.009638e-05
7.090000e+02 2.171196e-05
7.100000e+02 2.345235e-05
7.110000e+02 2.532638e-05
7.120000e+02 2.734400e-05
7.130000e+02 2.951573e-05
7.140000e+02 3.185282e-05
7.150000e+02 3.436731e-05
7.160000e+02 3.707213e-05
7.170000e+02 3.998087e-05
7.180000e+02 4.310819e-05
7.190000e+02 4.647074e-05
7.200000e+02 5.008420e-05
7.210000e+02 5.396693e-05
7.220000e+02 5.813810e-05
7.230000e+02 6.261821e-05
7.240000e+02 6.742911e-05
7.250000e+02 7.259415e-05
7.260000e+02 7.813796e-05
7.270000e+02 8.408794e-05
7.280000e+02 9.047164e-05
7.290000e+02 9.731956e-05
7.300000e+02 1.046639e-04
7.310000e+02 1.125392e-04
7.320000e+02 1.209819e-04
7.330000e+02 1.300312e-04
7.340000e+02 1.397287e-04
7.350000e+02 1.501187e-04
7.360000e+02 1.612484e-04
7.370000e+02 1.731683e-04
7.380000e+02 1.859316e-04
7.390000e+02 1.995955e-04
7.400000e+02 2.142199e-04
7.410000e+02 2.298716e-04
7.420000e+02 2.466159e-04
7.430000e+02 2.645298e-04
7.440000e+02 2.836878e-04
7.450000e+02 3.041736e-04
7.460000e+02 3.260751e-04
7.470000e+02 3.494854e-04
7.480000e+02 3.745038e-04
7.490000e+02 4.012357e-04
7.500000e+02 4.297931e-04
7.510000e+02 4.602949e-04
7.520000e+02 4.928672e-04
7.530000e+02 5.276443e-04
7.540000e+02 5.647684e-04
7.550000e+02 6.043905e-04
7.560000e+02 6.466710e-04
7.570000e+02 6.917625e-04
7.580000e+02 7.398975e-04
7.590000e+02 7.912129e-04
7.600000e+02 8.459367e-04
7.610000e+02 9.042757e-04
7.620000e+02 9.664616e-04
7.630000e+02 1.032735e-03
7.640000e+02 1.103352e-03
7.650000e+02 1.178583e-03
7.660000e+02 1.258719e-03
7.670000e+02 1.344062e-03
7.680000e+02 1.434927e-03
7.690000e+02 1.531676e-03
7.700000e+02 1.634651e-03
7.710000e+02 1.744241e-03
7.720000e+02 1.860850e-03
7.730000e+02 1.984906e-03
7.740000e+02 2.116862e-03
7.750000e+02 2.257199e-03
7.760000e+02 2.406133e-03
7.770000e+02 2.565065e-03
7.780000e+02 2.733699e-03
7.790000e+02 2.912919e-03
7.800000e+02 3.103359e-03
7.810000e+02 3.305688e-03
7.820000e+02 3.520611e-03
7.830000e+02 3.748875e-03
7.840000e+02 3.991270e-03
7.850000e+02 4.248626e-03
7.860000e+02 4.521814e-03
7.870000e+02 4.811794e-03
7.880000e+02 5.119504e-03
7.890000e+02 5.445995e-03
7.900000e+02 5.792357e-03
7.910000e+02 6.159739e-03
7.920000e+02 6.549356e-03
7.930000e+02 6.962486e-03
7.940000e+02 7.400480e-03
7.950000e+02 7.864761e-03
7.960000e+02 8.356828e-03
7.970000e+02 8.878263e-03
7.980000e+02 9.430732e-03
7.990000e+02 1.001599e-02
8.000000e+02 1.063589e-02
8.010000e+02 1.129235e-02
8.020000e+02 1.198750e-02
8.030000e+02 1.272343e-02
8.040000e+02 1.350244e-02
8.050000e+02 1.432692e-02
8.060000e+02 1.519940e-02
8.070000e+02 1.612253e-02
8.080000e+02 1.709911e-02
8.090000e+02 1.813207e-02
8.100000e+02 1.922451e-02
8.110000e+02 2.037967e-02
8.120000e+02 2.160098e-02
8.130000e+02 2.289205e-02
8.140000e+02 2.425664e-02
8.150000e+02 2.569874e-02
8.160000e+02 2.722252e-02
8.170000e+02 2.883235e-02
8.180000e+02 3.053294e-02
8.190000e+02 3.232904e-02
8.200000e+02 3.422578e-02
8.210000e+02 3.622850e-02
8.220000e+02 3.834285e-02
8.230000e+02 4.057470e-02
8.240000e+02 4.293027e-02
8.250000e+02 4.541606e-02
8.260000e+02 4.803890e-02
8.270000e+02 5.080595e-02
8.280000e+02 5.372474e-02
8.290000e+02 5.680316e-02
8.300000e+02 6.004949e-02
8.310000e+02 6.347243e-02
8.320000e+02 6.708106e-02
8.330000e+02 7.088497e-02
8.340000e+02 7.489414e-02
8.350000e+02 7.911510e-02
8.360000e+02 8.357063e-02
8.370000e+02 8.826094e-02
8.380000e+02 9.320014e-02
8.390000e+02 9.840507e-02
8.400000e+02 1.038851e-01
8.410000e+02 1.096554e-01
8.420000e+02 1.157294e-01
8.430000e+02 1.221258e-01
8.440000e+02 1.288572e-01
8.450000e+02 1.359414e-01
8.460000e+02 1.433960e-01
8.470000e+02 1.512393e-01
8.480000e+02 1.594905e-01
8.490000e+02 1.681697e-01
8.500000e+02 1.772979e-01
8.510000e+02 1.868971e-01
8.520000e+02 1.969901e-01
8.530000e+02 2.076017e-01
8.540000e+02 2.187569e-01
8.550000e+02 2.304811e-01
8.560000e+02 2.428025e-01
8.570000e+02 2.557499e-01
8.580000e+02 2.693532e-01
8.590000e+02 2.836441e-01
8.600000e+02 2.986553e-01
8.610000e+02 3.144212e-01
8.620000e+02 3.309778e-01
8.630000e+02 3.483621e-01
8.640000e+02 3.666144e-01
8.650000e+02 3.857738e-01
8.660000e+02 4.058859e-01
8.670000e+02 4.269928e-01
8.680000e+02 4.491419e-01
8.690000e+02 4.723820e-01
8.700000e+02 4.967638e-01
8.710000e+02 5.223403e-01
8.720000e+02 5.491670e-01
8.730000e+02 5.773015e-01
8.740000e+02 6.068043e-01
8.750000e+02 6.377379e-01
8.760000e+02 6.701683e-01
8.770000e+02 7.041623e-01
8.780000e+02 7.397957e-01
8.790000e+02 7.771385e-01
8.800000e+02 8.162698e-01
8.810000e+02 8.572705e-01
8.820000e+02 9.002249e-01
8.830000e+02 9.452212e-01
8.840000e+02 9.923508e-01
8.850000e+02 1.041709e+00
8.860000e+02 1.093396e+00
8.870000e+02 1.147516e+00
8.880000e+02 1.204175e+00
8.890000e+02 1.263488e+00
8.900000e+02 1.325570e+00
8.910000e+02 1.390545e+00
8.920000e+02 1.457641e+00
8.930000e+02 1.529686e+00
8.940000e+02 1.604122e+00
8.950000e+02 1.681991e+00
8.960000e+02 1.763444e+00
8.970000e+02 1.848634e+00
8.980000e+02 1.937725e+00
8.990000e+02 2.030885e+00
9.000000e+02 2.128289e+00
9.010000e+02 2.230118e+00
9.020000e+02 2.336564e+00
9.030000e+02 2.447823e+00
9.040000e+02 2.564098e+00
9.050000e+02 2.685607e+00
9.060000e+02 2.812576e+00
9.070000e+02 2.945198e+00
9.080000e+02 3.083800e+00
9.090000e+02 3.228549e+00
9.100000e+02 3.379731e+00
9.110000e+02 3.537624e+00
9.120000e+02 3.702539e+00
9.130000e+02 3.854681e+00
9.140000e+02 4.135035e+00
9.150000e+02 2.659205e+01
9.160000e+02 3.609699e+01
9.170000e+02 3.757040e+01
9.180000e+02 3.904570e+01
9.190000e+02 4.070971e+01
9.200000e+02 4.235997e+01
9.210000e+02 5.520777e+00
9.220000e+02 4.580389e+01
9.230000e+02 4.752967e+01
9.240000e+02 4.851352e+01
9.250000e+02 5.100343e+01
9.260000e+02 5.347071e+01
9.270000e+02 5.567671e+01
9.280000e+02 5.795121e+01
9.290000e+02 5.895193e+01
9.300000e+02 6.198302e+01
9.310000e+02 6.457774e+01
9.320000e+02 6.766913e+01
9.330000e+02 7.023769e+01
9.340000e+02 7.297745e+01
9.350000e+02 2.189870e+01
9.360000e+02 7.405523e+01
9.370000e+02 1.820841e+01
9.380000e+02 3.896415e+01
9.390000e+02 8.823090e+01
9.400000e+02 9.184273e+01
9.410000e+02 3.724241e+01
9.420000e+02 9.908302e+01
9.430000e+02 1.025463e+02
9.440000e+02 8.991317e+01
9.450000e+02 1.108719e+02
9.460000e+02 1.150994e+02
9.470000e+02 9.046162e+01
9.480000e+02 8.704657e+01
9.490000e+02 1.279465e+02
9.500000e+02 2.922378e+01
9.510000e+02 1.371246e+02
9.520000e+02 1.439871e+02
9.530000e+02 1.475321e+02
9.540000e+02 1.339849e+02
9.550000e+02 1.609064e+02
9.560000e+02 9.872872e+01
9.570000e+02 1.178090e+02
9.580000e+02 1.753864e+02
9.590000e+02 1.870781e+02
9.600000e+02 4.691794e+01
9.610000e+02 2.005168e+02
9.620000e+02 2.086057e+02
9.630000e+02 2.163135e+02
9.640000e+02 3.620865e+01
9.650000e+02 2.174914e+02
9.660000e+02 2.410979e+02
9.670000e+02 2.476924e+02
9.680000e+02 2.572293e+02
9.690000e+02 2.673744e+02
9.700000e+02 2.778022e+02
9.710000e+02 2.855744e+02
9.720000e+02 2.799713e+02
9.730000e+02 2.852636e+02
9.740000e+02 3.171178e+02
9.750000e+02 3.316142e+02
9.760000e+02 3.442181e+02
9.770000e+02 3.570177e+02
9.780000e+02 3.690734e+02
9.790000e+02 3.832516e+02
9.800000e+02 3.967650e+02
9.810000e+02 4.109762e+02
9.820000e+02 4.247501e+02
9.830000e+02 4.406353e+02
9.840000e+02 2.546774e+02
9.850000e+02 4.720475e+02
9.860000e+02 4.885705e+02
9.870000e+02 5.061579e+02
9.880000e+02 5.180457e+02
9.890000e+02 4.974309e+02
9.900000e+02 1.247520e+02
9.910000e+02 5.755614e+02
9.920000e+02 5.272978e+02
9.930000e+02 5.927670e+02
9.940000e+02 1.364399e+02
9.950000e+02 2.831062e+02
9.960000e+02 6.687735e+02
9.970000e+02 1.851006e+02
9.980000e+02 7.351266e+02
9.990000e+02 7.492424e+02
1.000000e+03 7.874048e+02
1.001000e+03 8.145624e+02
1.002000e+03 8.421332e+02
1.003000e+03 8.557479e+02
1.004000e+03 8.930244e+02
1.005000e+03 9.034608e+02
1.006000e+03 9.619321e+02
1.007000e+03 9.916156e+02
1.008000e+03 1.025642e+03
1.009000e+03 1.054481e+03
1.010000e+03 1.097237e+03
1.011000e+03 1.133728e+03
1.012000e+03 1.171297e+03
1.013000e+03 1.210016e+03
1.014000e+03 1.200747e+03
1.015000e+03 1.270277e+03
1.016000e+03 1.330203e+03
1.017000e+03 1.327278e+03
1.018000e+03 1.418229e+03
1.019000e+03 1.449622e+03
1.020000e+03 1.511766e+03
1.021000e+03 8.123845e+02
1.022000e+03 1.444523e+03
1.023000e+03 1.619608e+03
1.024000e+03 1.410592e+03
1.025000e+03 1.329844e+03
1.026000e+03 7.824051e+02
1.027000e+03 1.605006e+03
1.028000e+03 5.927600e+02
1.029000e+03 1.928642e+03
1.030000e+03 2.035396e+03
1.031000e+03 2.141821e+03
1.032000e+03 2.194417e+03
1.033000e+03 1.093122e+03
1.034000e+03 2.363375e+03
1.035000e+03 6.499291e+02
1.036000e+03 2.202781e+03
1.037000e+03 1.714527e+03
1.038000e+03 2.683208e+03
1.039000e+03 2.752199e+03
1.040000e+03 2.855878e+03
1.041000e+03 2.897642e+03
1.042000e+03 3.036268e+03
1.043000e+03 3.010132e+03
1.044000e+03 3.231616e+03
1.045000e+03 3.330484e+03
1.046000e+03 3.438424e+03
1.047000e+03 3.543698e+03
1.048000e+03 3.633691e+03
1.049000e+03 3.629462e+03
1.050000e+03 3.882444e+03
1.051000e+03 4.001021e+03
1.052000e+03 4.128512e+03
1.053000e+03 4.247958e+03
1.054000e+03 4.193100e+03
1.055000e+03 4.232133e+03
1.056000e+03 4.658159e+03
1.057000e+03 4.798680e+03
1.058000e+03 4.941971e+03
1.059000e+03 5.082799e+03
1.060000e+03 5.219939e+03
1.061000e+03 5.408062e+03
1.062000e+03 5.565045e+03
1.063000e+03 2.001345e+03
1.064000e+03 1.558885e+03
1.065000e+03 5.927914e+03
1.066000e+03 4.061902e+03
1.067000e+03 6.419631e+03
1.068000e+03 6.656430e+03
1.069000e+03 6.612500e+03
1.070000e+03 7.048370e+03
1.071000e+03 7.268413e+03
1.072000e+03 7.482972e+03
1.073000e+03 7.558589e+03
1.074000e+03 7.927801e+03
1.075000e+03 8.159035e+03
1.076000e+03 8.401951e+03
1.077000e+03 8.551014e+03
1.078000e+03 8.891828e+03
1.079000e+03 9.148762e+03
1.080000e+03 9.423393e+03
1.081000e+03 9.698862e+03
1.082000e+03 9.975195e+03
1.083000e+03 1.026465e+04
1.084000e+03 1.056325e+04
1.085000e+03 8.113163e+03
1.086000e+03 1.117662e+04
1.087000e+03 1.146111e+04
1.088000e+03 1.179558e+04
1.089000e+03 1.215811e+04
1.090000e+03 1.249027e+04
1.091000e+03 1.280234e+04
1.092000e+03 1.321603e+04
1.093000e+03 1.358369e+04
1.094000e+03 1.397245e+04
1.095000e+03 1.436379e+04
1.096000e+03 1.474427e+04
1.097000e+03 1.463781e+04
1.098000e+03 1.517074e+04
1.099000e+03 1.603035e+04
1.100000e+03 1.528196e+04
1.101000e+03 1.570999e+04
1.102000e+03 3.047278e+04
1.103000e+03 8.184236e+04
1.104000e+03 3.960962e+04
1.105000e+03 1.757514e+04
1.106000e+03 1.867266e+05
1.107000e+03 1.289892e+05
1.108000e+03 1.885790e+05
1.109000e+03 1.218121e+05
1.110000e+03 8.581834e+04
1.111000e+03 3.752111e+04
1.112000e+03 1.782971e+05
1.113000e+03 2.200220e+05
1.114000e+03 1.624634e+04
1.115000e+03 2.101322e+05
1.116000e+03 2.131702e+05
1.117000e+03 1.900059e+04
1.118000e+03 1.552864e+05
1.119000e+03 2.473666e+05
1.120000e+03 2.335160e+05
1.121000e+03 2.505639e+05
1.122000e+03 8.397797e+03
1.123000e+03 3.223383e+04
1.124000e+03 2.749659e+05
1.125000e+03 1.957115e+05
1.126000e+03 2.877597e+05
1.127000e+03 2.845826e+05
1.128000e+03 1.738542e+05
1.129000e+03 2.976604e+05
1.130000e+03 2.445195e+05
1.131000e+03 3.195481e+05
1.132000e+03 2.384584e+04
1.133000e+03 2.797602e+05
1.134000e+03 3.079817e+05
1.135000e+03 1.459872e+04
1.136000e+03 3.456361e+05
1.137000e+03 3.619580e+05
1.138000e+03 3.674120e+05
1.139000e+03 3.692328e+05
1.140000e+03 1.705472e+04
1.141000e+03 3.935507e+05
1.142000e+03 4.013380e+05
1.143000e+03 4.088472e+05
1.144000e+03 4.187675e+05
1.145000e+03 3.133688e+05
1.146000e+03 4.366474e+05
1.147000e+03 4.397968e+05
1.148000e+03 4.275196e+05
1.149000e+03 4.634495e+05
1.150000e+03 4.712112e+05
1.151000e+03 4.808012e+05
1.152000e+03 4.938227e+05
1.153000e+03 2.421354e+05
1.154000e+03 2.376763e+05
1.155000e+03 5.024780e+05
1.156000e+03 1.192158e+05
1.157000e+03 5.449952e+05
1.158000e+03 2.765418e+04
1.159000e+03 4.598520e+05
1.160000e+03 5.743449e+05
1.161000e+03 5.931798e+05
1.162000e+03 2.455589e+05
1.163000e+03 6.092422e+05
1.164000e+03 3.756088e+04
1.165000e+03 6.437319e+05
1.166000e+03 6.576991e+05
1.167000e+03 6.720156e+05
1.168000e+03 6.906631e+05
1.169000e+03 6.844100e+05
1.170000e+03 7.220137e+05
1.171000e+03 7.395758e+05
1.172000e+03 7.526576e+05
1.173000e+03 7.740150e+05
1.174000e+03 7.274899e+05
1.175000e+03 4.802106e+04
1.176000e+03 4.270375e+04
1.177000e+03 8.455355e+05
1.178000e+03 8.562609e+05
1.179000e+03 8.826204e+05
1.180000e+03 7.804321e+05
1.181000e+03 9.193942e+05
1.182000e+03 9.444825e+05
1.183000e+03 9.626346e+05
1.184000e+03 9.814706e+05
1.185000e+03 9.986293e+05
1.186000e+03 9.990736e+05
1.187000e+03 1.039263e+06
1.188000e+03 1.051975e+06
1.189000e+03 6.014406e+04
1.190000e+03 1.687272e+05
1.191000e+03 1.094891e+06
1.192000e+03 1.110767e+06
1.193000e+03 5.699075e+04
1.194000e+03 7.111862e+04
1.195000e+03 1.031411e+06
1.196000e+03 1.168032e+06
1.197000e+03 1.841249e+06
1.198000e+03 1.817951e+06
1.199000e+03 1.814765e+06
1.200000e+03 1.625773e+06
1.201000e+03 1.719093e+06
1.202000e+03 1.700873e+06
1.203000e+03 2.242162e+06
1.204000e+03 2.000159e+06
1.205000e+03 1.869396e+06
1.206000e+03 1.791204e+06
1.207000e+03 2.658071e+05
1.208000e+03 1.302873e+06
1.209000e+03 1.007421e+06
1.210000e+03 1.051086e+05
1.211000e+03 6.179067e+05
1.212000e+03 4.172425e+05
1.213000e+03 2.859174e+05
1.214000e+03 1.819300e+05
1.215000e+03 1.196976e+05
1.216000e+03 1.080077e+05
1.217000e+03 1.663893e+05
1.218000e+03 2.737572e+05
1.219000e+03 4.415001e+05
1.220000e+03 6.704210e+05
1.221000e+03 9.574484e+05
1.222000e+03 1.294485e+06
1.223000e+03 1.671952e+06
1.224000e+03 2.099814e+06
1.225000e+03 2.494547e+06
1.226000e+03 3.049125e+06
1.227000e+03 3.509740e+06
1.228000e+03 4.055921e+06
1.229000e+03 4.654235e+06
1.230000e+03 4.733206e+06
1.231000e+03 5.625320e+06
1.232000e+03 6.381439e+06
1.233000e+03 6.968004e+06
1.234000e+03 4.137872e+06
1.235000e+03 8.120369e+06
1.236000e+03 8.400906e+06
1.237000e+03 9.254261e+06
1.238000e+03 9.805046e+06
1.239000e+03 1.032818e+07
1.240000e+03 9.529283e+06
1.241000e+03 1.515591e+07
1.242000e+03 1.038363e+07
1.243000e+03 1.410674e+07
1.244000e+03 7.225400e+06
1.245000e+03 1.025128e+07
1.246000e+03 2.198477e+07
1.247000e+03 2.239882e+07
1.248000e+03 7.773755e+06
1.249000e+03 9.792110e+06
1.250000e+03 2.570066e+07
1.251000e+03 2.742773e+07
1.252000e+03 2.818245e+07
1.253000e+03 2.958851e+07
1.254000e+03 3.037324e+07
1.255000e+03 3.032222e+07
1.256000e+03 3.193360e+07
1.257000e+03 3.302611e+07
1.258000e+03 3.311490e+07
1.259000e+03 3.415290e+07
1.260000e+03 2.837982e+07
1.261000e+03 3.062845e+05
1.262000e+03 5.490924e+06
1.263000e+03 3.725364e+07
1.264000e+03 3.474432e+07
1.265000e+03 3.223920e+05
1.266000e+03 4.085268e+07
1.267000e+03 4.251998e+07
