# wavelength_A flux
5.000000e+02 2.434312e-12
5.010000e+02 2.812943e-12
5.020000e+02 3.248531e-12
5.030000e+02 3.749352e-12
5.040000e+02 4.324842e-12
5.050000e+02 5.121509e-12
5.060000e+02 5.899755e-12
5.070000e+02 6.792348e-12
5.080000e+02 7.815510e-12
5.090000e+02 8.987890e-12
5.100000e+02 1.033002e-11
5.110000e+02 1.186596e-11
5.120000e+02 1.362261e-11
5.130000e+02 1.563064e-11
5.140000e+02 1.792475e-11
5.150000e+02 2.054403e-11
5.160000e+02 2.353379e-11
5.170000e+02 2.694254e-11
5.180000e+02 3.083101e-11
5.190000e+02 3.526026e-11
5.200000e+02 4.030432e-11
5.210000e+02 4.604541e-11
5.220000e+02 5.257039e-11
5.230000e+02 6.000270e-11
5.240000e+02 6.844226e-11
5.250000e+02 7.802898e-11
5.260000e+02 8.891205e-11
5.270000e+02 1.012611e-10
5.280000e+02 1.152667e-10
5.290000e+02 1.311088e-10
5.300000e+02 1.491309e-10
5.310000e+02 1.695013e-10
5.320000e+02 1.925589e-10
5.330000e+02 2.186441e-10
5.340000e+02 2.481408e-10
5.350000e+02 2.814787e-10
5.360000e+02 3.191380e-10
5.370000e+02 3.566951e-10
5.380000e+02 4.096544e-10
5.390000e+02 4.637986e-10
5.400000e+02 5.248578e-10
5.410000e+02 5.936185e-10
5.420000e+02 6.711671e-10
5.430000e+02 7.584471e-10
5.440000e+02 8.566714e-10
5.450000e+02 9.671690e-10
5.460000e+02 1.091217e-09
5.470000e+02 1.231063e-09
5.480000e+02 1.387943e-09
5.490000e+02 1.564114e-09
5.500000e+02 1.761848e-09
5.510000e+02 1.983694e-09
5.520000e+02 2.232480e-09
5.530000e+02 2.511356e-09
5.540000e+02 2.823825e-09
5.550000e+02 3.173783e-09
5.560000e+02 3.565559e-09
5.570000e+02 4.003963e-09
5.580000e+02 4.494336e-09
5.590000e+02 5.042605e-09
5.600000e+02 5.655349e-09
5.610000e+02 6.339865e-09
5.620000e+02 7.104238e-09
5.630000e+02 7.957434e-09
5.640000e+02 8.909381e-09
5.650000e+02 9.971052e-09
5.660000e+02 1.115469e-08
5.670000e+02 1.247367e-08
5.680000e+02 1.394295e-08
5.690000e+02 1.557896e-08
5.700000e+02 1.739988e-08
5.710000e+02 1.942590e-08
5.720000e+02 2.167913e-08
5.730000e+02 2.418411e-08
5.740000e+02 2.696787e-08
5.750000e+02 3.006076e-08
5.760000e+02 3.348983e-08
5.770000e+02 3.730637e-08
5.780000e+02 4.153574e-08
5.790000e+02 4.622679e-08
5.800000e+02 5.142793e-08
5.810000e+02 5.719245e-08
5.820000e+02 6.357887e-08
5.830000e+02 7.065105e-08
5.840000e+02 7.845710e-08
5.850000e+02 8.714208e-08
5.860000e+02 9.673516e-08
5.870000e+02 1.073379e-07
5.880000e+02 1.190586e-07
5.890000e+02 1.320081e-07
5.900000e+02 1.463182e-07
5.910000e+02 1.621176e-07
5.920000e+02 1.795591e-07
5.930000e+02 1.988055e-07
5.940000e+02 2.200365e-07
5.950000e+02 2.434424e-07
5.960000e+02 2.692565e-07
5.970000e+02 2.976961e-07
5.980000e+02 3.290247e-07
5.990000e+02 3.635241e-07
6.000000e+02 4.015021e-07
6.010000e+02 4.432182e-07
6.020000e+02 4.892715e-07
6.030000e+02 5.398317e-07
6.040000e+02 5.954169e-07
6.050000e+02 6.565033e-07
6.060000e+02 7.236133e-07
6.070000e+02 7.973200e-07
6.080000e+02 8.782417e-07
6.090000e+02 9.670568e-07
6.100000e+02 1.064502e-06
6.110000e+02 1.171388e-06
6.120000e+02 1.288584e-06
6.130000e+02 1.417048e-06
6.140000e+02 1.557816e-06
6.150000e+02 1.712019e-06
6.160000e+02 1.880887e-06
6.170000e+02 2.065756e-06
6.180000e+02 2.268079e-06
6.190000e+02 2.489435e-06
6.200000e+02 2.731541e-06
6.210000e+02 2.996260e-06
6.220000e+02 3.285616e-06
6.230000e+02 3.601806e-06
6.240000e+02 3.947214e-06
6.250000e+02 4.324427e-06
6.260000e+02 4.736249e-06
6.270000e+02 5.185722e-06
6.280000e+02 5.676145e-06
6.290000e+02 6.211087e-06
6.300000e+02 6.794422e-06
6.310000e+02 7.430011e-06
6.320000e+02 8.123379e-06
6.330000e+02 8.878425e-06
6.340000e+02 9.700876e-06
6.350000e+02 1.059639e-05
6.360000e+02 1.156099e-05
6.370000e+02 1.263214e-05
6.380000e+02 1.378634e-05
6.390000e+02 1.504172e-05
6.400000e+02 1.640675e-05
6.410000e+02 1.789059e-05
6.420000e+02 1.950316e-05
6.430000e+02 2.125513e-05
6.440000e+02 2.315802e-05
6.450000e+02 2.522427e-05
6.460000e+02 2.746732e-05
6.470000e+02 2.990159e-05
6.480000e+02 3.254272e-05
6.490000e+02 3.540749e-05
6.500000e+02 3.851401e-05
6.510000e+02 4.188181e-05
6.520000e+02 4.553188e-05
6.530000e+02 4.948684e-05
6.540000e+02 5.377105e-05
6.550000e+02 5.841069e-05
6.560000e+02 6.343395e-05
6.570000e+02 6.886968e-05
6.580000e+02 7.475490e-05
6.590000e+02 8.112023e-05
6.600000e+02 8.800448e-05
6.610000e+02 9.544911e-05
6.620000e+02 1.034966e-04
6.630000e+02 1.121940e-04
6.640000e+02 1.215914e-04
6.650000e+02 1.317423e-04
6.660000e+02 1.427055e-04
6.670000e+02 1.545419e-04
6.680000e+02 1.673184e-04
6.690000e+02 1.811063e-04
6.700000e+02 1.959819e-04
6.710000e+02 2.120272e-04
6.720000e+02 2.293299e-04
6.730000e+02 2.479845e-04
6.740000e+02 2.680913e-04
6.750000e+02 2.897585e-04
6.760000e+02 3.131015e-04
6.770000e+02 3.382442e-04
6.780000e+02 3.653188e-04
6.790000e+02 3.944670e-04
6.800000e+02 4.258404e-04
6.810000e+02 4.596010e-04
6.820000e+02 4.959221e-04
6.830000e+02 5.349889e-04
6.840000e+02 5.769994e-04
6.850000e+02 6.221625e-04
6.860000e+02 6.707123e-04
6.870000e+02 7.228780e-04
6.880000e+02 7.789322e-04
6.890000e+02 8.391381e-04
6.900000e+02 9.037930e-04
6.910000e+02 9.732113e-04
6.920000e+02 1.047727e-03
6.930000e+02 1.127696e-03
6.940000e+02 1.213500e-03
6.950000e+02 1.305544e-03
6.960000e+02 1.404261e-03
6.970000e+02 1.510092e-03
6.980000e+02 1.623586e-03
6.990000e+02 1.745209e-03
7.000000e+02 1.875538e-03
7.010000e+02 2.015166e-03
7.020000e+02 2.164724e-03
7.030000e+02 2.324886e-03
7.040000e+02 2.496368e-03
7.050000e+02 2.679932e-03
7.060000e+02 2.876384e-03
7.070000e+02 3.086597e-03
7.080000e+02 3.311478e-03
7.090000e+02 3.551986e-03
7.100000e+02 3.809212e-03
7.110000e+02 4.084204e-03
7.120000e+02 4.378148e-03
7.130000e+02 4.692290e-03
7.140000e+02 5.027948e-03
7.150000e+02 5.386523e-03
7.160000e+02 5.769513e-03
7.170000e+02 6.178468e-03
7.180000e+02 6.615052e-03
7.190000e+02 7.081223e-03
7.200000e+02 7.578651e-03
7.210000e+02 8.109421e-03
7.220000e+02 8.675655e-03
7.230000e+02 9.279609e-03
7.240000e+02 9.923671e-03
7.250000e+02 1.061037e-02
7.260000e+02 1.134239e-02
7.270000e+02 1.212260e-02
7.280000e+02 1.295398e-02
7.290000e+02 1.383973e-02
7.300000e+02 1.478324e-02
7.310000e+02 1.578808e-02
7.320000e+02 1.685804e-02
7.330000e+02 1.799712e-02
7.340000e+02 1.920959e-02
7.350000e+02 2.049991e-02
7.360000e+02 2.187284e-02
7.370000e+02 2.333344e-02
7.380000e+02 2.488697e-02
7.390000e+02 2.653908e-02
7.400000e+02 2.829558e-02
7.410000e+02 3.016309e-02
7.420000e+02 3.214778e-02
7.430000e+02 3.425718e-02
7.440000e+02 3.649828e-02
7.450000e+02 3.887904e-02
7.460000e+02 4.140773e-02
7.470000e+02 4.409306e-02
7.480000e+02 4.694425e-02
7.490000e+02 4.997101e-02
7.500000e+02 5.318361e-02
7.510000e+02 5.659288e-02
7.520000e+02 6.021023e-02
7.530000e+02 6.404772e-02
7.540000e+02 6.811804e-02
7.550000e+02 7.243460e-02
7.560000e+02 7.701155e-02
7.570000e+02 8.186164e-02
7.580000e+02 8.700690e-02
7.590000e+02 9.245722e-02
7.600000e+02 9.823313e-02
7.610000e+02 1.043522e-01
7.620000e+02 1.108338e-01
7.630000e+02 1.176984e-01
7.640000e+02 1.249675e-01
7.650000e+02 1.326635e-01
7.660000e+02 1.408106e-01
7.670000e+02 1.494334e-01
7.680000e+02 1.585577e-01
7.690000e+02 1.682135e-01
7.700000e+02 1.784276e-01
7.710000e+02 1.892313e-01
7.720000e+02 2.006571e-01
7.730000e+02 2.127388e-01
7.740000e+02 2.255120e-01
7.750000e+02 2.390142e-01
7.760000e+02 2.532547e-01
7.770000e+02 2.683655e-01
7.780000e+02 2.842995e-01
7.790000e+02 3.011325e-01
7.800000e+02 3.189126e-01
7.810000e+02 3.376903e-01
7.820000e+02 3.575184e-01
7.830000e+02 3.784526e-01
7.840000e+02 4.005515e-01
7.850000e+02 4.238761e-01
7.860000e+02 4.484902e-01
7.870000e+02 4.744643e-01
7.880000e+02 5.018651e-01
7.890000e+02 5.307688e-01
7.900000e+02 5.612532e-01
7.910000e+02 5.934001e-01
7.920000e+02 6.272953e-01
7.930000e+02 6.630285e-01
7.940000e+02 7.006940e-01
7.950000e+02 7.403908e-01
7.960000e+02 7.822222e-01
7.970000e+02 8.262969e-01
7.980000e+02 8.727284e-01
7.990000e+02 9.216359e-01
8.000000e+02 9.731443e-01
8.010000e+02 1.027382e+00
8.020000e+02 1.084492e+00
8.030000e+02 1.144612e+00
8.040000e+02 1.207893e+00
8.050000e+02 1.274493e+00
8.060000e+02 1.344577e+00
8.070000e+02 1.418315e+00
8.080000e+02 1.495889e+00
8.090000e+02 1.577486e+00
8.100000e+02 1.663303e+00
8.110000e+02 1.753548e+00
8.120000e+02 1.848434e+00
8.130000e+02 1.948188e+00
8.140000e+02 2.053046e+00
8.150000e+02 2.163251e+00
8.160000e+02 2.279067e+00
8.170000e+02 2.400757e+00
8.180000e+02 2.528607e+00
8.190000e+02 2.662908e+00
8.200000e+02 2.803967e+00
8.210000e+02 2.952107e+00
8.220000e+02 3.107661e+00
8.230000e+02 3.270980e+00
8.240000e+02 3.442431e+00
8.250000e+02 3.622393e+00
8.260000e+02 3.811266e+00
8.270000e+02 4.009467e+00
8.280000e+02 4.217428e+00
8.290000e+02 4.435602e+00
8.300000e+02 4.664465e+00
8.310000e+02 4.904507e+00
8.320000e+02 5.156245e+00
8.330000e+02 5.420214e+00
8.340000e+02 5.696975e+00
8.350000e+02 5.986696e+00
8.360000e+02 6.291212e+00
8.370000e+02 6.609978e+00
8.380000e+02 6.943917e+00
8.390000e+02 7.293999e+00
8.400000e+02 7.660687e+00
8.410000e+02 8.044816e+00
8.420000e+02 8.447047e+00
8.430000e+02 8.868554e+00
8.440000e+02 9.309825e+00
8.450000e+02 9.771862e+00
8.460000e+02 1.025559e+01
8.470000e+02 1.076196e+01
8.480000e+02 1.129197e+01
8.490000e+02 1.184666e+01
8.500000e+02 1.242711e+01
8.510000e+02 1.303446e+01
8.520000e+02 1.366984e+01
8.530000e+02 1.433454e+01
8.540000e+02 1.502983e+01
8.550000e+02 1.575693e+01
8.560000e+02 1.651728e+01
8.570000e+02 1.731230e+01
8.580000e+02 1.814347e+01
8.590000e+02 1.901236e+01
8.600000e+02 1.992055e+01
8.610000e+02 2.086973e+01
8.620000e+02 2.186163e+01
8.630000e+02 2.289804e+01
8.640000e+02 2.398091e+01
8.650000e+02 2.511205e+01
8.660000e+02 2.629370e+01
8.670000e+02 2.752780e+01
8.680000e+02 2.881659e+01
8.690000e+02 3.016234e+01
8.700000e+02 3.156743e+01
8.710000e+02 3.303431e+01
8.720000e+02 3.456553e+01
8.730000e+02 3.616374e+01
8.740000e+02 3.783169e+01
8.750000e+02 3.957225e+01
8.760000e+02 4.138837e+01
8.770000e+02 4.328304e+01
8.780000e+02 4.525976e+01
8.790000e+02 4.732153e+01
8.800000e+02 4.947192e+01
8.810000e+02 5.171447e+01
8.820000e+02 5.405291e+01
8.830000e+02 5.649109e+01
8.840000e+02 5.903297e+01
8.850000e+02 6.168272e+01
8.860000e+02 6.444462e+01
8.870000e+02 6.732312e+01
8.880000e+02 7.032284e+01
8.890000e+02 7.344857e+01
8.900000e+02 7.670526e+01
8.910000e+02 8.009806e+01
8.920000e+02 8.355389e+01
8.930000e+02 8.731352e+01
8.940000e+02 9.114744e+01
8.950000e+02 9.513995e+01
8.960000e+02 9.929732e+01
8.970000e+02 1.036258e+02
8.980000e+02 1.081320e+02
8.990000e+02 1.128229e+02
9.000000e+02 1.177054e+02
9.010000e+02 1.227869e+02
9.020000e+02 1.280751e+02
9.030000e+02 1.335777e+02
9.040000e+02 1.393022e+02
9.050000e+02 1.452590e+02
9.060000e+02 1.514554e+02
9.070000e+02 1.578981e+02
9.080000e+02 1.646033e+02
9.090000e+02 1.715743e+02
9.100000e+02 1.788231e+02
9.110000e+02 1.863606e+02
9.120000e+02 1.942001e+02
9.130000e+02 2.005480e+02
9.140000e+02 2.148392e+02
9.150000e+02 1.386687e+03
9.160000e+02 2.500819e+03
9.170000e+02 2.591320e+03
9.180000e+02 2.669086e+03
9.190000e+02 2.786000e+03
9.200000e+02 2.885424e+03
9.210000e+02 2.768211e+02
9.220000e+02 3.088051e+03
9.230000e+02 3.172015e+03
9.240000e+02 3.162158e+03
9.250000e+02 3.381427e+03
9.260000e+02 3.524432e+03
9.270000e+02 3.657930e+03
9.280000e+02 3.789012e+03
9.290000e+02 3.893045e+03
9.300000e+02 4.010903e+03
9.310000e+02 4.158081e+03
9.320000e+02 4.335556e+03
9.330000e+02 4.475388e+03
9.340000e+02 4.632166e+03
9.350000e+02 1.171646e+03
9.360000e+02 4.701716e+03
9.370000e+02 9.317195e+02
9.380000e+02 2.447926e+03
9.390000e+02 5.457398e+03
9.400000e+02 5.653557e+03
9.410000e+02 2.147025e+03
9.420000e+02 6.039532e+03
9.430000e+02 6.232309e+03
9.440000e+02 4.972422e+03
9.450000e+02 6.659249e+03
9.460000e+02 6.878843e+03
9.470000e+02 5.357262e+03
9.480000e+02 5.475369e+03
9.490000e+02 7.525295e+03
9.500000e+02 1.437853e+03
9.510000e+02 7.936669e+03
9.520000e+02 8.356852e+03
9.530000e+02 8.519552e+03
9.540000e+02 7.601628e+03
9.550000e+02 9.206766e+03
9.560000e+02 6.310999e+03
9.570000e+02 6.458090e+03
9.580000e+02 9.926189e+03
9.590000e+02 1.050403e+04
9.600000e+02 2.176695e+03
9.610000e+02 1.116499e+04
9.620000e+02 1.155076e+04
9.630000e+02 1.192229e+04
9.640000e+02 1.542165e+03
9.650000e+02 1.175199e+04
9.660000e+02 1.309947e+04
9.670000e+02 1.340432e+04
9.680000e+02 1.383398e+04
9.690000e+02 1.430978e+04
9.700000e+02 1.480591e+04
9.710000e+02 1.513878e+04
9.720000e+02 1.461864e+04
9.730000e+02 1.476327e+04
9.740000e+02 1.657632e+04
9.750000e+02 1.727333e+04
9.760000e+02 1.785507e+04
9.770000e+02 1.843219e+04
9.780000e+02 1.896609e+04
9.790000e+02 1.961004e+04
9.800000e+02 2.020918e+04
9.810000e+02 2.083900e+04
9.820000e+02 2.142244e+04
9.830000e+02 2.214068e+04
9.840000e+02 1.085928e+04
9.850000e+02 2.351132e+04
9.860000e+02 2.422260e+04
9.870000e+02 2.497995e+04
9.880000e+02 2.548801e+04
9.890000e+02 2.307915e+04
9.900000e+02 4.672740e+03
9.910000e+02 2.788054e+04
9.920000e+02 2.522910e+04
9.930000e+02 2.829728e+04
9.940000e+02 5.413168e+03
9.950000e+02 1.077087e+04
9.960000e+02 2.640973e+04
9.970000e+02 7.524135e+03
9.980000e+02 3.454482e+04
9.990000e+02 3.500022e+04
1.000000e+03 3.670475e+04
1.001000e+03 3.779800e+04
1.002000e+03 3.890471e+04
1.003000e+03 3.881136e+04
1.004000e+03 4.097043e+04
1.005000e+03 4.036686e+04
1.006000e+03 4.368119e+04
1.007000e+03 4.484146e+04
1.008000e+03 4.618174e+04
1.009000e+03 4.710096e+04
1.010000e+03 4.897672e+04
1.011000e+03 5.038981e+04
1.012000e+03 5.183662e+04
1.013000e+03 5.332231e+04
1.014000e+03 5.296805e+04
1.015000e+03 5.547657e+04
1.016000e+03 5.785804e+04
1.017000e+03 5.783180e+04
1.018000e+03 6.117991e+04
1.019000e+03 6.236814e+04
1.020000e+03 6.464075e+04
1.021000e+03 3.425986e+04
1.022000e+03 6.115531e+04
1.023000e+03 6.821468e+04
1.024000e+03 6.218568e+04
1.025000e+03 5.315291e+04
1.026000e+03 2.761379e+04
1.027000e+03 6.725416e+04
1.028000e+03 2.131919e+04
1.029000e+03 7.973885e+04
1.030000e+03 8.381594e+04
1.031000e+03 8.752012e+04
1.032000e+03 8.969194e+04
1.033000e+03 4.086916e+04
1.034000e+03 9.548734e+04
1.035000e+03 2.251341e+04
1.036000e+03 9.006326e+04
1.037000e+03 2.661470e+04
1.038000e+03 1.067033e+05
1.039000e+03 1.089013e+05
1.040000e+03 1.126668e+05
1.041000e+03 1.141708e+05
1.042000e+03 1.186195e+05
1.043000e+03 1.173348e+05
1.044000e+03 1.254381e+05
1.045000e+03 1.287718e+05
1.046000e+03 1.324739e+05
1.047000e+03 1.359666e+05
1.048000e+03 1.387980e+05
1.049000e+03 1.383562e+05
1.050000e+03 1.472596e+05
1.051000e+03 1.511630e+05
1.052000e+03 1.553665e+05
1.053000e+03 1.589789e+05
1.054000e+03 1.578541e+05
1.055000e+03 1.631388e+05
1.056000e+03 1.726011e+05
1.057000e+03 1.771040e+05
1.058000e+03 1.816943e+05
1.059000e+03 1.860903e+05
1.060000e+03 1.905248e+05
1.061000e+03 1.965566e+05
1.062000e+03 2.015216e+05
1.063000e+03 6.903420e+04
1.064000e+03 4.895716e+04
1.065000e+03 2.132291e+05
1.066000e+03 1.574511e+05
1.067000e+03 2.273153e+05
1.068000e+03 2.358804e+05
1.069000e+03 2.351630e+05
1.070000e+03 2.474614e+05
1.071000e+03 2.546999e+05
1.072000e+03 2.612339e+05
1.073000e+03 2.634664e+05
1.074000e+03 2.746678e+05
1.075000e+03 2.815992e+05
1.076000e+03 2.889872e+05
1.077000e+03 2.949085e+05
1.078000e+03 3.035723e+05
1.079000e+03 3.110032e+05
1.080000e+03 3.193307e+05
1.081000e+03 3.274554e+05
1.082000e+03 3.355453e+05
1.083000e+03 3.439477e+05
1.084000e+03 3.527145e+05
1.085000e+03 2.644636e+05
1.086000e+03 3.705489e+05
1.087000e+03 3.785103e+05
1.088000e+03 3.881193e+05
1.089000e+03 3.987246e+05
1.090000e+03 4.080266e+05
1.091000e+03 4.173453e+05
1.092000e+03 4.288292e+05
1.093000e+03 4.390822e+05
1.094000e+03 4.500755e+05
1.095000e+03 4.609831e+05
1.096000e+03 4.720704e+05
1.097000e+03 4.742075e+05
1.098000e+03 4.884457e+05
1.099000e+03 5.072069e+05
1.100000e+03 4.983437e+05
1.101000e+03 4.867472e+05
1.102000e+03 1.066418e+06
1.103000e+03 3.309555e+06
1.104000e+03 1.379758e+06
1.105000e+03 5.383225e+05
1.106000e+03 7.521638e+06
1.107000e+03 5.442997e+06
1.108000e+03 7.704362e+06
1.109000e+03 5.167966e+06
1.110000e+03 2.644374e+06
1.111000e+03 1.251396e+06
1.112000e+03 7.252708e+06
1.113000e+03 8.689831e+06
1.114000e+03 4.562590e+05
1.115000e+03 8.339863e+06
1.116000e+03 8.502570e+06
1.117000e+03 5.186920e+05
1.118000e+03 6.322414e+06
1.119000e+03 9.598947e+06
1.120000e+03 9.205579e+06
1.121000e+03 9.432066e+06
1.122000e+03 2.125735e+05
1.123000e+03 1.026510e+06
1.124000e+03 1.052037e+07
1.125000e+03 6.579055e+06
1.126000e+03 1.095485e+07
1.127000e+03 1.080072e+07
1.128000e+03 5.683744e+06
1.129000e+03 1.125527e+07
1.130000e+03 9.912207e+06
1.131000e+03 1.200956e+07
1.132000e+03 6.172860e+05
1.133000e+03 1.030439e+07
1.134000e+03 1.193188e+07
1.135000e+03 3.631020e+05
1.136000e+03 1.280639e+07
1.137000e+03 1.336461e+07
1.138000e+03 1.352755e+07
1.139000e+03 1.354402e+07
1.140000e+03 4.057450e+05
1.141000e+03 1.437447e+07
1.142000e+03 1.456122e+07
1.143000e+03 1.486258e+07
1.144000e+03 1.517714e+07
1.145000e+03 1.158464e+07
1.146000e+03 1.572712e+07
1.147000e+03 1.579701e+07
1.148000e+03 1.537041e+07
1.149000e+03 1.655655e+07
1.150000e+03 1.670320e+07
1.151000e+03 1.707869e+07
1.152000e+03 1.747178e+07
1.153000e+03 6.909642e+06
1.154000e+03 2.116732e+06
1.155000e+03 1.529466e+07
1.156000e+03 4.296892e+06
1.157000e+03 1.902487e+07
1.158000e+03 6.439021e+05
1.159000e+03 1.636608e+07
1.160000e+03 1.975276e+07
1.161000e+03 2.049383e+07
1.162000e+03 6.798678e+06
1.163000e+03 2.089330e+07
1.164000e+03 8.916920e+05
1.165000e+03 2.198738e+07
1.166000e+03 2.235758e+07
1.167000e+03 2.268957e+07
1.168000e+03 2.336344e+07
1.169000e+03 2.320716e+07
1.170000e+03 2.427625e+07
1.171000e+03 2.477184e+07
1.172000e+03 2.502556e+07
1.173000e+03 2.575367e+07
1.174000e+03 2.439564e+07
1.175000e+03 1.093940e+06
1.176000e+03 9.577640e+05
1.177000e+03 2.776338e+07
1.178000e+03 2.770568e+07
1.179000e+03 2.880412e+07
1.180000e+03 2.414054e+07
1.181000e+03 2.977064e+07
1.182000e+03 3.047392e+07
1.183000e+03 3.095451e+07
1.184000e+03 3.145242e+07
1.185000e+03 3.179288e+07
1.186000e+03 3.195035e+07
1.187000e+03 3.297498e+07
1.188000e+03 3.318909e+07
1.189000e+03 1.259210e+06
1.190000e+03 4.594262e+06
1.191000e+03 3.419919e+07
1.192000e+03 3.458792e+07
1.193000e+03 1.191740e+06
1.194000e+03 1.464202e+06
1.195000e+03 2.976400e+07
1.196000e+03 3.582822e+07
1.197000e+03 5.251119e+07
1.198000e+03 5.210462e+07
1.199000e+03 5.167683e+07
1.200000e+03 4.641232e+07
1.201000e+03 4.882081e+07
1.202000e+03 4.818931e+07
1.203000e+03 5.979434e+07
1.204000e+03 5.373420e+07
1.205000e+03 5.039551e+07
1.206000e+03 4.719606e+07
1.207000e+03 7.253736e+06
1.208000e+03 3.497117e+07
1.209000e+03 2.673257e+07
1.210000e+03 2.165338e+06
1.211000e+03 1.562597e+07
1.212000e+03 9.985250e+06
1.213000e+03 6.303874e+06
1.214000e+03 3.675283e+06
1.215000e+03 2.318982e+06
1.216000e+03 2.107216e+06
1.217000e+03 3.264576e+06
1.218000e+03 5.782722e+06
1.219000e+03 1.010677e+07
1.220000e+03 1.628242e+07
1.221000e+03 2.412211e+07
1.222000e+03 3.319124e+07
1.223000e+03 4.317593e+07
1.224000e+03 5.394828e+07
1.225000e+03 6.391831e+07
1.226000e+03 7.658770e+07
1.227000e+03 8.734640e+07
1.228000e+03 9.939465e+07
1.229000e+03 1.121304e+08
1.230000e+03 1.223568e+08
1.231000e+03 1.333842e+08
1.232000e+03 1.481456e+08
1.233000e+03 1.598172e+08
1.234000e+03 9.920169e+07
1.235000e+03 1.823793e+08
1.236000e+03 1.879302e+08
1.237000e+03 2.042549e+08
1.238000e+03 2.145032e+08
1.239000e+03 2.245650e+08
1.240000e+03 2.133296e+08
1.241000e+03 3.613282e+08
1.242000e+03 2.138010e+08
1.243000e+03 3.112681e+08
1.244000e+03 1.396188e+08
1.245000e+03 2.037428e+08
1.246000e+03 5.658701e+08
1.247000e+03 5.770162e+08
1.248000e+03 1.512489e+08
1.249000e+03 1.889432e+08
1.250000e+03 6.861533e+08
1.251000e+03 7.243500e+08
1.252000e+03 7.435124e+08
1.253000e+03 7.891189e+08
1.254000e+03 8.041696e+08
1.255000e+03 8.369652e+08
1.256000e+03 8.508388e+08
1.257000e+03 8.977913e+08
1.258000e+03 8.687991e+08
1.259000e+03 8.966593e+08
1.260000e+03 7.143653e+08
1.261000e+03 5.423998e+06
1.262000e+03 9.754227e+07
1.263000e+03 1.007854e+09
1.264000e+03 8.825031e+08
1.265000e+03 5.599376e+06
1.266000e+03 1.087231e+09
1.267000e+03 1.126370e+09
