# wavelength_A flux
5.000000e+02 2.766013e-11
5.010000e+02 3.179430e-11
5.020000e+02 3.652540e-11
5.030000e+02 4.193661e-11
5.040000e+02 4.812203e-11
5.050000e+02 5.875639e-11
5.060000e+02 6.732359e-11
5.070000e+02 7.709728e-11
5.080000e+02 8.824139e-11
5.090000e+02 1.009530e-10
5.100000e+02 1.154195e-10
5.110000e+02 1.318877e-10
5.120000e+02 1.506247e-10
5.130000e+02 1.719320e-10
5.140000e+02 1.961492e-10
5.150000e+02 2.236529e-10
5.160000e+02 2.548914e-10
5.170000e+02 2.903010e-10
5.180000e+02 3.305395e-10
5.190000e+02 3.761149e-10
5.200000e+02 4.277554e-10
5.210000e+02 4.862362e-10
5.220000e+02 5.522828e-10
5.230000e+02 6.273251e-10
5.240000e+02 7.120148e-10
5.250000e+02 8.077500e-10
5.260000e+02 9.158936e-10
5.270000e+02 1.038005e-09
5.280000e+02 1.175821e-09
5.290000e+02 1.330369e-09
5.300000e+02 1.506580e-09
5.310000e+02 1.704135e-09
5.320000e+02 1.926690e-09
5.330000e+02 2.177255e-09
5.340000e+02 2.459243e-09
5.350000e+02 2.776406e-09
5.360000e+02 3.132995e-09
5.370000e+02 3.422764e-09
5.380000e+02 3.983867e-09
5.390000e+02 4.489717e-09
5.400000e+02 5.057142e-09
5.410000e+02 5.692651e-09
5.420000e+02 6.407240e-09
5.430000e+02 7.207464e-09
5.440000e+02 8.103632e-09
5.450000e+02 9.107297e-09
5.460000e+02 1.022633e-08
5.470000e+02 1.148773e-08
5.480000e+02 1.289350e-08
5.490000e+02 1.446504e-08
5.500000e+02 1.622110e-08
5.510000e+02 1.818253e-08
5.520000e+02 2.037234e-08
5.530000e+02 2.281600e-08
5.540000e+02 2.554229e-08
5.550000e+02 2.858230e-08
5.560000e+02 3.197077e-08
5.570000e+02 3.574595e-08
5.580000e+02 3.995052e-08
5.590000e+02 4.463128e-08
5.600000e+02 4.984003e-08
5.610000e+02 5.563331e-08
5.620000e+02 6.207567e-08
5.630000e+02 6.923619e-08
5.640000e+02 7.719166e-08
5.650000e+02 8.602707e-08
5.660000e+02 9.583582e-08
5.670000e+02 1.067203e-07
5.680000e+02 1.187950e-07
5.690000e+02 1.321843e-07
5.700000e+02 1.470235e-07
5.710000e+02 1.634682e-07
5.720000e+02 1.816822e-07
5.730000e+02 2.018487e-07
5.740000e+02 2.241684e-07
5.750000e+02 2.488721e-07
5.760000e+02 2.761418e-07
5.770000e+02 3.063766e-07
5.780000e+02 3.397400e-07
5.790000e+02 3.766023e-07
5.800000e+02 4.173102e-07
5.810000e+02 4.622483e-07
5.820000e+02 5.118367e-07
5.830000e+02 5.665250e-07
5.840000e+02 6.263850e-07
5.850000e+02 6.932487e-07
5.860000e+02 7.666383e-07
5.870000e+02 8.473830e-07
5.880000e+02 9.362902e-07
5.890000e+02 1.034148e-06
5.900000e+02 1.141848e-06
5.910000e+02 1.260329e-06
5.920000e+02 1.390614e-06
5.930000e+02 1.533840e-06
5.940000e+02 1.691212e-06
5.950000e+02 1.863911e-06
5.960000e+02 2.054018e-06
5.970000e+02 2.262493e-06
5.980000e+02 2.491291e-06
5.990000e+02 2.742310e-06
6.000000e+02 3.017608e-06
6.010000e+02 3.319410e-06
6.020000e+02 3.650255e-06
6.030000e+02 4.012759e-06
6.040000e+02 4.409826e-06
6.050000e+02 4.844621e-06
6.060000e+02 5.320528e-06
6.070000e+02 5.841395e-06
6.080000e+02 6.411166e-06
6.090000e+02 7.034225e-06
6.100000e+02 7.715456e-06
6.110000e+02 8.460004e-06
6.120000e+02 9.273500e-06
6.130000e+02 1.016205e-05
6.140000e+02 1.113230e-05
6.150000e+02 1.219137e-05
6.160000e+02 1.334717e-05
6.170000e+02 1.460808e-05
6.180000e+02 1.598325e-05
6.190000e+02 1.748260e-05
6.200000e+02 1.911685e-05
6.210000e+02 2.089762e-05
6.220000e+02 2.283747e-05
6.230000e+02 2.494999e-05
6.240000e+02 2.724989e-05
6.250000e+02 2.975307e-05
6.260000e+02 3.247669e-05
6.270000e+02 3.543933e-05
6.280000e+02 3.866109e-05
6.290000e+02 4.216333e-05
6.300000e+02 4.597000e-05
6.310000e+02 5.010548e-05
6.320000e+02 5.459864e-05
6.330000e+02 5.947730e-05
6.340000e+02 6.477371e-05
6.350000e+02 7.052195e-05
6.360000e+02 7.650709e-05
6.370000e+02 8.352468e-05
6.380000e+02 9.086153e-05
6.390000e+02 9.881571e-05
6.400000e+02 1.074369e-04
6.410000e+02 1.167783e-04
6.420000e+02 1.268978e-04
6.430000e+02 1.378565e-04
6.440000e+02 1.497222e-04
6.450000e+02 1.625655e-04
6.460000e+02 1.764642e-04
6.470000e+02 1.914999e-04
6.480000e+02 2.077624e-04
6.490000e+02 2.253479e-04
6.500000e+02 2.443574e-04
6.510000e+02 2.649018e-04
6.520000e+02 2.870994e-04
6.530000e+02 3.110770e-04
6.540000e+02 3.369712e-04
6.550000e+02 3.649278e-04
6.560000e+02 3.951018e-04
6.570000e+02 4.276551e-04
6.580000e+02 4.627956e-04
6.590000e+02 5.006873e-04
6.600000e+02 5.415466e-04
6.610000e+02 5.855954e-04
6.620000e+02 6.330710e-04
6.630000e+02 6.842272e-04
6.640000e+02 7.393376e-04
6.650000e+02 7.986918e-04
6.660000e+02 8.626030e-04
6.670000e+02 9.314039e-04
6.680000e+02 1.005446e-03
6.690000e+02 1.085121e-03
6.700000e+02 1.170831e-03
6.710000e+02 1.263013e-03
6.720000e+02 1.362081e-03
6.730000e+02 1.468685e-03
6.740000e+02 1.583204e-03
6.750000e+02 1.706256e-03
6.760000e+02 1.838446e-03
6.770000e+02 1.980422e-03
6.780000e+02 2.132874e-03
6.790000e+02 2.296537e-03
6.800000e+02 2.472184e-03
6.810000e+02 2.660677e-03
6.820000e+02 2.862898e-03
6.830000e+02 3.079800e-03
6.840000e+02 3.312392e-03
6.850000e+02 3.561760e-03
6.860000e+02 3.829056e-03
6.870000e+02 4.115421e-03
6.880000e+02 4.422412e-03
6.890000e+02 4.751132e-03
6.900000e+02 5.103260e-03
6.910000e+02 5.480258e-03
6.920000e+02 5.883806e-03
6.930000e+02 6.315742e-03
6.940000e+02 6.777947e-03
6.950000e+02 7.272410e-03
6.960000e+02 7.801339e-03
6.970000e+02 8.366506e-03
6.980000e+02 8.971689e-03
6.990000e+02 9.618127e-03
7.000000e+02 1.030900e-02
7.010000e+02 1.104720e-02
7.020000e+02 1.183583e-02
7.030000e+02 1.267816e-02
7.040000e+02 1.357758e-02
7.050000e+02 1.453793e-02
7.060000e+02 1.556304e-02
7.070000e+02 1.665708e-02
7.080000e+02 1.782445e-02
7.090000e+02 1.906978e-02
7.100000e+02 2.039810e-02
7.110000e+02 2.181461e-02
7.120000e+02 2.332488e-02
7.130000e+02 2.493481e-02
7.140000e+02 2.665064e-02
7.150000e+02 2.847882e-02
7.160000e+02 3.042668e-02
7.170000e+02 3.250132e-02
7.180000e+02 3.471001e-02
7.190000e+02 3.706378e-02
7.200000e+02 3.956842e-02
7.210000e+02 4.223429e-02
7.220000e+02 4.507123e-02
7.230000e+02 4.808966e-02
7.240000e+02 5.130062e-02
7.250000e+02 5.471573e-02
7.260000e+02 5.834700e-02
7.270000e+02 6.220805e-02
7.280000e+02 6.631225e-02
7.290000e+02 7.067440e-02
7.300000e+02 7.530939e-02
7.310000e+02 8.023440e-02
7.320000e+02 8.546562e-02
7.330000e+02 9.102145e-02
7.340000e+02 9.692099e-02
7.350000e+02 1.031844e-01
7.360000e+02 1.098320e-01
7.370000e+02 1.168884e-01
7.380000e+02 1.243759e-01
7.390000e+02 1.323196e-01
7.400000e+02 1.407457e-01
7.410000e+02 1.496827e-01
7.420000e+02 1.591591e-01
7.430000e+02 1.692062e-01
7.440000e+02 1.798565e-01
7.450000e+02 1.911442e-01
7.460000e+02 2.031054e-01
7.470000e+02 2.157771e-01
7.480000e+02 2.292018e-01
7.490000e+02 2.434199e-01
7.500000e+02 2.584770e-01
7.510000e+02 2.744194e-01
7.520000e+02 2.912964e-01
7.530000e+02 3.091599e-01
7.540000e+02 3.280644e-01
7.550000e+02 3.480672e-01
7.560000e+02 3.692291e-01
7.570000e+02 3.916100e-01
7.580000e+02 4.152842e-01
7.590000e+02 4.403152e-01
7.600000e+02 4.667832e-01
7.610000e+02 4.947612e-01
7.620000e+02 5.243312e-01
7.630000e+02 5.555793e-01
7.640000e+02 5.885958e-01
7.650000e+02 6.234752e-01
7.660000e+02 6.603132e-01
7.670000e+02 6.992221e-01
7.680000e+02 7.403011e-01
7.690000e+02 7.836853e-01
7.700000e+02 8.294732e-01
7.710000e+02 8.778021e-01
7.720000e+02 9.288037e-01
7.730000e+02 9.826172e-01
7.740000e+02 1.039389e+00
7.750000e+02 1.099274e+00
7.760000e+02 1.162405e+00
7.770000e+02 1.229028e+00
7.780000e+02 1.299249e+00
7.790000e+02 1.373275e+00
7.800000e+02 1.451302e+00
7.810000e+02 1.533533e+00
7.820000e+02 1.620183e+00
7.830000e+02 1.711477e+00
7.840000e+02 1.807647e+00
7.850000e+02 1.908942e+00
7.860000e+02 2.015618e+00
7.870000e+02 2.127959e+00
7.880000e+02 2.246221e+00
7.890000e+02 2.370713e+00
7.900000e+02 2.501727e+00
7.910000e+02 2.639633e+00
7.920000e+02 2.784732e+00
7.930000e+02 2.937388e+00
7.940000e+02 3.097973e+00
7.950000e+02 3.266876e+00
7.960000e+02 3.444503e+00
7.970000e+02 3.631280e+00
7.980000e+02 3.827642e+00
7.990000e+02 4.034077e+00
8.000000e+02 4.251048e+00
8.010000e+02 4.479072e+00
8.020000e+02 4.718678e+00
8.030000e+02 4.970417e+00
8.040000e+02 5.234879e+00
8.050000e+02 5.512660e+00
8.060000e+02 5.804395e+00
8.070000e+02 6.110744e+00
8.080000e+02 6.432381e+00
8.090000e+02 6.770059e+00
8.100000e+02 7.124512e+00
8.110000e+02 7.496527e+00
8.120000e+02 7.886898e+00
8.130000e+02 8.296559e+00
8.140000e+02 8.726315e+00
8.150000e+02 9.177124e+00
8.160000e+02 9.650000e+00
8.170000e+02 1.014588e+01
8.180000e+02 1.066589e+01
8.190000e+02 1.121111e+01
8.200000e+02 1.178268e+01
8.210000e+02 1.238180e+01
8.220000e+02 1.300972e+01
8.230000e+02 1.366775e+01
8.240000e+02 1.435726e+01
8.250000e+02 1.507964e+01
8.260000e+02 1.583633e+01
8.270000e+02 1.662895e+01
8.280000e+02 1.745908e+01
8.290000e+02 1.832836e+01
8.300000e+02 1.923854e+01
8.310000e+02 2.019143e+01
8.320000e+02 2.118892e+01
8.330000e+02 2.223296e+01
8.340000e+02 2.332559e+01
8.350000e+02 2.446216e+01
8.360000e+02 2.566470e+01
8.370000e+02 2.691674e+01
8.380000e+02 2.822594e+01
8.390000e+02 2.959524e+01
8.400000e+02 3.102726e+01
8.410000e+02 3.252467e+01
8.420000e+02 3.408787e+01
8.430000e+02 3.572710e+01
8.440000e+02 3.743811e+01
8.450000e+02 3.922645e+01
8.460000e+02 4.109542e+01
8.470000e+02 4.304844e+01
8.480000e+02 4.508895e+01
8.490000e+02 4.722091e+01
8.500000e+02 4.944788e+01
8.510000e+02 5.177394e+01
8.520000e+02 5.420317e+01
8.530000e+02 5.673999e+01
8.540000e+02 5.938940e+01
8.550000e+02 6.215484e+01
8.560000e+02 6.504171e+01
8.570000e+02 6.805503e+01
8.580000e+02 7.119995e+01
8.590000e+02 7.448177e+01
8.600000e+02 7.790637e+01
8.610000e+02 8.147942e+01
8.620000e+02 8.520694e+01
8.630000e+02 8.909513e+01
8.640000e+02 9.315069e+01
8.650000e+02 9.738010e+01
8.660000e+02 1.017905e+02
8.670000e+02 1.063892e+02
8.680000e+02 1.111836e+02
8.690000e+02 1.161815e+02
8.700000e+02 1.213900e+02
8.710000e+02 1.268207e+02
8.720000e+02 1.324791e+02
8.730000e+02 1.383753e+02
8.740000e+02 1.445186e+02
8.750000e+02 1.509182e+02
8.760000e+02 1.575852e+02
8.770000e+02 1.645292e+02
8.780000e+02 1.717619e+02
8.790000e+02 1.792936e+02
8.800000e+02 1.871362e+02
8.810000e+02 1.953016e+02
8.820000e+02 2.038023e+02
8.830000e+02 2.126514e+02
8.840000e+02 2.218619e+02
8.850000e+02 2.314477e+02
8.860000e+02 2.414234e+02
8.870000e+02 2.518036e+02
8.880000e+02 2.626034e+02
8.890000e+02 2.738391e+02
8.900000e+02 2.855261e+02
8.910000e+02 2.976831e+02
8.920000e+02 3.090417e+02
8.930000e+02 3.234756e+02
8.940000e+02 3.371482e+02
8.950000e+02 3.513640e+02
8.960000e+02 3.661436e+02
8.970000e+02 3.815074e+02
8.980000e+02 3.974773e+02
8.990000e+02 4.140755e+02
9.000000e+02 4.313250e+02
9.010000e+02 4.492497e+02
9.020000e+02 4.678745e+02
9.030000e+02 4.872248e+02
9.040000e+02 5.073130e+02
9.050000e+02 5.282068e+02
9.060000e+02 5.498957e+02
9.070000e+02 5.724145e+02
9.080000e+02 5.958129e+02
9.090000e+02 6.201025e+02
9.100000e+02 6.453218e+02
9.110000e+02 6.715104e+02
9.120000e+02 6.987274e+02
9.130000e+02 7.043129e+02
9.140000e+02 7.979478e+02
9.150000e+02 1.312828e+04
9.160000e+02 4.160987e+04
9.170000e+02 4.386972e+04
9.180000e+02 4.493924e+04
9.190000e+02 4.672095e+04
9.200000e+02 4.818494e+04
9.210000e+02 9.434886e+02
9.220000e+02 5.110602e+04
9.230000e+02 5.231038e+04
9.240000e+02 4.219651e+04
9.250000e+02 5.438925e+04
9.260000e+02 5.728203e+04
9.270000e+02 5.927313e+04
9.280000e+02 6.123983e+04
9.290000e+02 4.653900e+04
9.300000e+02 6.358292e+04
9.310000e+02 6.587493e+04
9.320000e+02 6.903738e+04
9.330000e+02 7.101057e+04
9.340000e+02 7.319345e+04
9.350000e+02 2.147650e+04
9.360000e+02 7.711523e+04
9.370000e+02 1.520930e+04
9.380000e+02 5.988774e+04
9.390000e+02 8.468104e+04
9.400000e+02 8.727521e+04
9.410000e+02 7.031123e+04
9.420000e+02 9.256008e+04
9.430000e+02 9.526431e+04
9.440000e+02 6.944250e+04
9.450000e+02 1.007992e+05
9.460000e+02 1.037961e+05
9.470000e+02 6.528467e+04
9.480000e+02 1.091488e+05
9.490000e+02 1.109029e+05
9.500000e+02 2.440097e+04
9.510000e+02 1.101860e+05
9.520000e+02 1.230711e+05
9.530000e+02 1.265205e+05
9.540000e+02 9.393808e+04
9.550000e+02 1.342053e+05
9.560000e+02 1.390982e+05
9.570000e+02 1.151735e+05
9.580000e+02 1.436502e+05
9.590000e+02 1.511165e+05
9.600000e+02 3.167846e+04
9.610000e+02 1.602107e+05
9.620000e+02 1.644631e+05
9.630000e+02 1.693232e+05
9.640000e+02 5.875203e+03
9.650000e+02 1.504994e+05
9.660000e+02 1.838593e+05
9.670000e+02 1.888841e+05
9.680000e+02 1.919135e+05
9.690000e+02 1.971749e+05
9.700000e+02 2.038840e+05
9.710000e+02 2.062824e+05
9.720000e+02 1.799077e+05
9.730000e+02 1.754371e+05
9.740000e+02 2.218449e+05
9.750000e+02 2.334733e+05
9.760000e+02 2.410195e+05
9.770000e+02 2.479225e+05
9.780000e+02 2.543747e+05
9.790000e+02 2.620567e+05
9.800000e+02 2.691998e+05
9.810000e+02 2.766748e+05
9.820000e+02 2.817688e+05
9.830000e+02 2.915821e+05
9.840000e+02 5.366753e+04
9.850000e+02 3.076863e+05
9.860000e+02 3.159192e+05
9.870000e+02 3.242221e+05
9.880000e+02 3.313608e+05
9.890000e+02 1.953249e+05
9.900000e+02 1.797237e+04
9.910000e+02 3.551405e+05
9.920000e+02 3.600329e+05
9.930000e+02 3.574713e+05
9.940000e+02 4.119506e+04
9.950000e+02 4.267574e+04
9.960000e+02 1.418911e+05
9.970000e+02 7.952788e+04
9.980000e+02 4.283366e+05
9.990000e+02 4.363375e+05
1.000000e+03 4.551613e+05
1.001000e+03 4.669872e+05
1.002000e+03 4.788754e+05
1.003000e+03 4.318022e+05
1.004000e+03 5.040070e+05
1.005000e+03 4.693311e+05
1.006000e+03 5.302179e+05
1.007000e+03 5.437657e+05
1.008000e+03 5.571703e+05
1.009000e+03 5.434743e+05
1.010000e+03 5.860582e+05
1.011000e+03 6.007486e+05
1.012000e+03 6.157202e+05
1.013000e+03 6.311674e+05
1.014000e+03 6.463861e+05
1.015000e+03 6.422253e+05
1.016000e+03 6.772796e+05
1.017000e+03 6.939952e+05
1.018000e+03 7.107869e+05
1.019000e+03 7.264737e+05
1.020000e+03 7.414309e+05
1.021000e+03 6.796534e+05
1.022000e+03 7.448698e+05
1.023000e+03 7.585109e+05
1.024000e+03 7.060690e+05
1.025000e+03 4.187429e+05
1.026000e+03 1.308847e+05
1.027000e+03 6.757796e+05
1.028000e+03 2.326767e+05
1.029000e+03 8.969576e+05
1.030000e+03 9.242938e+05
1.031000e+03 9.692527e+05
1.032000e+03 9.923426e+05
1.033000e+03 5.529475e+05
1.034000e+03 1.052892e+06
1.035000e+03 2.029568e+05
1.036000e+03 1.096148e+06
1.037000e+03 8.393562e+04
1.038000e+03 1.161912e+06
1.039000e+03 1.185248e+06
1.040000e+03 1.221297e+06
1.041000e+03 1.249257e+06
1.042000e+03 1.256528e+06
1.043000e+03 1.299834e+06
1.044000e+03 1.341987e+06
1.045000e+03 1.374503e+06
1.046000e+03 1.409310e+06
1.047000e+03 1.443185e+06
1.048000e+03 1.471038e+06
1.049000e+03 1.506896e+06
1.050000e+03 1.548304e+06
1.051000e+03 1.584814e+06
1.052000e+03 1.622106e+06
1.053000e+03 1.636282e+06
1.054000e+03 1.697885e+06
1.055000e+03 1.738332e+06
1.056000e+03 1.779252e+06
1.057000e+03 1.820386e+06
1.058000e+03 1.862733e+06
1.059000e+03 1.905900e+06
1.060000e+03 1.949754e+06
1.061000e+03 1.994972e+06
1.062000e+03 2.040809e+06
1.063000e+03 1.787856e+06
1.064000e+03 3.421269e+05
1.065000e+03 2.201690e+06
1.066000e+03 2.248127e+06
1.067000e+03 2.240994e+06
1.068000e+03 2.354449e+06
1.069000e+03 2.405976e+06
1.070000e+03 2.444083e+06
1.071000e+03 2.522136e+06
1.072000e+03 2.578708e+06
1.073000e+03 2.635941e+06
1.074000e+03 2.696124e+06
1.075000e+03 2.755564e+06
1.076000e+03 2.818286e+06
1.077000e+03 2.878880e+06
1.078000e+03 2.945756e+06
1.079000e+03 2.991314e+06
1.080000e+03 3.076131e+06
1.081000e+03 3.146191e+06
1.082000e+03 3.211338e+06
1.083000e+03 3.286778e+06
1.084000e+03 3.268945e+06
1.085000e+03 3.116111e+06
1.086000e+03 3.508104e+06
1.087000e+03 3.584138e+06
1.088000e+03 3.639646e+06
1.089000e+03 3.742266e+06
1.090000e+03 3.822509e+06
1.091000e+03 3.906864e+06
1.092000e+03 3.989922e+06
1.093000e+03 4.070444e+06
1.094000e+03 4.165659e+06
1.095000e+03 4.249224e+06
1.096000e+03 4.345924e+06
1.097000e+03 4.383970e+06
1.098000e+03 4.516854e+06
1.099000e+03 4.628304e+06
1.100000e+03 4.627091e+06
1.101000e+03 4.297794e+06
1.102000e+03 1.228940e+07
1.103000e+03 5.432479e+07
1.104000e+03 1.308206e+07
1.105000e+03 4.899296e+06
1.106000e+03 1.673015e+08
1.107000e+03 1.641146e+08
1.108000e+03 1.732086e+08
1.109000e+03 1.135473e+08
1.110000e+03 1.985893e+07
1.111000e+03 1.288406e+07
1.112000e+03 1.638665e+08
1.113000e+03 1.870338e+08
1.114000e+03 3.824224e+06
1.115000e+03 1.829906e+08
1.116000e+03 1.903164e+08
1.117000e+03 3.201152e+06
1.118000e+03 1.826249e+08
1.119000e+03 1.998280e+08
1.120000e+03 2.027199e+08
1.121000e+03 1.287248e+08
1.122000e+03 7.470720e+05
1.123000e+03 1.987682e+07
1.124000e+03 2.140405e+08
1.125000e+03 8.113578e+07
1.126000e+03 2.227972e+08
1.127000e+03 2.022778e+08
1.128000e+03 1.032915e+08
1.129000e+03 2.243811e+08
1.130000e+03 1.725039e+08
1.131000e+03 2.416815e+08
1.132000e+03 2.704000e+06
1.133000e+03 2.405228e+08
1.134000e+03 2.301183e+08
1.135000e+03 2.659296e+06
1.136000e+03 2.561360e+08
1.137000e+03 2.620810e+08
1.138000e+03 2.687759e+08
1.139000e+03 2.600437e+08
1.140000e+03 1.771696e+06
1.141000e+03 2.812920e+08
1.142000e+03 2.708050e+08
1.143000e+03 2.875104e+08
1.144000e+03 2.926638e+08
1.145000e+03 1.776933e+08
1.146000e+03 3.020396e+08
1.147000e+03 2.910411e+08
1.148000e+03 2.978023e+08
1.149000e+03 3.127747e+08
1.150000e+03 2.943163e+08
1.151000e+03 3.152102e+08
1.152000e+03 3.242770e+08
1.153000e+03 7.729493e+07
1.154000e+03 4.564640e+06
1.155000e+03 2.952519e+08
1.156000e+03 1.281432e+08
1.157000e+03 3.472776e+08
1.158000e+03 4.939936e+06
1.159000e+03 2.805012e+08
1.160000e+03 3.660740e+08
1.161000e+03 3.726618e+08
1.162000e+03 2.635267e+07
1.163000e+03 3.737979e+08
1.164000e+03 8.646768e+06
1.165000e+03 3.917957e+08
1.166000e+03 3.894894e+08
1.167000e+03 3.655187e+08
1.168000e+03 4.074883e+08
1.169000e+03 3.837890e+08
1.170000e+03 4.178113e+08
1.171000e+03 4.228460e+08
1.172000e+03 4.053188e+08
1.173000e+03 4.318743e+08
1.174000e+03 4.288473e+08
1.175000e+03 7.836288e+06
1.176000e+03 4.988928e+06
1.177000e+03 4.453851e+08
1.178000e+03 4.222904e+08
1.179000e+03 4.560161e+08
1.180000e+03 3.607449e+08
1.181000e+03 4.472396e+08
1.182000e+03 4.641980e+08
1.183000e+03 4.657096e+08
1.184000e+03 4.672821e+08
1.185000e+03 4.574952e+08
1.186000e+03 4.675783e+08
1.187000e+03 4.668732e+08
1.188000e+03 4.557421e+08
1.189000e+03 5.017408e+06
1.190000e+03 1.100437e+08
1.191000e+03 4.357634e+08
1.192000e+03 4.332936e+08
1.193000e+03 3.810960e+06
1.194000e+03 5.775936e+06
1.195000e+03 1.955959e+08
1.196000e+03 4.043247e+08
1.197000e+03 4.228279e+08
1.198000e+03 4.238715e+08
1.199000e+03 3.979049e+08
1.200000e+03 3.283344e+08
1.201000e+03 3.475088e+08
1.202000e+03 3.372533e+08
1.203000e+03 3.250761e+08
1.204000e+03 2.878096e+08
1.205000e+03 2.558851e+08
1.206000e+03 2.111580e+08
1.207000e+03 1.120982e+08
1.208000e+03 1.514845e+08
1.209000e+03 1.136537e+08
1.210000e+03 1.145062e+07
1.211000e+03 6.037638e+07
1.212000e+03 3.835823e+07
1.213000e+03 2.235766e+07
1.214000e+03 1.237329e+07
1.215000e+03 7.167112e+06
1.216000e+03 6.107870e+06
1.217000e+03 1.072923e+07
1.218000e+03 2.007651e+07
1.219000e+03 3.663825e+07
1.220000e+03 6.150245e+07
1.221000e+03 9.452345e+07
1.222000e+03 1.349246e+08
1.223000e+03 1.817839e+08
1.224000e+03 2.342190e+08
1.225000e+03 2.914347e+08
1.226000e+03 3.516529e+08
1.227000e+03 4.123021e+08
1.228000e+03 4.852821e+08
1.229000e+03 5.550193e+08
1.230000e+03 6.261380e+08
1.231000e+03 7.002372e+08
1.232000e+03 7.747647e+08
1.233000e+03 8.497211e+08
1.234000e+03 4.721100e+08
1.235000e+03 9.997922e+08
1.236000e+03 1.075087e+09
1.237000e+03 1.148863e+09
1.238000e+03 1.224234e+09
1.239000e+03 1.297978e+09
1.240000e+03 1.253911e+09
1.241000e+03 2.014813e+09
1.242000e+03 1.227213e+09
1.243000e+03 1.900574e+09
1.244000e+03 8.341972e+08
1.245000e+03 1.220668e+09
1.246000e+03 3.353325e+09
1.247000e+03 3.625498e+09
1.248000e+03 8.958180e+08
1.249000e+03 1.234170e+09
1.250000e+03 4.367548e+09
1.251000e+03 4.592042e+09
1.252000e+03 4.808313e+09
1.253000e+03 5.173710e+09
1.254000e+03 5.314519e+09
1.255000e+03 5.695572e+09
1.256000e+03 5.935546e+09
1.257000e+03 6.277423e+09
1.258000e+03 6.425188e+09
1.259000e+03 6.005153e+09
1.260000e+03 4.202404e+09
1.261000e+03 1.700291e+07
1.262000e+03 5.646899e+08
1.263000e+03 7.394312e+09
1.264000e+03 5.889227e+09
1.265000e+03 1.432320e+07
1.266000e+03 7.890594e+09
1.267000e+03 9.106787e+09
