# wavelength_A flux
5.000000e+02 8.982323e-43
5.010000e+02 1.192505e-42
5.020000e+02 1.580665e-42
5.030000e+02 2.093540e-42
5.040000e+02 2.770367e-42
5.050000e+02 4.303388e-42
5.060000e+02 5.671055e-42
5.070000e+02 7.459112e-42
5.080000e+02 9.814694e-42
5.090000e+02 1.288914e-41
5.100000e+02 1.309373e-41
5.110000e+02 2.215733e-41
5.120000e+02 2.897044e-41
5.130000e+02 3.793175e-41
5.140000e+02 4.955272e-41
5.150000e+02 6.466432e-41
5.160000e+02 8.429511e-41
5.170000e+02 1.097959e-40
5.180000e+02 1.428498e-40
5.190000e+02 1.856678e-40
5.200000e+02 2.410752e-40
5.210000e+02 3.127026e-40
5.220000e+02 4.048884e-40
5.230000e+02 5.245705e-40
5.240000e+02 6.784695e-40
5.250000e+02 8.766285e-40
5.260000e+02 1.131563e-39
5.270000e+02 1.459228e-39
5.280000e+02 1.879974e-39
5.290000e+02 2.419729e-39
5.300000e+02 3.111505e-39
5.310000e+02 3.997287e-39
5.320000e+02 5.130424e-39
5.330000e+02 6.578646e-39
5.340000e+02 8.427849e-39
5.350000e+02 1.078683e-38
5.360000e+02 1.379284e-38
5.370000e+02 1.641501e-38
5.380000e+02 2.249229e-38
5.390000e+02 2.868559e-38
5.400000e+02 3.654959e-38
5.410000e+02 4.651949e-38
5.420000e+02 5.917700e-38
5.430000e+02 7.519893e-38
5.440000e+02 9.547488e-38
5.450000e+02 1.211121e-37
5.460000e+02 1.535002e-37
5.470000e+02 1.943816e-37
5.480000e+02 2.459395e-37
5.490000e+02 3.109069e-37
5.500000e+02 3.927022e-37
5.510000e+02 4.955976e-37
5.520000e+02 6.249278e-37
5.530000e+02 7.873488e-37
5.540000e+02 9.911489e-37
5.550000e+02 1.246693e-36
5.560000e+02 1.566817e-36
5.570000e+02 1.967530e-36
5.580000e+02 2.468712e-36
5.590000e+02 3.095049e-36
5.600000e+02 3.877166e-36
5.610000e+02 4.853027e-36
5.620000e+02 6.069661e-36
5.630000e+02 7.585276e-36
5.640000e+02 9.471859e-36
5.650000e+02 1.181838e-35
5.660000e+02 1.473469e-35
5.670000e+02 1.835634e-35
5.680000e+02 2.285048e-35
5.690000e+02 2.842301e-35
5.700000e+02 3.532744e-35
5.710000e+02 4.387563e-35
5.720000e+02 5.445092e-35
5.730000e+02 6.752422e-35
5.740000e+02 8.367349e-35
5.750000e+02 1.036077e-34
5.760000e+02 1.282021e-34
5.770000e+02 1.585186e-34
5.780000e+02 1.958485e-34
5.790000e+02 2.417921e-34
5.800000e+02 2.982960e-34
5.810000e+02 3.677364e-34
5.820000e+02 4.530108e-34
5.830000e+02 5.576324e-34
5.840000e+02 6.850072e-34
5.850000e+02 8.430127e-34
5.860000e+02 1.035889e-33
5.870000e+02 1.271646e-33
5.880000e+02 1.559926e-33
5.890000e+02 1.912216e-33
5.900000e+02 2.342438e-33
5.910000e+02 2.867475e-33
5.920000e+02 3.507785e-33
5.930000e+02 4.288148e-33
5.940000e+02 5.238556e-33
5.950000e+02 6.395286e-33
5.960000e+02 7.802184e-33
5.970000e+02 9.512218e-33
5.980000e+02 1.158933e-32
5.990000e+02 1.411064e-32
6.000000e+02 1.716916e-32
6.010000e+02 2.087691e-32
6.020000e+02 2.536880e-32
6.030000e+02 3.080713e-32
6.040000e+02 3.738710e-32
6.050000e+02 4.534327e-32
6.060000e+02 5.495733e-32
6.070000e+02 6.656740e-32
6.080000e+02 8.057904e-32
6.090000e+02 9.747842e-32
6.100000e+02 1.178479e-31
6.110000e+02 1.423849e-31
6.120000e+02 1.719236e-31
6.130000e+02 2.074618e-31
6.140000e+02 2.501918e-31
6.150000e+02 3.015378e-31
6.160000e+02 3.631994e-31
6.170000e+02 4.372046e-31
6.180000e+02 5.259709e-31
6.190000e+02 6.323786e-31
6.200000e+02 7.598583e-31
6.210000e+02 9.124920e-31
6.220000e+02 1.095135e-30
6.230000e+02 1.313560e-30
6.240000e+02 1.574624e-30
6.250000e+02 1.886470e-30
6.260000e+02 2.258759e-30
6.270000e+02 2.702951e-30
6.280000e+02 3.232631e-30
6.290000e+02 3.863889e-30
6.300000e+02 4.615770e-30
6.310000e+02 5.498022e-30
6.320000e+02 6.575750e-30
6.330000e+02 7.842011e-30
6.340000e+02 9.346879e-30
6.350000e+02 1.113353e-29
6.360000e+02 1.325616e-29
6.370000e+02 1.577366e-29
6.380000e+02 1.875892e-29
6.390000e+02 2.229694e-29
6.400000e+02 2.648778e-29
6.410000e+02 3.144924e-29
6.420000e+02 3.731984e-29
6.430000e+02 4.426247e-29
6.440000e+02 5.246853e-29
6.450000e+02 6.216279e-29
6.460000e+02 7.360911e-29
6.470000e+02 8.711703e-29
6.480000e+02 1.030496e-28
6.490000e+02 1.218321e-28
6.500000e+02 1.439630e-28
6.510000e+02 1.700259e-28
6.520000e+02 2.007033e-28
6.530000e+02 2.367941e-28
6.540000e+02 2.792317e-28
6.550000e+02 3.291071e-28
6.560000e+02 3.876943e-28
6.570000e+02 4.564806e-28
6.580000e+02 5.372009e-28
6.590000e+02 6.318788e-28
6.600000e+02 7.428727e-28
6.610000e+02 8.729303e-28
6.620000e+02 1.025251e-27
6.630000e+02 1.203559e-27
6.640000e+02 1.412185e-27
6.650000e+02 1.656168e-27
6.660000e+02 1.941394e-27
6.670000e+02 2.274604e-27
6.680000e+02 2.663723e-27
6.690000e+02 3.117915e-27
6.700000e+02 3.647812e-27
6.710000e+02 4.265742e-27
6.720000e+02 4.985991e-27
6.730000e+02 5.825109e-27
6.740000e+02 6.802261e-27
6.750000e+02 7.939625e-27
6.760000e+02 9.262859e-27
6.770000e+02 1.080163e-26
6.780000e+02 1.259023e-26
6.790000e+02 1.466828e-26
6.800000e+02 1.708152e-26
6.810000e+02 1.988275e-26
6.820000e+02 2.313290e-26
6.830000e+02 2.690222e-26
6.840000e+02 3.127169e-26
6.850000e+02 3.633463e-26
6.860000e+02 4.219851e-26
6.870000e+02 4.898705e-26
6.880000e+02 5.684261e-26
6.890000e+02 6.592896e-26
6.900000e+02 7.643436e-26
6.910000e+02 8.857520e-26
6.920000e+02 1.026000e-25
6.930000e+02 1.187943e-25
6.940000e+02 1.374856e-25
6.950000e+02 1.590497e-25
6.960000e+02 1.839178e-25
6.970000e+02 2.125840e-25
6.980000e+02 2.456144e-25
6.990000e+02 2.836575e-25
7.000000e+02 3.274565e-25
7.010000e+02 3.778606e-25
7.020000e+02 4.358421e-25
7.030000e+02 5.025130e-25
7.040000e+02 5.791442e-25
7.050000e+02 6.671877e-25
7.060000e+02 7.682877e-25
7.070000e+02 8.843815e-25
7.080000e+02 1.017587e-24
7.090000e+02 1.170384e-24
7.100000e+02 1.345584e-24
7.110000e+02 1.546392e-24
7.120000e+02 1.776461e-24
7.130000e+02 2.039950e-24
7.140000e+02 2.341596e-24
7.150000e+02 2.686789e-24
7.160000e+02 3.081665e-24
7.170000e+02 3.533197e-24
7.180000e+02 4.049317e-24
7.190000e+02 4.639035e-24
7.200000e+02 5.312592e-24
7.210000e+02 6.081612e-24
7.220000e+02 6.959294e-24
7.230000e+02 7.960612e-24
7.240000e+02 9.102555e-24
7.250000e+02 1.040438e-23
7.260000e+02 1.188793e-23
7.270000e+02 1.357794e-23
7.280000e+02 1.550242e-23
7.290000e+02 1.769310e-23
7.300000e+02 2.018590e-23
7.310000e+02 2.302144e-23
7.320000e+02 2.624566e-23
7.330000e+02 2.991072e-23
7.340000e+02 3.407497e-23
7.350000e+02 3.880494e-23
7.360000e+02 4.417548e-23
7.370000e+02 5.027137e-23
7.380000e+02 5.718792e-23
7.390000e+02 6.503290e-23
7.400000e+02 7.392783e-23
7.410000e+02 8.400967e-23
7.420000e+02 9.543281e-23
7.430000e+02 1.083712e-22
7.440000e+02 1.230208e-22
7.450000e+02 1.396022e-22
7.460000e+02 1.583636e-22
7.470000e+02 1.795845e-22
7.480000e+02 2.035789e-22
7.490000e+02 2.307004e-22
7.500000e+02 2.613461e-22
7.510000e+02 2.959620e-22
7.520000e+02 3.350497e-22
7.530000e+02 3.791719e-22
7.540000e+02 4.289606e-22
7.550000e+02 4.851249e-22
7.560000e+02 5.484603e-22
7.570000e+02 6.198585e-22
7.580000e+02 7.003209e-22
7.590000e+02 7.909671e-22
7.600000e+02 8.930537e-22
7.610000e+02 1.007987e-21
7.620000e+02 1.137342e-21
7.630000e+02 1.282882e-21
7.640000e+02 1.446580e-21
7.650000e+02 1.630633e-21
7.660000e+02 1.837533e-21
7.670000e+02 2.070018e-21
7.680000e+02 2.331174e-21
7.690000e+02 2.624413e-21
7.700000e+02 2.953689e-21
7.710000e+02 3.323189e-21
7.720000e+02 3.737745e-21
7.730000e+02 4.202705e-21
7.740000e+02 4.724039e-21
7.750000e+02 5.308403e-21
7.760000e+02 5.963217e-21
7.770000e+02 6.696752e-21
7.780000e+02 7.518221e-21
7.790000e+02 8.437891e-21
7.800000e+02 9.467189e-21
7.810000e+02 1.061884e-20
7.820000e+02 1.190700e-20
7.830000e+02 1.334743e-20
7.840000e+02 1.495765e-20
7.850000e+02 1.675714e-20
7.860000e+02 1.876756e-20
7.870000e+02 2.101301e-20
7.880000e+02 2.352017e-20
7.890000e+02 2.631875e-20
7.900000e+02 2.944174e-20
7.910000e+02 3.292573e-20
7.920000e+02 3.681066e-20
7.930000e+02 4.114349e-20
7.940000e+02 4.597258e-20
7.950000e+02 5.135358e-20
7.960000e+02 5.734806e-20
7.970000e+02 6.402408e-20
7.980000e+02 7.145704e-20
7.990000e+02 7.973046e-20
8.000000e+02 8.893681e-20
8.010000e+02 9.917843e-20
8.020000e+02 1.105686e-19
8.030000e+02 1.232327e-19
8.040000e+02 1.373092e-19
8.050000e+02 1.527606e-19
8.060000e+02 1.703287e-19
8.070000e+02 1.896288e-19
8.080000e+02 2.110580e-19
8.090000e+02 2.348450e-19
8.100000e+02 2.612422e-19
8.110000e+02 2.905281e-19
8.120000e+02 3.230104e-19
8.130000e+02 3.590281e-19
8.140000e+02 3.989553e-19
8.150000e+02 4.432059e-19
8.160000e+02 4.922337e-19
8.170000e+02 5.465409e-19
8.180000e+02 6.066804e-19
8.190000e+02 6.732610e-19
8.200000e+02 7.469538e-19
8.210000e+02 8.284973e-19
8.220000e+02 9.187050e-19
8.230000e+02 1.018472e-18
8.240000e+02 1.128783e-18
8.250000e+02 1.250721e-18
8.260000e+02 1.385478e-18
8.270000e+02 1.534365e-18
8.280000e+02 1.698820e-18
8.290000e+02 1.880428e-18
8.300000e+02 2.080926e-18
8.310000e+02 2.302225e-18
8.320000e+02 2.546423e-18
8.330000e+02 2.815822e-18
8.340000e+02 3.112952e-18
8.350000e+02 3.440409e-18
8.360000e+02 3.801763e-18
8.370000e+02 4.199828e-18
8.380000e+02 4.638440e-18
8.390000e+02 5.121610e-18
8.400000e+02 5.653739e-18
8.410000e+02 6.239648e-18
8.420000e+02 6.884617e-18
8.430000e+02 7.594426e-18
8.440000e+02 8.375420e-18
8.450000e+02 9.234510e-18
8.460000e+02 1.017935e-17
8.470000e+02 1.121740e-17
8.480000e+02 1.235956e-17
8.490000e+02 1.361508e-17
8.500000e+02 1.499173e-17
8.510000e+02 1.650864e-17
8.520000e+02 1.816849e-17
8.530000e+02 1.999856e-17
8.540000e+02 2.200350e-17
8.550000e+02 2.420387e-17
8.560000e+02 2.661822e-17
8.570000e+02 2.926669e-17
8.580000e+02 3.216966e-17
8.590000e+02 3.535629e-17
8.600000e+02 3.884736e-17
8.610000e+02 4.267435e-17
8.620000e+02 4.686743e-17
8.630000e+02 5.146097e-17
8.640000e+02 5.648078e-17
8.650000e+02 6.200142e-17
8.660000e+02 6.803266e-17
8.670000e+02 7.463471e-17
8.680000e+02 8.185914e-17
8.690000e+02 8.976321e-17
8.700000e+02 9.834954e-17
8.710000e+02 1.078640e-16
8.720000e+02 1.181885e-16
8.730000e+02 1.295027e-16
8.740000e+02 1.418533e-16
8.750000e+02 1.553484e-16
8.760000e+02 1.700894e-16
8.770000e+02 1.861930e-16
8.780000e+02 2.036631e-16
8.790000e+02 2.229629e-16
8.800000e+02 2.439019e-16
8.810000e+02 2.667512e-16
8.820000e+02 2.917414e-16
8.830000e+02 3.189412e-16
8.840000e+02 3.485299e-16
8.850000e+02 3.810031e-16
8.860000e+02 4.162865e-16
8.870000e+02 4.547437e-16
8.880000e+02 4.966144e-16
8.890000e+02 5.422795e-16
8.900000e+02 5.920472e-16
8.910000e+02 6.462115e-16
8.920000e+02 7.051931e-16
8.930000e+02 7.694002e-16
8.940000e+02 8.392423e-16
8.950000e+02 9.153337e-16
8.960000e+02 9.980741e-16
8.970000e+02 1.088077e-15
8.980000e+02 1.185892e-15
8.990000e+02 1.292394e-15
9.000000e+02 1.408077e-15
9.010000e+02 1.533870e-15
9.020000e+02 1.670323e-15
9.030000e+02 1.817696e-15
9.040000e+02 1.979849e-15
9.050000e+02 2.155511e-15
9.060000e+02 2.345796e-15
9.070000e+02 2.552344e-15
9.080000e+02 2.776543e-15
9.090000e+02 3.019856e-15
9.100000e+02 3.283872e-15
9.110000e+02 3.569882e-15
9.120000e+02 3.880966e-15
9.130000e+02 4.215214e-15
9.140000e+02 8.098403e-15
9.150000e+02 1.985482e-14
9.160000e+02 6.679950e-14
9.170000e+02 1.283093e-14
9.180000e+02 2.921351e-14
9.190000e+02 2.002893e-13
9.200000e+02 6.768487e-13
9.210000e+02 8.173733e-15
9.220000e+02 1.652114e-14
9.230000e+02 2.117714e-14
9.240000e+02 1.934014e-14
9.250000e+02 2.458203e-14
9.260000e+02 4.150468e-14
9.270000e+02 2.560994e-14
9.280000e+02 3.148441e-12
9.290000e+02 1.564712e-12
9.300000e+02 1.568972e-13
9.310000e+02 4.326467e-14
9.320000e+02 5.060558e-14
9.330000e+02 2.940692e-14
9.340000e+02 5.340792e-14
9.350000e+02 4.764643e-14
9.360000e+02 6.554556e-14
9.370000e+02 4.887097e-14
9.380000e+02 7.255868e-14
9.390000e+02 8.940383e-14
9.400000e+02 1.798738e-13
9.410000e+02 5.427558e-14
9.420000e+02 9.430016e-12
9.430000e+02 1.224011e-13
9.440000e+02 6.762288e-12
9.450000e+02 4.265345e-12
9.460000e+02 7.819339e-14
9.470000e+02 6.691462e-14
9.480000e+02 1.889592e-13
9.490000e+02 2.918829e-13
9.500000e+02 1.543023e-13
9.510000e+02 1.207480e-13
9.520000e+02 1.647148e-13
9.530000e+02 2.075429e-13
9.540000e+02 1.111057e-13
9.550000e+02 3.017665e-13
9.560000e+02 3.936234e-13
9.570000e+02 3.586307e-13
9.580000e+02 1.483488e-13
9.590000e+02 2.161838e-13
9.600000e+02 3.267206e-13
9.610000e+02 2.456960e-13
9.620000e+02 3.656350e-13
9.630000e+02 4.931912e-13
9.640000e+02 4.089132e-13
9.650000e+02 2.663167e-13
9.660000e+02 6.963675e-13
9.670000e+02 4.703634e-13
9.680000e+02 4.476314e-13
9.690000e+02 7.889032e-13
9.700000e+02 4.864273e-13
9.710000e+02 7.459875e-13
9.720000e+02 5.248290e-13
9.730000e+02 7.984212e-13
9.740000e+02 7.948053e-13
9.750000e+02 1.321984e-12
9.760000e+02 2.136533e-12
9.770000e+02 8.112384e-13
9.780000e+02 8.786819e-13
9.790000e+02 3.024589e-11
9.800000e+02 3.293085e-12
9.810000e+02 1.562300e-12
9.820000e+02 2.180830e-12
9.830000e+02 3.515597e-12
9.840000e+02 1.541559e-12
9.850000e+02 2.694109e-12
9.860000e+02 2.710658e-12
9.870000e+02 1.788666e-12
9.880000e+02 1.404746e-12
9.890000e+02 1.853623e-12
9.900000e+02 2.528045e-12
9.910000e+02 4.074163e-12
9.920000e+02 1.752119e-12
9.930000e+02 1.016311e-11
9.940000e+02 4.150730e-12
9.950000e+02 3.500311e-12
9.960000e+02 3.214540e-12
9.970000e+02 6.520998e-12
9.980000e+02 3.842407e-12
9.990000e+02 6.837596e-12
1.000000e+03 1.086278e-10
1.001000e+03 4.912910e-11
1.002000e+03 1.044402e-11
1.003000e+03 8.280931e-12
1.004000e+03 4.062202e-12
1.005000e+03 1.031286e-11
1.006000e+03 9.420634e-12
1.007000e+03 2.414802e-11
1.008000e+03 8.239597e-12
1.009000e+03 1.263240e-11
1.010000e+03 7.631580e-12
1.011000e+03 8.527836e-12
1.012000e+03 1.112331e-11
1.013000e+03 1.247487e-11
1.014000e+03 7.902547e-12
1.015000e+03 8.684216e-12
1.016000e+03 2.136927e-11
1.017000e+03 9.652869e-12
1.018000e+03 1.946256e-11
1.019000e+03 1.108152e-11
1.020000e+03 1.707650e-11
1.021000e+03 3.096219e-11
1.022000e+03 3.302944e-11
1.023000e+03 1.590283e-11
1.024000e+03 4.131533e-11
1.025000e+03 1.636446e-11
1.026000e+03 3.149867e-11
1.027000e+03 3.248598e-11
1.028000e+03 3.935590e-11
1.029000e+03 2.123919e-11
1.030000e+03 5.337192e-11
1.031000e+03 3.446227e-11
1.032000e+03 1.143441e-10
1.033000e+03 4.357838e-11
1.034000e+03 4.733940e-11
1.035000e+03 6.415656e-11
1.036000e+03 3.335626e-11
1.037000e+03 4.549378e-11
1.038000e+03 1.461740e-10
1.039000e+03 7.263407e-11
1.040000e+03 5.852305e-11
1.041000e+03 7.720972e-11
1.042000e+03 1.609199e-10
1.043000e+03 4.193207e-10
1.044000e+03 1.168064e-09
1.045000e+03 1.124955e-10
1.046000e+03 8.044224e-11
1.047000e+03 8.467615e-11
1.048000e+03 1.128055e-10
1.049000e+03 1.120752e-10
1.050000e+03 1.928068e-10
1.051000e+03 2.011483e-10
1.052000e+03 2.888451e-10
1.053000e+03 2.368933e-10
1.054000e+03 1.034362e-10
1.055000e+03 3.409587e-10
1.056000e+03 4.172515e-10
1.057000e+03 1.633169e-10
1.058000e+03 2.735204e-10
1.059000e+03 3.317678e-10
1.060000e+03 2.198905e-10
1.061000e+03 3.500316e-10
1.062000e+03 2.775615e-10
1.063000e+03 2.612345e-10
1.064000e+03 3.553873e-10
1.065000e+03 2.025692e-10
1.066000e+03 5.636154e-10
1.067000e+03 4.740760e-10
1.068000e+03 1.237844e-09
1.069000e+03 3.138222e-10
1.070000e+03 5.883556e-10
1.071000e+03 3.909000e-10
1.072000e+03 1.080753e-08
1.073000e+03 3.274747e-10
1.074000e+03 4.343489e-10
1.075000e+03 5.136531e-10
1.076000e+03 1.053050e-08
1.077000e+03 6.943187e-10
1.078000e+03 7.899472e-10
1.079000e+03 1.089123e-09
1.080000e+03 6.810486e-10
1.081000e+03 1.242946e-09
1.082000e+03 7.998238e-10
1.083000e+03 7.384990e-10
1.084000e+03 2.336009e-08
1.085000e+03 1.399731e-09
1.086000e+03 3.459135e-09
1.087000e+03 1.519981e-09
1.088000e+03 1.238881e-08
1.089000e+03 1.790116e-08
1.090000e+03 2.026959e-09
1.091000e+03 1.881503e-09
1.092000e+03 1.394259e-08
1.093000e+03 3.328129e-08
1.094000e+03 1.539393e-09
1.095000e+03 5.147398e-08
1.096000e+03 2.016841e-08
1.097000e+03 1.410859e-08
1.098000e+03 3.025310e-08
1.099000e+03 2.832245e-09
1.100000e+03 1.650325e-09
1.101000e+03 2.312483e-09
1.102000e+03 3.530162e-09
1.103000e+03 2.398721e-07
1.104000e+03 1.600192e-08
1.105000e+03 1.000145e-07
1.106000e+03 2.763843e-09
1.107000e+03 2.806593e-09
1.108000e+03 1.009620e-08
1.109000e+03 5.937105e-09
1.110000e+03 1.507943e-08
1.111000e+03 1.118516e-07
1.112000e+03 4.881230e-09
1.113000e+03 1.988510e-07
1.114000e+03 4.208205e-09
1.115000e+03 8.104280e-09
1.116000e+03 5.409265e-09
1.117000e+03 1.680207e-07
1.118000e+03 9.583475e-09
1.119000e+03 5.517720e-09
1.120000e+03 8.537281e-09
1.121000e+03 4.539531e-08
1.122000e+03 9.805140e-07
1.123000e+03 2.119017e-07
1.124000e+03 2.290462e-07
1.125000e+03 8.703054e-08
1.126000e+03 1.922377e-06
1.127000e+03 3.859735e-08
1.128000e+03 3.812077e-07
1.129000e+03 1.348681e-08
1.130000e+03 5.009230e-07
1.131000e+03 1.015895e-06
1.132000e+03 1.638523e-08
1.133000e+03 1.358887e-08
1.134000e+03 6.772564e-08
1.135000e+03 7.493050e-07
1.136000e+03 1.464514e-08
1.137000e+03 3.464750e-07
1.138000e+03 3.464667e-08
1.139000e+03 5.392022e-07
1.140000e+03 1.630384e-07
1.141000e+03 1.714167e-06
1.142000e+03 1.018978e-06
1.143000e+03 2.229285e-08
1.144000e+03 1.479759e-06
1.145000e+03 2.422390e-08
1.146000e+03 7.770728e-07
1.147000e+03 1.072730e-06
1.148000e+03 4.660518e-08
1.149000e+03 3.028518e-07
1.150000e+03 2.292085e-07
1.151000e+03 7.593531e-07
1.152000e+03 8.696586e-08
1.153000e+03 1.703939e-06
1.154000e+03 2.616255e-06
1.155000e+03 5.883830e-07
1.156000e+03 1.414099e-06
1.157000e+03 1.804333e-06
1.158000e+03 4.976823e-08
1.159000e+03 1.312177e-06
1.160000e+03 1.098863e-07
1.161000e+03 1.539898e-06
1.162000e+03 7.631247e-08
1.163000e+03 5.977358e-08
1.164000e+03 7.968806e-08
1.165000e+03 3.201606e-07
1.166000e+03 2.059376e-07
1.167000e+03 2.105116e-07
1.168000e+03 1.418221e-06
1.169000e+03 2.846244e-06
1.170000e+03 9.893589e-08
1.171000e+03 1.114778e-06
1.172000e+03 3.760874e-07
1.173000e+03 8.262128e-07
1.174000e+03 1.243811e-07
1.175000e+03 1.544236e-07
1.176000e+03 1.391640e-07
1.177000e+03 4.073819e-06
1.178000e+03 4.015834e-06
1.179000e+03 3.266758e-06
1.180000e+03 9.703506e-07
1.181000e+03 3.358665e-06
1.182000e+03 2.275953e-06
1.183000e+03 6.682521e-07
1.184000e+03 5.303593e-07
1.185000e+03 5.465370e-07
1.186000e+03 2.966081e-07
1.187000e+03 2.063990e-06
1.188000e+03 4.908190e-07
1.189000e+03 2.729290e-06
1.190000e+03 2.554165e-06
1.191000e+03 1.960873e-06
1.192000e+03 2.112280e-06
1.193000e+03 1.332857e-06
1.194000e+03 2.112009e-06
1.195000e+03 1.948698e-06
1.196000e+03 3.269422e-05
1.197000e+03 2.851898e-04
1.198000e+03 5.176844e-07
1.199000e+03 2.250224e-04
1.200000e+03 3.499742e-07
1.201000e+03 5.746547e-05
1.202000e+03 3.815471e-06
1.203000e+03 5.060878e-05
1.204000e+03 4.026487e-07
1.205000e+03 2.598862e-05
1.206000e+03 1.576603e-05
1.207000e+03 1.888664e-06
1.208000e+03 1.232812e-05
1.209000e+03 1.935284e-05
1.210000e+03 7.610163e-07
1.211000e+03 5.271974e-06
1.212000e+03 8.120978e-07
1.213000e+03 1.179789e-06
1.214000e+03 8.663900e-07
1.215000e+03 9.171497e-07
1.216000e+03 6.602575e-07
1.217000e+03 1.039022e-06
1.218000e+03 1.197477e-06
1.219000e+03 2.388992e-06
1.220000e+03 9.413602e-07
1.221000e+03 1.145935e-05
1.222000e+03 5.647029e-06
1.223000e+03 1.968721e-06
1.224000e+03 4.115510e-05
1.225000e+03 1.800745e-06
1.226000e+03 1.259276e-04
1.227000e+03 1.464139e-04
1.228000e+03 1.291766e-06
1.229000e+03 1.035266e-04
1.230000e+03 4.203440e-05
1.231000e+03 1.581269e-06
1.232000e+03 4.761140e-04
1.233000e+03 6.464550e-04
1.234000e+03 6.994243e-04
1.235000e+03 2.754703e-04
1.236000e+03 2.133009e-06
1.237000e+03 7.766223e-04
1.238000e+03 4.844009e-04
1.239000e+03 1.733640e-05
1.240000e+03 2.563961e-04
1.241000e+03 6.720240e-05
1.242000e+03 2.281104e-04
1.243000e+03 1.066365e-03
1.244000e+03 1.220189e-03
1.245000e+03 1.201685e-03
1.246000e+03 1.523561e-04
1.247000e+03 2.906863e-04
1.248000e+03 1.159467e-03
1.249000e+03 1.679443e-03
1.250000e+03 8.525972e-04
1.251000e+03 1.491607e-03
1.252000e+03 7.209759e-04
1.253000e+03 1.762319e-03
1.254000e+03 6.476646e-04
1.255000e+03 1.287644e-04
1.256000e+03 3.752689e-04
1.257000e+03 4.847524e-04
1.258000e+03 9.272137e-05
1.259000e+03 1.475189e-04
1.260000e+03 1.409833e-03
1.261000e+03 1.218775e-05
1.262000e+03 1.423033e-03
1.263000e+03 9.406365e-04
1.264000e+03 1.231760e-04
1.265000e+03 4.040642e-04
1.266000e+03 1.459315e-03
1.267000e+03 3.871506e-04
