# wavelength_A flux
5.000000e+02 6.314464e-36
5.010000e+02 8.127048e-36
5.020000e+02 1.044937e-35
5.030000e+02 1.342182e-35
5.040000e+02 1.722259e-35
5.050000e+02 2.515871e-35
5.060000e+02 3.215610e-35
5.070000e+02 4.101080e-35
5.080000e+02 5.233800e-35
5.090000e+02 6.667406e-35
5.100000e+02 7.229434e-35
5.110000e+02 1.079055e-34
5.120000e+02 1.369263e-34
5.130000e+02 1.739935e-34
5.140000e+02 2.206440e-34
5.150000e+02 2.795381e-34
5.160000e+02 3.538237e-34
5.170000e+02 4.475410e-34
5.180000e+02 5.655174e-34
5.190000e+02 7.139622e-34
5.200000e+02 9.005819e-34
5.210000e+02 1.134979e-33
5.220000e+02 1.428147e-33
5.230000e+02 1.798013e-33
5.240000e+02 2.260274e-33
5.250000e+02 2.838854e-33
5.260000e+02 3.562500e-33
5.270000e+02 4.466833e-33
5.280000e+02 5.596024e-33
5.290000e+02 7.004812e-33
5.300000e+02 8.760970e-33
5.310000e+02 1.094835e-32
5.320000e+02 1.367059e-32
5.330000e+02 1.705572e-32
5.340000e+02 2.126171e-32
5.350000e+02 2.648329e-32
5.360000e+02 3.295942e-32
5.370000e+02 3.897635e-32
5.380000e+02 5.093160e-32
5.390000e+02 6.324046e-32
5.400000e+02 7.845879e-32
5.410000e+02 9.724875e-32
5.420000e+02 1.204774e-31
5.430000e+02 1.491175e-31
5.440000e+02 1.844229e-31
5.450000e+02 2.279114e-31
5.460000e+02 2.814388e-31
5.470000e+02 3.472723e-31
5.480000e+02 4.281800e-31
5.490000e+02 5.275385e-31
5.500000e+02 6.494642e-31
5.510000e+02 7.989712e-31
5.520000e+02 9.821631e-31
5.530000e+02 1.206463e-30
5.540000e+02 1.480885e-30
5.550000e+02 1.816418e-30
5.560000e+02 2.226333e-30
5.570000e+02 2.726773e-30
5.580000e+02 3.337288e-30
5.590000e+02 4.081559e-30
5.600000e+02 4.988241e-30
5.610000e+02 6.091993e-30
5.620000e+02 7.434702e-30
5.630000e+02 9.066952e-30
5.640000e+02 1.104980e-29
5.650000e+02 1.345687e-29
5.660000e+02 1.637690e-29
5.670000e+02 1.991678e-29
5.680000e+02 2.420514e-29
5.690000e+02 2.939670e-29
5.700000e+02 3.567744e-29
5.710000e+02 4.327074e-29
5.720000e+02 5.244472e-29
5.730000e+02 6.352105e-29
5.740000e+02 7.688529e-29
5.750000e+02 9.299938e-29
5.760000e+02 1.124186e-28
5.770000e+02 1.358068e-28
5.780000e+02 1.639456e-28
5.790000e+02 1.977855e-28
5.800000e+02 2.384553e-28
5.810000e+02 2.873018e-28
5.820000e+02 3.459298e-28
5.830000e+02 4.162436e-28
5.840000e+02 5.001371e-28
5.850000e+02 6.014530e-28
5.860000e+02 7.224917e-28
5.870000e+02 8.672028e-28
5.880000e+02 1.040234e-27
5.890000e+02 1.247010e-27
5.900000e+02 1.493962e-27
5.910000e+02 1.788719e-27
5.920000e+02 2.140319e-27
5.930000e+02 2.559471e-27
5.940000e+02 3.058853e-27
5.950000e+02 3.653464e-27
5.960000e+02 4.361042e-27
5.970000e+02 5.202548e-27
5.980000e+02 6.202740e-27
5.990000e+02 7.390842e-27
6.000000e+02 8.801333e-27
6.010000e+02 1.047486e-26
6.020000e+02 1.245933e-26
6.030000e+02 1.481116e-26
6.040000e+02 1.759674e-26
6.050000e+02 2.089420e-26
6.060000e+02 2.479536e-26
6.070000e+02 2.940815e-26
6.080000e+02 3.485930e-26
6.090000e+02 4.129758e-26
6.100000e+02 4.889748e-26
6.110000e+02 5.786361e-26
6.120000e+02 6.843574e-26
6.130000e+02 8.089467e-26
6.140000e+02 9.556908e-26
6.150000e+02 1.128435e-25
6.160000e+02 1.331676e-25
6.170000e+02 1.570669e-25
6.180000e+02 1.851552e-25
6.190000e+02 2.181490e-25
6.200000e+02 2.568844e-25
6.210000e+02 3.023366e-25
6.220000e+02 3.556420e-25
6.230000e+02 4.181248e-25
6.240000e+02 4.913267e-25
6.250000e+02 5.770421e-25
6.260000e+02 6.773582e-25
6.270000e+02 7.947015e-25
6.280000e+02 9.318918e-25
6.290000e+02 1.092204e-24
6.300000e+02 1.279439e-24
6.310000e+02 1.496483e-24
6.320000e+02 1.753032e-24
6.330000e+02 2.050433e-24
6.340000e+02 2.397086e-24
6.350000e+02 2.800863e-24
6.360000e+02 3.271216e-24
6.370000e+02 3.818553e-24
6.380000e+02 4.455274e-24
6.390000e+02 5.195615e-24
6.400000e+02 6.056020e-24
6.410000e+02 7.055480e-24
6.420000e+02 8.215907e-24
6.430000e+02 9.562586e-24
6.440000e+02 1.112466e-23
6.450000e+02 1.293573e-23
6.460000e+02 1.503450e-23
6.470000e+02 1.746551e-23
6.480000e+02 2.028006e-23
6.490000e+02 2.353713e-23
6.500000e+02 2.730455e-23
6.510000e+02 3.166030e-23
6.520000e+02 3.669391e-23
6.530000e+02 4.250824e-23
6.540000e+02 4.922132e-23
6.550000e+02 5.696856e-23
6.560000e+02 6.590523e-23
6.570000e+02 7.620935e-23
6.580000e+02 8.808483e-23
6.590000e+02 1.017652e-22
6.600000e+02 1.175178e-22
6.610000e+02 1.356486e-22
6.620000e+02 1.565075e-22
6.630000e+02 1.804943e-22
6.640000e+02 2.080663e-22
6.650000e+02 2.397454e-22
6.660000e+02 2.761296e-22
6.670000e+02 3.178961e-22
6.680000e+02 3.658225e-22
6.690000e+02 4.207940e-22
6.700000e+02 4.838195e-22
6.710000e+02 5.560485e-22
6.720000e+02 6.387903e-22
6.730000e+02 7.335355e-22
6.740000e+02 8.419802e-22
6.750000e+02 9.660540e-22
6.760000e+02 1.107951e-21
6.770000e+02 1.270164e-21
6.780000e+02 1.455527e-21
6.790000e+02 1.667257e-21
6.800000e+02 1.909007e-21
6.810000e+02 2.184923e-21
6.820000e+02 2.499705e-21
6.830000e+02 2.858687e-21
6.840000e+02 3.267909e-21
6.850000e+02 3.734220e-21
6.860000e+02 4.265373e-21
6.870000e+02 4.870149e-21
6.880000e+02 5.558482e-21
6.890000e+02 6.341610e-21
6.900000e+02 7.232246e-21
6.910000e+02 8.244755e-21
6.920000e+02 9.395373e-21
6.930000e+02 1.070244e-20
6.940000e+02 1.218665e-20
6.950000e+02 1.387139e-20
6.960000e+02 1.578302e-20
6.970000e+02 1.795128e-20
6.980000e+02 2.040971e-20
6.990000e+02 2.319609e-20
7.000000e+02 2.635301e-20
7.010000e+02 2.992841e-20
7.020000e+02 3.397627e-20
7.030000e+02 3.855736e-20
7.040000e+02 4.374001e-20
7.050000e+02 4.960110e-20
7.060000e+02 5.622654e-20
7.070000e+02 6.371492e-20
7.080000e+02 7.217385e-20
7.090000e+02 8.172634e-20
7.100000e+02 9.250993e-20
7.110000e+02 1.046790e-19
7.120000e+02 1.184066e-19
7.130000e+02 1.338870e-19
7.140000e+02 1.513379e-19
7.150000e+02 1.710032e-19
7.160000e+02 1.931563e-19
7.170000e+02 2.181032e-19
7.180000e+02 2.461867e-19
7.190000e+02 2.777901e-19
7.200000e+02 3.133427e-19
7.210000e+02 3.533244e-19
7.220000e+02 3.982715e-19
7.230000e+02 4.487839e-19
7.240000e+02 5.055315e-19
7.250000e+02 5.692629e-19
7.260000e+02 6.408134e-19
7.270000e+02 7.211159e-19
7.280000e+02 8.112113e-19
7.290000e+02 9.122604e-19
7.300000e+02 1.025558e-18
7.310000e+02 1.152547e-18
7.320000e+02 1.294837e-18
7.330000e+02 1.454221e-18
7.340000e+02 1.632690e-18
7.350000e+02 1.832470e-18
7.360000e+02 2.056031e-18
7.370000e+02 2.306128e-18
7.380000e+02 2.585820e-18
7.390000e+02 2.898510e-18
7.400000e+02 3.247982e-18
7.410000e+02 3.638442e-18
7.420000e+02 4.074558e-18
7.430000e+02 4.561521e-18
7.440000e+02 5.105088e-18
7.450000e+02 5.711655e-18
7.460000e+02 6.388314e-18
7.470000e+02 7.142935e-18
7.480000e+02 7.984245e-18
7.490000e+02 8.921919e-18
7.500000e+02 9.966677e-18
7.510000e+02 1.113040e-17
7.520000e+02 1.242625e-17
7.530000e+02 1.386879e-17
7.540000e+02 1.547416e-17
7.550000e+02 1.726020e-17
7.560000e+02 1.924666e-17
7.570000e+02 2.145539e-17
7.580000e+02 2.391055e-17
7.590000e+02 2.663882e-17
7.600000e+02 2.966971e-17
7.610000e+02 3.303582e-17
7.620000e+02 3.677314e-17
7.630000e+02 4.092144e-17
7.640000e+02 4.552458e-17
7.650000e+02 5.063093e-17
7.660000e+02 5.629407e-17
7.670000e+02 6.257279e-17
7.680000e+02 6.953206e-17
7.690000e+02 7.724333e-17
7.700000e+02 8.578611e-17
7.710000e+02 9.524674e-17
7.720000e+02 1.057212e-16
7.730000e+02 1.173149e-16
7.740000e+02 1.301440e-16
7.750000e+02 1.443362e-16
7.760000e+02 1.600321e-16
7.770000e+02 1.773863e-16
7.780000e+02 1.965688e-16
7.790000e+02 2.177665e-16
7.800000e+02 2.411849e-16
7.810000e+02 2.670497e-16
7.820000e+02 2.956090e-16
7.830000e+02 3.271349e-16
7.840000e+02 3.619266e-16
7.850000e+02 4.003122e-16
7.860000e+02 4.426519e-16
7.870000e+02 4.893410e-16
7.880000e+02 5.408126e-16
7.890000e+02 5.975422e-16
7.900000e+02 6.600506e-16
7.910000e+02 7.289090e-16
7.920000e+02 8.047405e-16
7.930000e+02 8.882372e-16
7.940000e+02 9.801440e-16
7.950000e+02 1.081284e-15
7.960000e+02 1.192556e-15
7.970000e+02 1.314947e-15
7.980000e+02 1.449532e-15
7.990000e+02 1.597489e-15
8.000000e+02 1.760108e-15
8.010000e+02 1.938797e-15
8.020000e+02 2.135095e-15
8.030000e+02 2.350686e-15
8.040000e+02 2.587407e-15
8.050000e+02 2.846803e-15
8.060000e+02 3.132455e-15
8.070000e+02 3.445370e-15
8.080000e+02 3.788621e-15
8.090000e+02 4.165059e-15
8.100000e+02 4.577796e-15
8.110000e+02 5.030222e-15
8.120000e+02 5.526039e-15
8.130000e+02 6.069277e-15
8.140000e+02 6.664334e-15
8.150000e+02 7.316000e-15
8.160000e+02 8.029491e-15
8.170000e+02 8.810495e-15
8.180000e+02 9.665198e-15
8.190000e+02 1.060034e-14
8.200000e+02 1.162326e-14
8.210000e+02 1.274194e-14
8.220000e+02 1.396505e-14
8.230000e+02 1.530206e-14
8.240000e+02 1.676323e-14
8.250000e+02 1.835973e-14
8.260000e+02 2.010370e-14
8.270000e+02 2.200834e-14
8.280000e+02 2.408799e-14
8.290000e+02 2.635822e-14
8.300000e+02 2.883595e-14
8.310000e+02 3.153955e-14
8.320000e+02 3.448895e-14
8.330000e+02 3.770580e-14
8.340000e+02 4.121358e-14
8.350000e+02 4.503752e-14
8.360000e+02 4.920603e-14
8.370000e+02 5.374830e-14
8.380000e+02 5.869709e-14
8.390000e+02 6.408762e-14
8.400000e+02 6.995808e-14
8.410000e+02 7.634982e-14
8.420000e+02 8.330766e-14
8.430000e+02 9.088012e-14
8.440000e+02 9.911979e-14
8.450000e+02 1.080835e-13
8.460000e+02 1.178330e-13
8.470000e+02 1.284342e-13
8.480000e+02 1.399607e-13
8.490000e+02 1.524899e-13
8.500000e+02 1.661040e-13
8.510000e+02 1.808992e-13
8.520000e+02 1.969673e-13
8.530000e+02 2.144237e-13
8.540000e+02 2.333762e-13
8.550000e+02 2.539519e-13
8.560000e+02 2.762853e-13
8.570000e+02 3.005215e-13
8.580000e+02 3.268159e-13
8.590000e+02 3.553427e-13
8.600000e+02 3.862795e-13
8.610000e+02 4.198261e-13
8.620000e+02 4.561947e-13
8.630000e+02 4.956148e-13
8.640000e+02 5.383264e-13
8.650000e+02 5.846208e-13
8.660000e+02 6.347614e-13
8.670000e+02 6.890676e-13
8.680000e+02 7.478731e-13
8.690000e+02 8.115388e-13
8.700000e+02 8.804245e-13
8.710000e+02 9.550344e-13
8.720000e+02 1.035727e-12
8.730000e+02 1.123035e-12
8.740000e+02 1.217463e-12
8.750000e+02 1.319577e-12
8.760000e+02 1.429984e-12
8.770000e+02 1.549336e-12
8.780000e+02 1.678282e-12
8.790000e+02 1.817718e-12
8.800000e+02 1.968310e-12
8.810000e+02 2.130984e-12
8.820000e+02 2.306696e-12
8.830000e+02 2.496402e-12
8.840000e+02 2.701188e-12
8.850000e+02 2.922311e-12
8.860000e+02 3.160908e-12
8.870000e+02 3.418357e-12
8.880000e+02 3.696086e-12
8.890000e+02 3.995666e-12
8.900000e+02 4.318764e-12
8.910000e+02 4.667123e-12
8.920000e+02 5.042676e-12
8.930000e+02 5.447468e-12
8.940000e+02 5.883683e-12
8.950000e+02 6.353736e-12
8.960000e+02 6.860100e-12
8.970000e+02 7.405507e-12
8.980000e+02 7.992835e-12
8.990000e+02 8.625288e-12
9.000000e+02 9.306108e-12
9.010000e+02 1.003894e-11
9.020000e+02 1.082750e-11
9.030000e+02 1.167578e-11
9.040000e+02 1.258886e-11
9.050000e+02 1.357094e-11
9.060000e+02 1.462695e-11
9.070000e+02 1.576242e-11
9.080000e+02 1.698313e-11
9.090000e+02 1.829526e-11
9.100000e+02 1.970543e-11
9.110000e+02 2.122058e-11
9.120000e+02 2.284866e-11
9.130000e+02 2.459676e-11
9.140000e+02 3.988782e-11
9.150000e+02 2.741607e-09
9.160000e+02 4.654519e-09
9.170000e+02 1.259770e-10
9.180000e+02 3.454164e-09
9.190000e+02 7.497401e-09
9.200000e+02 1.104434e-08
9.210000e+02 4.410738e-11
9.220000e+02 5.262631e-09
9.230000e+02 2.103577e-10
9.240000e+02 1.733285e-10
9.250000e+02 1.505462e-09
9.260000e+02 5.254317e-09
9.270000e+02 1.959486e-10
9.280000e+02 2.533270e-08
9.290000e+02 2.593067e-08
9.300000e+02 1.555422e-08
9.310000e+02 3.778424e-10
9.320000e+02 1.716201e-08
9.330000e+02 6.252359e-09
9.340000e+02 2.439970e-09
9.350000e+02 3.580013e-09
9.360000e+02 6.058170e-10
9.370000e+02 2.852698e-10
9.380000e+02 2.160418e-09
9.390000e+02 1.867652e-09
9.400000e+02 2.461664e-08
9.410000e+02 1.185940e-08
9.420000e+02 7.294722e-08
9.430000e+02 2.698295e-09
9.440000e+02 7.355532e-08
9.450000e+02 6.484964e-08
9.460000e+02 1.822316e-08
9.470000e+02 2.865814e-10
9.480000e+02 4.356935e-08
9.490000e+02 3.616337e-08
9.500000e+02 7.474897e-09
9.510000e+02 2.560218e-08
9.520000e+02 3.683902e-08
9.530000e+02 1.034763e-09
9.540000e+02 4.468635e-10
9.550000e+02 6.239262e-09
9.560000e+02 7.805716e-08
9.570000e+02 4.243262e-09
9.580000e+02 5.759961e-10
9.590000e+02 5.274374e-08
9.600000e+02 1.460306e-08
9.610000e+02 3.819621e-08
9.620000e+02 2.004917e-08
9.630000e+02 4.007944e-09
9.640000e+02 1.746663e-09
9.650000e+02 9.760726e-10
9.660000e+02 7.746188e-09
9.670000e+02 2.049724e-09
9.680000e+02 1.736581e-09
9.690000e+02 2.897180e-08
9.700000e+02 5.651867e-08
9.710000e+02 3.403342e-09
9.720000e+02 2.029374e-09
9.730000e+02 5.360534e-08
9.740000e+02 6.181193e-08
9.750000e+02 1.846844e-08
9.760000e+02 2.114005e-07
9.770000e+02 1.415290e-07
9.780000e+02 9.080362e-08
9.790000e+02 4.623675e-07
9.800000e+02 3.501126e-07
9.810000e+02 5.975960e-08
9.820000e+02 1.660902e-08
9.830000e+02 3.776766e-07
9.840000e+02 2.465817e-07
9.850000e+02 3.404727e-08
9.860000e+02 5.515486e-08
9.870000e+02 4.038288e-07
9.880000e+02 4.194135e-09
9.890000e+02 2.317829e-07
9.900000e+02 4.396620e-07
9.910000e+02 2.328449e-08
9.920000e+02 5.124858e-09
9.930000e+02 8.097998e-07
9.940000e+02 2.229267e-08
9.950000e+02 2.831394e-07
9.960000e+02 9.370552e-09
9.970000e+02 6.157499e-07
9.980000e+02 6.229348e-07
9.990000e+02 3.734054e-08
1.000000e+03 1.578101e-06
1.001000e+03 1.376487e-06
1.002000e+03 1.142152e-06
1.003000e+03 3.745299e-08
1.004000e+03 1.078774e-08
1.005000e+03 1.223231e-07
1.006000e+03 1.226581e-06
1.007000e+03 1.564947e-06
1.008000e+03 1.082296e-06
1.009000e+03 5.966470e-08
1.010000e+03 1.081361e-06
1.011000e+03 1.084377e-06
1.012000e+03 1.468577e-06
1.013000e+03 1.533844e-06
1.014000e+03 1.943823e-08
1.015000e+03 2.096385e-08
1.016000e+03 2.067654e-07
1.017000e+03 2.320508e-08
1.018000e+03 6.533810e-08
1.019000e+03 2.617594e-08
1.020000e+03 2.367066e-06
1.021000e+03 1.586334e-07
1.022000e+03 2.069205e-07
1.023000e+03 3.525156e-08
1.024000e+03 2.564022e-06
1.025000e+03 3.702038e-08
1.026000e+03 8.879256e-08
1.027000e+03 8.598437e-07
1.028000e+03 5.348752e-07
1.029000e+03 4.662684e-08
1.030000e+03 5.782690e-07
1.031000e+03 1.405210e-06
1.032000e+03 5.271511e-06
1.033000e+03 2.041545e-06
1.034000e+03 1.527717e-06
1.035000e+03 5.298680e-07
1.036000e+03 6.950972e-08
1.037000e+03 4.928450e-06
1.038000e+03 8.874461e-06
1.039000e+03 5.748368e-06
1.040000e+03 4.385941e-06
1.041000e+03 8.880877e-06
1.042000e+03 9.213349e-06
1.043000e+03 1.065813e-05
1.044000e+03 1.639924e-05
1.045000e+03 3.718275e-07
1.046000e+03 5.623087e-06
1.047000e+03 4.435642e-06
1.048000e+03 2.207576e-07
1.049000e+03 3.881776e-06
1.050000e+03 1.357095e-06
1.051000e+03 8.885208e-07
1.052000e+03 1.523553e-05
1.053000e+03 1.671138e-05
1.054000e+03 1.891940e-07
1.055000e+03 1.906707e-05
1.056000e+03 2.077033e-05
1.057000e+03 1.058676e-05
1.058000e+03 8.654306e-07
1.059000e+03 1.335136e-06
1.060000e+03 3.898876e-07
1.061000e+03 1.645955e-05
1.062000e+03 6.063333e-07
1.063000e+03 1.649471e-05
1.064000e+03 8.791103e-07
1.065000e+03 3.428595e-07
1.066000e+03 2.301554e-05
1.067000e+03 1.020838e-06
1.068000e+03 4.096350e-05
1.069000e+03 4.854678e-07
1.070000e+03 6.199007e-06
1.071000e+03 3.065636e-05
1.072000e+03 5.747004e-05
1.073000e+03 5.241782e-07
1.074000e+03 1.767105e-05
1.075000e+03 1.248625e-05
1.076000e+03 6.697123e-05
1.077000e+03 1.317021e-06
1.078000e+03 1.675107e-06
1.079000e+03 5.727970e-06
1.080000e+03 2.042180e-05
1.081000e+03 5.176458e-05
1.082000e+03 3.969550e-05
1.083000e+03 2.767735e-05
1.084000e+03 1.255171e-04
1.085000e+03 1.003478e-05
1.086000e+03 9.438659e-05
1.087000e+03 2.918998e-06
1.088000e+03 1.308817e-04
1.089000e+03 1.480173e-04
1.090000e+03 8.874023e-06
1.091000e+03 1.362246e-05
1.092000e+03 1.494042e-04
1.093000e+03 1.923902e-04
1.094000e+03 5.239011e-05
1.095000e+03 2.358313e-04
1.096000e+03 1.614665e-04
1.097000e+03 1.461934e-04
1.098000e+03 2.136416e-04
1.099000e+03 2.721779e-05
1.100000e+03 2.171597e-06
1.101000e+03 3.159223e-06
1.102000e+03 2.364829e-05
1.103000e+03 3.220743e-04
1.104000e+03 2.665062e-04
1.105000e+03 3.284386e-04
1.106000e+03 7.832758e-05
1.107000e+03 3.332912e-06
1.108000e+03 2.134927e-04
1.109000e+03 1.713127e-05
1.110000e+03 3.278265e-04
1.111000e+03 3.388983e-04
1.112000e+03 1.726029e-04
1.113000e+03 4.880618e-04
1.114000e+03 1.324887e-04
1.115000e+03 1.975505e-05
1.116000e+03 7.958564e-06
1.117000e+03 4.501761e-04
1.118000e+03 2.966385e-05
1.119000e+03 1.959069e-04
1.120000e+03 1.262876e-05
1.121000e+03 4.252688e-04
1.122000e+03 9.933510e-04
1.123000e+03 5.835507e-04
1.124000e+03 6.342225e-04
1.125000e+03 5.215295e-04
1.126000e+03 1.781794e-03
1.127000e+03 5.424653e-04
1.128000e+03 1.034106e-03
1.129000e+03 4.619750e-04
1.130000e+03 9.698400e-04
1.131000e+03 1.390125e-03
1.132000e+03 2.360428e-05
1.133000e+03 1.596352e-04
1.134000e+03 6.578234e-04
1.135000e+03 1.376041e-03
1.136000e+03 2.580994e-04
1.137000e+03 1.017911e-03
1.138000e+03 6.670124e-04
1.139000e+03 1.494309e-03
1.140000e+03 1.224718e-03
1.141000e+03 1.805936e-03
1.142000e+03 1.940857e-03
1.143000e+03 7.225571e-04
1.144000e+03 2.190133e-03
1.145000e+03 2.361508e-05
1.146000e+03 2.129465e-03
1.147000e+03 2.039898e-03
1.148000e+03 1.056044e-04
1.149000e+03 1.547659e-03
1.150000e+03 1.506045e-03
1.151000e+03 2.266742e-03
1.152000e+03 1.625836e-03
1.153000e+03 2.633706e-03
1.154000e+03 3.691510e-03
1.155000e+03 1.958965e-03
1.156000e+03 3.153539e-03
1.157000e+03 3.510842e-03
1.158000e+03 1.254049e-03
1.159000e+03 3.210521e-03
1.160000e+03 1.688700e-03
1.161000e+03 3.233455e-03
1.162000e+03 4.289707e-04
1.163000e+03 1.202993e-03
1.164000e+03 4.756728e-04
1.165000e+03 2.639278e-03
1.166000e+03 2.417306e-03
1.167000e+03 2.471168e-03
1.168000e+03 4.338834e-03
1.169000e+03 5.426800e-03
1.170000e+03 2.099781e-03
1.171000e+03 4.044743e-03
1.172000e+03 3.027859e-03
1.173000e+03 4.130885e-03
1.174000e+03 1.183865e-04
1.175000e+03 3.468291e-04
1.176000e+03 1.418722e-04
1.177000e+03 7.353045e-03
1.178000e+03 7.576619e-03
1.179000e+03 6.804572e-03
1.180000e+03 4.794711e-03
1.181000e+03 7.670639e-03
1.182000e+03 6.823719e-03
1.183000e+03 5.090752e-03
1.184000e+03 4.883200e-03
1.185000e+03 5.300440e-03
1.186000e+03 4.681029e-04
1.187000e+03 7.125636e-03
1.188000e+03 5.083861e-03
1.189000e+03 8.795821e-03
1.190000e+03 8.774142e-03
1.191000e+03 7.836174e-03
1.192000e+03 8.664703e-03
1.193000e+03 7.792569e-03
1.194000e+03 9.097376e-03
1.195000e+03 9.078614e-03
1.196000e+03 1.552945e-02
1.197000e+03 5.078661e-02
1.198000e+03 1.324113e-03
1.199000e+03 4.749344e-02
1.200000e+03 3.806352e-03
1.201000e+03 2.530202e-02
1.202000e+03 1.159226e-02
1.203000e+03 2.088795e-02
1.204000e+03 4.821990e-03
1.205000e+03 1.768930e-02
1.206000e+03 1.769018e-02
1.207000e+03 1.189710e-02
1.208000e+03 1.604361e-02
1.209000e+03 1.817990e-02
1.210000e+03 7.840553e-04
1.211000e+03 1.328663e-02
1.212000e+03 8.391442e-03
1.213000e+03 7.840821e-03
1.214000e+03 3.950487e-03
1.215000e+03 8.229921e-04
1.216000e+03 4.249302e-04
1.217000e+03 2.950980e-03
1.218000e+03 7.824179e-03
1.219000e+03 1.269315e-02
1.220000e+03 6.570121e-03
1.221000e+03 2.148549e-02
1.222000e+03 2.171021e-02
1.223000e+03 1.956802e-02
1.224000e+03 3.683757e-02
1.225000e+03 3.123593e-03
1.226000e+03 5.795992e-02
1.227000e+03 5.503104e-02
1.228000e+03 1.599072e-02
1.229000e+03 4.692739e-02
1.230000e+03 3.957177e-02
1.231000e+03 1.027633e-02
1.232000e+03 1.285738e-01
1.233000e+03 1.603694e-01
1.234000e+03 1.739949e-01
1.235000e+03 8.410355e-02
1.236000e+03 2.435769e-02
1.237000e+03 1.714194e-01
1.238000e+03 1.227777e-01
1.239000e+03 5.003453e-02
1.240000e+03 1.253360e-01
1.241000e+03 6.065422e-02
1.242000e+03 9.686489e-02
1.243000e+03 2.269449e-01
1.244000e+03 2.595826e-01
1.245000e+03 2.295042e-01
1.246000e+03 8.693085e-02
1.247000e+03 1.209500e-01
1.248000e+03 2.968360e-01
1.249000e+03 3.921870e-01
1.250000e+03 2.224822e-01
1.251000e+03 3.157683e-01
1.252000e+03 1.741329e-01
1.253000e+03 4.102764e-01
1.254000e+03 1.896270e-01
1.255000e+03 1.392646e-01
1.256000e+03 1.534168e-01
1.257000e+03 2.237469e-01
1.258000e+03 1.042585e-01
1.259000e+03 1.230664e-01
1.260000e+03 3.633204e-01
1.261000e+03 7.781830e-02
1.262000e+03 4.166255e-01
1.263000e+03 2.665237e-01
1.264000e+03 1.318732e-01
1.265000e+03 1.728218e-01
1.266000e+03 4.227627e-01
1.267000e+03 1.806564e-01
