# wavelength_A flux
5.000000e+02 3.083557e-41
5.010000e+02 4.070492e-41
5.020000e+02 5.367253e-41
5.030000e+02 7.069270e-41
5.040000e+02 9.300698e-41
5.050000e+02 1.222535e-40
5.060000e+02 1.604851e-40
5.070000e+02 2.104428e-40
5.080000e+02 2.756536e-40
5.090000e+02 3.606802e-40
5.100000e+02 4.713506e-40
5.110000e+02 6.155260e-40
5.120000e+02 8.028123e-40
5.130000e+02 1.045989e-39
5.140000e+02 1.361392e-39
5.150000e+02 1.770057e-39
5.160000e+02 2.299011e-39
5.170000e+02 2.982962e-39
5.180000e+02 3.866425e-39
5.190000e+02 5.006443e-39
5.200000e+02 6.476039e-39
5.210000e+02 8.368598e-39
5.220000e+02 1.080341e-38
5.230000e+02 1.393279e-38
5.240000e+02 1.795086e-38
5.250000e+02 2.310497e-38
5.260000e+02 2.970989e-38
5.270000e+02 3.816581e-38
5.280000e+02 4.898106e-38
5.290000e+02 6.280070e-38
5.300000e+02 8.044255e-38
5.310000e+02 1.029425e-37
5.320000e+02 1.316112e-37
5.330000e+02 1.681061e-37
5.340000e+02 2.145202e-37
5.350000e+02 2.734951e-37
5.360000e+02 3.483612e-37
5.370000e+02 4.432974e-37
5.380000e+02 5.636325e-37
5.390000e+02 7.159562e-37
5.400000e+02 9.086250e-37
5.410000e+02 1.152107e-36
5.420000e+02 1.459531e-36
5.430000e+02 1.847345e-36
5.440000e+02 2.336141e-36
5.450000e+02 2.951676e-36
5.460000e+02 3.726139e-36
5.470000e+02 4.699723e-36
5.480000e+02 5.922571e-36
5.490000e+02 7.457189e-36
5.500000e+02 9.381430e-36
5.510000e+02 1.179217e-35
5.520000e+02 1.480989e-35
5.530000e+02 1.858424e-35
5.540000e+02 2.330100e-35
5.550000e+02 2.919063e-35
5.560000e+02 3.653872e-35
5.570000e+02 4.569892e-35
5.580000e+02 5.710886e-35
5.590000e+02 7.130955e-35
5.600000e+02 8.896938e-35
5.610000e+02 1.109134e-34
5.620000e+02 1.381592e-34
5.630000e+02 1.719609e-34
5.640000e+02 2.138632e-34
5.650000e+02 2.657664e-34
5.660000e+02 3.300077e-34
5.670000e+02 4.094582e-34
5.680000e+02 5.076430e-34
5.690000e+02 6.288868e-34
5.700000e+02 7.784909e-34
5.710000e+02 9.629489e-34
5.720000e+02 1.190210e-33
5.730000e+02 1.469995e-33
5.740000e+02 1.814187e-33
5.750000e+02 2.237299e-33
5.760000e+02 2.757041e-33
5.770000e+02 3.395014e-33
5.780000e+02 4.177539e-33
5.790000e+02 5.136673e-33
5.800000e+02 6.311422e-33
5.810000e+02 7.749225e-33
5.820000e+02 9.507724e-33
5.830000e+02 1.165692e-32
5.840000e+02 1.428175e-32
5.850000e+02 1.748523e-32
5.860000e+02 2.139218e-32
5.870000e+02 2.615374e-32
5.880000e+02 3.195284e-32
5.890000e+02 3.901068e-32
5.900000e+02 4.759459e-32
5.910000e+02 5.802740e-32
5.920000e+02 7.069873e-32
5.930000e+02 8.607848e-32
5.940000e+02 1.047330e-31
5.950000e+02 1.273445e-31
5.960000e+02 1.547340e-31
5.970000e+02 1.878892e-31
5.980000e+02 2.279973e-31
5.990000e+02 2.764846e-31
6.000000e+02 3.350635e-31
6.010000e+02 4.057883e-31
6.020000e+02 4.911222e-31
6.030000e+02 5.940168e-31
6.040000e+02 7.180065e-31
6.050000e+02 8.673211e-31
6.060000e+02 1.047019e-30
6.070000e+02 1.263148e-30
6.080000e+02 1.522929e-30
6.090000e+02 1.834986e-30
6.100000e+02 2.209603e-30
6.110000e+02 2.659047e-30
6.120000e+02 3.197931e-30
6.130000e+02 3.843660e-30
6.140000e+02 4.616947e-30
6.150000e+02 5.542430e-30
6.160000e+02 6.649395e-30
6.170000e+02 7.972637e-30
6.180000e+02 9.553469e-30
6.190000e+02 1.144091e-29
6.200000e+02 1.369311e-29
6.210000e+02 1.637896e-29
6.220000e+02 1.958011e-29
6.230000e+02 2.339318e-29
6.240000e+02 2.793252e-29
6.250000e+02 3.333335e-29
6.260000e+02 3.975548e-29
6.270000e+02 4.738767e-29
6.280000e+02 5.645279e-29
6.290000e+02 6.721376e-29
6.300000e+02 7.998066e-29
6.310000e+02 9.511892e-29
6.320000e+02 1.130590e-28
6.330000e+02 1.343077e-28
6.340000e+02 1.594613e-28
6.350000e+02 1.892211e-28
6.360000e+02 2.244112e-28
6.370000e+02 2.660001e-28
6.380000e+02 3.151244e-28
6.390000e+02 3.731185e-28
6.400000e+02 4.415469e-28
6.410000e+02 5.222440e-28
6.420000e+02 6.173589e-28
6.430000e+02 7.294083e-28
6.440000e+02 8.613378e-28
6.450000e+02 1.016593e-27
6.460000e+02 1.199203e-27
6.470000e+02 1.413876e-27
6.480000e+02 1.666112e-27
6.490000e+02 1.962330e-27
6.500000e+02 2.310022e-27
6.510000e+02 2.717925e-27
6.520000e+02 3.196222e-27
6.530000e+02 3.756781e-27
6.540000e+02 4.413417e-27
6.550000e+02 5.182214e-27
6.560000e+02 6.081885e-27
6.570000e+02 7.134183e-27
6.580000e+02 8.364398e-27
6.590000e+02 9.801903e-27
6.600000e+02 1.148081e-26
6.610000e+02 1.344069e-26
6.620000e+02 1.572748e-26
6.630000e+02 1.839441e-26
6.640000e+02 2.150319e-26
6.650000e+02 2.512528e-26
6.660000e+02 2.934343e-26
6.670000e+02 3.425343e-26
6.680000e+02 3.996604e-26
6.690000e+02 4.660935e-26
6.700000e+02 5.433138e-26
6.710000e+02 6.330314e-26
6.720000e+02 7.372204e-26
6.730000e+02 8.581594e-26
6.740000e+02 9.984771e-26
6.750000e+02 1.161204e-25
6.760000e+02 1.349834e-25
6.770000e+02 1.568390e-25
6.780000e+02 1.821508e-25
6.790000e+02 2.114520e-25
6.800000e+02 2.453563e-25
6.810000e+02 2.845695e-25
6.820000e+02 3.299028e-25
6.830000e+02 3.822883e-25
6.840000e+02 4.427966e-25
6.850000e+02 5.126565e-25
6.860000e+02 5.932785e-25
6.870000e+02 6.862802e-25
6.880000e+02 7.935164e-25
6.890000e+02 9.171128e-25
6.900000e+02 1.059504e-24
6.910000e+02 1.223480e-24
6.920000e+02 1.412231e-24
6.930000e+02 1.629410e-24
6.940000e+02 1.879192e-24
6.950000e+02 2.166354e-24
6.960000e+02 2.496352e-24
6.970000e+02 2.875418e-24
6.980000e+02 3.310668e-24
6.990000e+02 3.810227e-24
7.000000e+02 4.383360e-24
7.010000e+02 5.040636e-24
7.020000e+02 5.794105e-24
7.030000e+02 6.657495e-24
7.040000e+02 7.646444e-24
7.050000e+02 8.778760e-24
7.060000e+02 1.007471e-23
7.070000e+02 1.155736e-23
7.080000e+02 1.325292e-23
7.090000e+02 1.519122e-23
7.100000e+02 1.740614e-23
7.110000e+02 1.993617e-23
7.120000e+02 2.282502e-23
7.130000e+02 2.612230e-23
7.140000e+02 2.988431e-23
7.150000e+02 3.417491e-23
7.160000e+02 3.906650e-23
7.170000e+02 4.464115e-23
7.180000e+02 5.099184e-23
7.190000e+02 5.822387e-23
7.200000e+02 6.645646e-23
7.210000e+02 7.582457e-23
7.220000e+02 8.648081e-23
7.230000e+02 9.859786e-23
7.240000e+02 1.123709e-22
7.250000e+02 1.280204e-22
7.260000e+02 1.457957e-22
7.270000e+02 1.659780e-22
7.280000e+02 1.888851e-22
7.290000e+02 2.148753e-22
7.300000e+02 2.443532e-22
7.310000e+02 2.777747e-22
7.320000e+02 3.156540e-22
7.330000e+02 3.585702e-22
7.340000e+02 4.071761e-22
7.350000e+02 4.622066e-22
7.360000e+02 5.244890e-22
7.370000e+02 5.949543e-22
7.380000e+02 6.746500e-22
7.390000e+02 7.647538e-22
7.400000e+02 8.665899e-22
7.410000e+02 9.816467e-22
7.420000e+02 1.111596e-21
7.430000e+02 1.258314e-21
7.440000e+02 1.423911e-21
7.450000e+02 1.610752e-21
7.460000e+02 1.821490e-21
7.470000e+02 2.059103e-21
7.480000e+02 2.326929e-21
7.490000e+02 2.628709e-21
7.500000e+02 2.968635e-21
7.510000e+02 3.351402e-21
7.520000e+02 3.782269e-21
7.530000e+02 4.267120e-21
7.540000e+02 4.812543e-21
7.550000e+02 5.425905e-21
7.560000e+02 6.115445e-21
7.570000e+02 6.890376e-21
7.580000e+02 7.760993e-21
7.590000e+02 8.738798e-21
7.600000e+02 9.836639e-21
7.610000e+02 1.106886e-20
7.620000e+02 1.245148e-20
7.630000e+02 1.400235e-20
7.640000e+02 1.574142e-20
7.650000e+02 1.769092e-20
7.660000e+02 1.987562e-20
7.670000e+02 2.232315e-20
7.680000e+02 2.506427e-20
7.690000e+02 2.813328e-20
7.700000e+02 3.156833e-20
7.710000e+02 3.541191e-20
7.720000e+02 3.971131e-20
7.730000e+02 4.451913e-20
7.740000e+02 4.989388e-20
7.750000e+02 5.590061e-20
7.760000e+02 6.261161e-20
7.770000e+02 7.010725e-20
7.780000e+02 7.847678e-20
7.790000e+02 8.781932e-20
7.800000e+02 9.824492e-20
7.810000e+02 1.098757e-19
7.820000e+02 1.228473e-19
7.830000e+02 1.373100e-19
7.840000e+02 1.534306e-19
7.850000e+02 1.713939e-19
7.860000e+02 1.914048e-19
7.870000e+02 2.136904e-19
7.880000e+02 2.385021e-19
7.890000e+02 2.661184e-19
7.900000e+02 2.968477e-19
7.910000e+02 3.310313e-19
7.920000e+02 3.690468e-19
7.930000e+02 4.113119e-19
7.940000e+02 4.582886e-19
7.950000e+02 5.104876e-19
7.960000e+02 5.684736e-19
7.970000e+02 6.328701e-19
7.980000e+02 7.043666e-19
7.990000e+02 7.837240e-19
8.000000e+02 8.717826e-19
8.010000e+02 9.694701e-19
8.020000e+02 1.077810e-18
8.030000e+02 1.197932e-18
8.040000e+02 1.331081e-18
8.050000e+02 1.478630e-18
8.060000e+02 1.642095e-18
8.070000e+02 1.823143e-18
8.080000e+02 2.023612e-18
8.090000e+02 2.245529e-18
8.100000e+02 2.491123e-18
8.110000e+02 2.762848e-18
8.120000e+02 3.063409e-18
8.130000e+02 3.395778e-18
8.140000e+02 3.763227e-18
8.150000e+02 4.169354e-18
8.160000e+02 4.618115e-18
8.170000e+02 5.113859e-18
8.180000e+02 5.661367e-18
8.190000e+02 6.265889e-18
8.200000e+02 6.933195e-18
8.210000e+02 7.669619e-18
8.220000e+02 8.482119e-18
8.230000e+02 9.378328e-18
8.240000e+02 1.036663e-17
8.250000e+02 1.145620e-17
8.260000e+02 1.265714e-17
8.270000e+02 1.398051e-17
8.280000e+02 1.543841e-17
8.290000e+02 1.704414e-17
8.300000e+02 1.881226e-17
8.310000e+02 2.075871e-17
8.320000e+02 2.290098e-17
8.330000e+02 2.525818e-17
8.340000e+02 2.785127e-17
8.350000e+02 3.070316e-17
8.360000e+02 3.383895e-17
8.370000e+02 3.728607e-17
8.380000e+02 4.107453e-17
8.390000e+02 4.523717e-17
8.400000e+02 4.980986e-17
8.410000e+02 5.483182e-17
8.420000e+02 6.034592e-17
8.430000e+02 6.639897e-17
8.440000e+02 7.304211e-17
8.450000e+02 8.033120e-17
8.460000e+02 8.832721e-17
8.470000e+02 9.709668e-17
8.480000e+02 1.067123e-16
8.490000e+02 1.172532e-16
8.500000e+02 1.288059e-16
8.510000e+02 1.414646e-16
8.520000e+02 1.553321e-16
8.530000e+02 1.705205e-16
8.540000e+02 1.871518e-16
8.550000e+02 2.053591e-16
8.560000e+02 2.252873e-16
8.570000e+02 2.470943e-16
8.580000e+02 2.709519e-16
8.590000e+02 2.970473e-16
8.600000e+02 3.255840e-16
8.610000e+02 3.567838e-16
8.620000e+02 3.908877e-16
8.630000e+02 4.281580e-16
8.640000e+02 4.688800e-16
8.650000e+02 5.133637e-16
8.660000e+02 5.619464e-16
8.670000e+02 6.149943e-16
8.680000e+02 6.729056e-16
8.690000e+02 7.361129e-16
8.700000e+02 8.050857e-16
8.710000e+02 8.803344e-16
8.720000e+02 9.624127e-16
8.730000e+02 1.051922e-15
8.740000e+02 1.149514e-15
8.750000e+02 1.255898e-15
8.760000e+02 1.371841e-15
8.770000e+02 1.498176e-15
8.780000e+02 1.635807e-15
8.790000e+02 1.785713e-15
8.800000e+02 1.948954e-15
8.810000e+02 2.126683e-15
8.820000e+02 2.320145e-15
8.830000e+02 2.530691e-15
8.840000e+02 2.759782e-15
8.850000e+02 3.009004e-15
8.860000e+02 3.280071e-15
8.870000e+02 3.574839e-15
8.880000e+02 3.895316e-15
8.890000e+02 4.243677e-15
8.900000e+02 4.622274e-15
8.910000e+02 5.033649e-15
8.920000e+02 5.480553e-15
8.930000e+02 5.965962e-15
8.940000e+02 6.493089e-15
8.950000e+02 7.065409e-15
8.960000e+02 7.686678e-15
8.970000e+02 8.360953e-15
8.980000e+02 9.092616e-15
8.990000e+02 9.886400e-15
9.000000e+02 1.074741e-14
9.010000e+02 1.168118e-14
9.020000e+02 1.269365e-14
9.030000e+02 1.379125e-14
9.040000e+02 1.498092e-14
9.050000e+02 1.627014e-14
9.060000e+02 1.766697e-14
9.070000e+02 1.918013e-14
9.080000e+02 2.081899e-14
9.090000e+02 2.259368e-14
9.100000e+02 2.451509e-14
9.110000e+02 2.659497e-14
9.120000e+02 2.884598e-14
9.130000e+02 3.128177e-14
9.140000e+02 3.442645e-14
9.150000e+02 7.834105e-12
9.160000e+02 6.558436e-11
9.170000e+02 1.529789e-11
9.180000e+02 1.042811e-11
9.190000e+02 2.110811e-10
9.200000e+02 7.025941e-10
9.210000e+02 5.944212e-14
9.220000e+02 1.006625e-09
9.230000e+02 4.193625e-12
9.240000e+02 4.002565e-11
9.250000e+02 5.729046e-10
9.260000e+02 1.653660e-11
9.270000e+02 3.877904e-11
9.280000e+02 5.939393e-09
9.290000e+02 5.530360e-09
9.300000e+02 9.224378e-10
9.310000e+02 1.182985e-11
9.320000e+02 4.210152e-09
9.330000e+02 9.846213e-09
9.340000e+02 3.468324e-09
9.350000e+02 1.021998e-11
9.360000e+02 2.225988e-10
9.370000e+02 2.713083e-12
9.380000e+02 3.811593e-12
9.390000e+02 5.553721e-10
9.400000e+02 1.244674e-08
9.410000e+02 1.700776e-10
9.420000e+02 2.337107e-08
9.430000e+02 1.583699e-09
9.440000e+02 2.697969e-08
9.450000e+02 2.657204e-08
9.460000e+02 1.652173e-08
9.470000e+02 1.133627e-11
9.480000e+02 3.611702e-09
9.490000e+02 4.403707e-10
9.500000e+02 3.010873e-12
9.510000e+02 3.104571e-09
9.520000e+02 1.478305e-08
9.530000e+02 2.817035e-10
9.540000e+02 1.421829e-11
9.550000e+02 3.552213e-09
9.560000e+02 1.337891e-08
9.570000e+02 8.290435e-10
9.580000e+02 4.762413e-12
9.590000e+02 7.638424e-08
9.600000e+02 1.882761e-11
9.610000e+02 5.255088e-08
9.620000e+02 2.696325e-08
9.630000e+02 1.343295e-09
9.640000e+02 1.889369e-10
9.650000e+02 4.700240e-11
9.660000e+02 5.273840e-09
9.670000e+02 4.886260e-10
9.680000e+02 3.259188e-10
9.690000e+02 1.878917e-08
9.700000e+02 1.934902e-08
9.710000e+02 6.102809e-10
9.720000e+02 6.235554e-11
9.730000e+02 8.561091e-11
9.740000e+02 5.283032e-09
9.750000e+02 8.496164e-09
9.760000e+02 7.562372e-08
9.770000e+02 9.977482e-08
9.780000e+02 8.207326e-08
9.790000e+02 1.998989e-07
9.800000e+02 2.305325e-07
9.810000e+02 7.452070e-08
9.820000e+02 1.109679e-08
9.830000e+02 2.942951e-07
9.840000e+02 5.291945e-09
9.850000e+02 3.000580e-08
9.860000e+02 2.709653e-08
9.870000e+02 3.675343e-07
9.880000e+02 1.776641e-10
9.890000e+02 2.959699e-07
9.900000e+02 2.317440e-07
9.910000e+02 1.112303e-08
9.920000e+02 3.535661e-11
9.930000e+02 3.617491e-07
9.940000e+02 1.936229e-11
9.950000e+02 1.387252e-08
9.960000e+02 9.579253e-10
9.970000e+02 4.381446e-10
9.980000e+02 5.698433e-07
9.990000e+02 1.589280e-08
1.000000e+03 7.966439e-07
1.001000e+03 7.177723e-07
1.002000e+03 9.118378e-07
1.003000e+03 1.653885e-08
1.004000e+03 3.112177e-10
1.005000e+03 1.061410e-07
1.006000e+03 1.044946e-06
1.007000e+03 1.147792e-06
1.008000e+03 1.062213e-06
1.009000e+03 1.556644e-08
1.010000e+03 1.057634e-06
1.011000e+03 1.307690e-06
1.012000e+03 1.253092e-06
1.013000e+03 1.247390e-06
1.014000e+03 1.577973e-10
1.015000e+03 6.828031e-10
1.016000e+03 8.938116e-08
1.017000e+03 1.178933e-10
1.018000e+03 2.412293e-08
1.019000e+03 6.752998e-10
1.020000e+03 7.846186e-07
1.021000e+03 1.681781e-08
1.022000e+03 5.548020e-08
1.023000e+03 2.488719e-09
1.024000e+03 2.834555e-08
1.025000e+03 1.302948e-10
1.026000e+03 1.375435e-10
1.027000e+03 1.263471e-08
1.028000e+03 9.843646e-10
1.029000e+03 2.811760e-10
1.030000e+03 3.795805e-07
1.031000e+03 1.269632e-06
1.032000e+03 2.729031e-06
1.033000e+03 1.766875e-08
1.034000e+03 1.746336e-06
1.035000e+03 5.047696e-10
1.036000e+03 8.085408e-10
1.037000e+03 1.305675e-05
1.038000e+03 1.815224e-05
1.039000e+03 1.597881e-05
1.040000e+03 1.458674e-05
1.041000e+03 2.039964e-05
1.042000e+03 2.512428e-05
1.043000e+03 1.390500e-05
1.044000e+03 3.188388e-05
1.045000e+03 8.977556e-10
1.046000e+03 1.743759e-05
1.047000e+03 9.359999e-06
1.048000e+03 5.572656e-08
1.049000e+03 9.252275e-06
1.050000e+03 9.981050e-07
1.051000e+03 3.533351e-07
1.052000e+03 4.570044e-05
1.053000e+03 5.284787e-05
1.054000e+03 1.571607e-09
1.055000e+03 4.355355e-05
1.056000e+03 5.821222e-05
1.057000e+03 2.218482e-05
1.058000e+03 4.926367e-07
1.059000e+03 1.923472e-07
1.060000e+03 5.943730e-08
1.061000e+03 5.491114e-05
1.062000e+03 2.220481e-07
1.063000e+03 4.916565e-08
1.064000e+03 1.593435e-09
1.065000e+03 2.713932e-09
1.066000e+03 7.128310e-06
1.067000e+03 4.221563e-07
1.068000e+03 1.090595e-04
1.069000e+03 6.316346e-08
1.070000e+03 9.880903e-06
1.071000e+03 1.048107e-04
1.072000e+03 1.271775e-04
1.073000e+03 8.789357e-09
1.074000e+03 4.795097e-05
1.075000e+03 3.052765e-05
1.076000e+03 5.038352e-05
1.077000e+03 7.038034e-08
1.078000e+03 7.357739e-07
1.079000e+03 7.181836e-06
1.080000e+03 3.197448e-05
1.081000e+03 1.640885e-04
1.082000e+03 1.165576e-04
1.083000e+03 7.693154e-05
1.084000e+03 1.927334e-04
1.085000e+03 1.043190e-05
1.086000e+03 2.415048e-04
1.087000e+03 1.119392e-06
1.088000e+03 2.639158e-04
1.089000e+03 2.708961e-04
1.090000e+03 8.892419e-06
1.091000e+03 1.897404e-05
1.092000e+03 2.414553e-04
1.093000e+03 2.990038e-04
1.094000e+03 1.472457e-04
1.095000e+03 3.538213e-04
1.096000e+03 5.796886e-06
1.097000e+03 3.503639e-04
1.098000e+03 3.557941e-04
1.099000e+03 3.053169e-05
1.100000e+03 1.569688e-07
1.101000e+03 5.525280e-07
1.102000e+03 2.975640e-05
1.103000e+03 4.857983e-04
1.104000e+03 5.127775e-04
1.105000e+03 5.309444e-04
1.106000e+03 1.583453e-04
1.107000e+03 4.783506e-07
1.108000e+03 5.437792e-04
1.109000e+03 1.250085e-05
1.110000e+03 6.043321e-04
1.111000e+03 5.941993e-04
1.112000e+03 4.745501e-04
1.113000e+03 5.020227e-04
1.114000e+03 2.336803e-04
1.115000e+03 1.011472e-05
1.116000e+03 2.107042e-06
1.117000e+03 8.332571e-04
1.118000e+03 2.322689e-05
1.119000e+03 5.182461e-04
1.120000e+03 5.106966e-06
1.121000e+03 9.204783e-04
1.122000e+03 9.813277e-04
1.123000e+03 1.389062e-03
1.124000e+03 1.688678e-03
1.125000e+03 1.396227e-03
1.126000e+03 1.434888e-03
1.127000e+03 1.296718e-03
1.128000e+03 1.081175e-03
1.129000e+03 9.763751e-04
1.130000e+03 1.162853e-03
1.131000e+03 9.325963e-04
1.132000e+03 8.063274e-06
1.133000e+03 2.066013e-04
1.134000e+03 9.270401e-04
1.135000e+03 4.783714e-04
1.136000e+03 3.022408e-04
1.137000e+03 7.808663e-04
1.138000e+03 7.961799e-04
1.139000e+03 9.666622e-04
1.140000e+03 9.402047e-04
1.141000e+03 8.600379e-04
1.142000e+03 9.463894e-04
1.143000e+03 7.015805e-04
1.144000e+03 8.978196e-04
1.145000e+03 4.482805e-06
1.146000e+03 9.865792e-04
1.147000e+03 9.932744e-04
1.148000e+03 7.600617e-05
1.149000e+03 9.639620e-04
1.150000e+03 9.553882e-04
1.151000e+03 9.666716e-04
1.152000e+03 9.438840e-04
1.153000e+03 9.293264e-04
1.154000e+03 8.984555e-04
1.155000e+03 8.837912e-04
1.156000e+03 6.537199e-04
1.157000e+03 8.506560e-04
1.158000e+03 7.603971e-04
1.159000e+03 8.687571e-04
1.160000e+03 7.997902e-04
1.161000e+03 7.988942e-04
1.162000e+03 2.337327e-04
1.163000e+03 5.269383e-04
1.164000e+03 1.596753e-06
1.165000e+03 4.450342e-04
1.166000e+03 2.258836e-04
1.167000e+03 1.445484e-04
1.168000e+03 9.124213e-04
1.169000e+03 9.267141e-04
1.170000e+03 1.530684e-04
1.171000e+03 4.038862e-04
1.172000e+03 3.216749e-04
1.173000e+03 2.712607e-04
1.174000e+03 3.376289e-05
1.175000e+03 1.704379e-06
1.176000e+03 5.676993e-07
1.177000e+03 1.208257e-03
1.178000e+03 1.137880e-03
1.179000e+03 1.079876e-03
1.180000e+03 9.807228e-04
1.181000e+03 9.714020e-04
1.182000e+03 9.395906e-04
1.183000e+03 8.808429e-04
1.184000e+03 8.512723e-04
1.185000e+03 8.200280e-04
1.186000e+03 1.788395e-04
1.187000e+03 7.764775e-04
1.188000e+03 7.348055e-04
1.189000e+03 7.409679e-04
1.190000e+03 7.193860e-04
1.191000e+03 6.786158e-04
1.192000e+03 6.100133e-04
1.193000e+03 6.038685e-04
1.194000e+03 5.844841e-04
1.195000e+03 5.578035e-04
1.196000e+03 1.085117e-02
1.197000e+03 1.024880e-02
1.198000e+03 1.282813e-03
1.199000e+03 8.699287e-03
1.200000e+03 3.543787e-03
1.201000e+03 6.855099e-03
1.202000e+03 5.655595e-03
1.203000e+03 5.003382e-03
1.204000e+03 2.593400e-03
1.205000e+03 3.239963e-03
1.206000e+03 2.469841e-03
1.207000e+03 2.689608e-04
1.208000e+03 1.101769e-03
1.209000e+03 7.984482e-04
1.210000e+03 3.489520e-06
1.211000e+03 2.675679e-04
1.212000e+03 1.274324e-04
1.213000e+03 5.086135e-05
1.214000e+03 1.411850e-05
1.215000e+03 2.819890e-06
1.216000e+03 2.597169e-06
1.217000e+03 8.987166e-06
1.218000e+03 4.197410e-05
1.219000e+03 1.247041e-04
1.220000e+03 2.880083e-04
1.221000e+03 5.892717e-04
1.222000e+03 1.101713e-03
1.223000e+03 1.792242e-03
1.224000e+03 2.615410e-03
1.225000e+03 1.377995e-03
1.226000e+03 5.795209e-03
1.227000e+03 7.956150e-03
1.228000e+03 8.671147e-03
1.229000e+03 1.318766e-02
1.230000e+03 6.860692e-03
1.231000e+03 8.561168e-03
1.232000e+03 2.262503e-02
1.233000e+03 2.639471e-02
1.234000e+03 2.394110e-02
1.235000e+03 3.384987e-02
1.236000e+03 2.894797e-02
1.237000e+03 4.152094e-02
1.238000e+03 4.545126e-02
1.239000e+03 4.722472e-02
1.240000e+03 5.312286e-03
1.241000e+03 5.076906e-02
1.242000e+03 6.071920e-02
1.243000e+03 6.489923e-02
1.244000e+03 6.914278e-02
1.245000e+03 7.171600e-02
1.246000e+03 7.491453e-02
1.247000e+03 7.872360e-02
1.248000e+03 4.374478e-02
1.249000e+03 8.620343e-02
1.250000e+03 7.978238e-02
1.251000e+03 9.646346e-02
1.252000e+03 9.379800e-02
1.253000e+03 1.021403e-01
1.254000e+03 1.012254e-01
1.255000e+03 1.840886e-02
1.256000e+03 9.490255e-02
1.257000e+03 6.891908e-02
1.258000e+03 1.007134e-01
1.259000e+03 1.118653e-01
1.260000e+03 1.205914e-01
1.261000e+03 2.663665e-03
1.262000e+03 1.255608e-01
1.263000e+03 1.022858e-01
1.264000e+03 1.205022e-01
1.265000e+03 7.954406e-02
1.266000e+03 1.511082e-01
1.267000e+03 1.603147e-01
