# wavelength_A flux
5.000000e+02 1.744607e-14
5.010000e+02 2.035261e-14
5.020000e+02 2.372836e-14
5.030000e+02 2.764665e-14
5.040000e+02 3.219187e-14
5.050000e+02 3.959763e-14
5.060000e+02 4.603557e-14
5.070000e+02 5.348757e-14
5.080000e+02 6.210809e-14
5.090000e+02 7.208046e-14
5.100000e+02 8.359701e-14
5.110000e+02 9.689581e-14
5.120000e+02 1.122437e-13
5.130000e+02 1.299460e-13
5.140000e+02 1.503522e-13
5.150000e+02 1.738590e-13
5.160000e+02 2.009306e-13
5.170000e+02 2.320538e-13
5.180000e+02 2.679061e-13
5.190000e+02 3.090861e-13
5.200000e+02 3.563942e-13
5.210000e+02 4.107103e-13
5.220000e+02 4.729260e-13
5.230000e+02 5.445265e-13
5.240000e+02 6.264731e-13
5.250000e+02 7.203682e-13
5.260000e+02 8.278706e-13
5.270000e+02 9.508991e-13
5.280000e+02 1.091621e-12
5.290000e+02 1.251678e-12
5.300000e+02 1.436310e-12
5.310000e+02 1.646229e-12
5.320000e+02 1.885846e-12
5.330000e+02 2.159189e-12
5.340000e+02 2.470861e-12
5.350000e+02 2.826048e-12
5.360000e+02 3.230579e-12
5.370000e+02 3.589650e-12
5.380000e+02 4.215123e-12
5.390000e+02 4.811522e-12
5.400000e+02 5.489200e-12
5.410000e+02 6.258161e-12
5.420000e+02 7.133351e-12
5.430000e+02 8.126107e-12
5.440000e+02 9.252168e-12
5.450000e+02 1.052910e-11
5.460000e+02 1.197185e-11
5.470000e+02 1.361609e-11
5.480000e+02 1.547276e-11
5.490000e+02 1.757419e-11
5.500000e+02 1.995148e-11
5.510000e+02 2.263961e-11
5.520000e+02 2.567780e-11
5.530000e+02 2.911005e-11
5.540000e+02 3.298567e-11
5.550000e+02 3.735991e-11
5.560000e+02 4.229469e-11
5.570000e+02 4.785929e-11
5.580000e+02 5.413129e-11
5.590000e+02 6.119744e-11
5.600000e+02 6.915471e-11
5.610000e+02 7.811155e-11
5.620000e+02 8.818903e-11
5.630000e+02 9.952236e-11
5.640000e+02 1.122625e-10
5.650000e+02 1.265778e-10
5.660000e+02 1.426562e-10
5.670000e+02 1.607070e-10
5.680000e+02 1.809634e-10
5.690000e+02 2.036853e-10
5.700000e+02 2.291619e-10
5.710000e+02 2.577155e-10
5.720000e+02 2.897040e-10
5.730000e+02 3.255256e-10
5.740000e+02 3.656232e-10
5.750000e+02 4.105034e-10
5.760000e+02 4.606339e-10
5.770000e+02 5.167869e-10
5.780000e+02 5.794834e-10
5.790000e+02 6.495205e-10
5.800000e+02 7.277260e-10
5.810000e+02 8.150174e-10
5.820000e+02 9.124082e-10
5.830000e+02 1.021006e-09
5.840000e+02 1.141366e-09
5.850000e+02 1.276903e-09
5.860000e+02 1.427438e-09
5.870000e+02 1.594888e-09
5.880000e+02 1.781267e-09
5.890000e+02 1.988636e-09
5.900000e+02 2.219303e-09
5.910000e+02 2.475786e-09
5.920000e+02 2.760841e-09
5.930000e+02 3.077546e-09
5.940000e+02 3.429283e-09
5.950000e+02 3.819481e-09
5.960000e+02 4.253163e-09
5.970000e+02 4.733947e-09
5.980000e+02 5.267128e-09
5.990000e+02 5.858201e-09
6.000000e+02 6.513216e-09
6.010000e+02 7.238824e-09
6.020000e+02 8.042354e-09
6.030000e+02 8.931849e-09
6.040000e+02 9.916157e-09
6.050000e+02 1.100501e-08
6.060000e+02 1.220901e-08
6.070000e+02 1.354008e-08
6.080000e+02 1.501091e-08
6.090000e+02 1.663567e-08
6.100000e+02 1.842987e-08
6.110000e+02 2.041050e-08
6.120000e+02 2.259617e-08
6.130000e+02 2.500730e-08
6.140000e+02 2.766625e-08
6.150000e+02 3.059749e-08
6.160000e+02 3.382786e-08
6.170000e+02 3.738669e-08
6.180000e+02 4.130607e-08
6.190000e+02 4.562109e-08
6.200000e+02 5.037018e-08
6.210000e+02 5.559526e-08
6.220000e+02 6.134219e-08
6.230000e+02 6.766104e-08
6.240000e+02 7.460651e-08
6.250000e+02 8.223828e-08
6.260000e+02 9.062150e-08
6.270000e+02 9.982723e-08
6.280000e+02 1.099330e-07
6.290000e+02 1.210233e-07
6.300000e+02 1.331905e-07
6.310000e+02 1.465296e-07
6.320000e+02 1.611653e-07
6.330000e+02 1.772014e-07
6.340000e+02 1.947728e-07
6.350000e+02 2.140201e-07
6.360000e+02 2.345939e-07
6.370000e+02 2.581721e-07
6.380000e+02 2.834247e-07
6.390000e+02 3.110530e-07
6.400000e+02 3.412717e-07
6.410000e+02 3.743136e-07
6.420000e+02 4.104323e-07
6.430000e+02 4.499025e-07
6.440000e+02 4.930224e-07
6.450000e+02 5.401154e-07
6.460000e+02 5.915345e-07
6.470000e+02 6.476585e-07
6.480000e+02 7.089018e-07
6.490000e+02 7.757137e-07
6.500000e+02 8.485770e-07
6.510000e+02 9.280187e-07
6.520000e+02 1.014608e-06
6.530000e+02 1.108963e-06
6.540000e+02 1.211749e-06
6.550000e+02 1.323691e-06
6.560000e+02 1.445570e-06
6.570000e+02 1.578203e-06
6.580000e+02 1.722588e-06
6.590000e+02 1.879632e-06
6.600000e+02 2.050429e-06
6.610000e+02 2.236135e-06
6.620000e+02 2.437996e-06
6.630000e+02 2.657358e-06
6.640000e+02 2.895680e-06
6.650000e+02 3.154526e-06
6.660000e+02 3.435596e-06
6.670000e+02 3.740712e-06
6.680000e+02 4.071849e-06
6.690000e+02 4.431129e-06
6.700000e+02 4.820843e-06
6.710000e+02 5.243469e-06
6.720000e+02 5.701644e-06
6.730000e+02 6.198281e-06
6.740000e+02 6.736425e-06
6.750000e+02 7.319411e-06
6.760000e+02 7.950822e-06
6.770000e+02 8.634505e-06
6.780000e+02 9.374606e-06
6.790000e+02 1.017558e-05
6.800000e+02 1.104222e-05
6.810000e+02 1.197967e-05
6.820000e+02 1.299349e-05
6.830000e+02 1.408961e-05
6.840000e+02 1.527444e-05
6.850000e+02 1.655484e-05
6.860000e+02 1.793818e-05
6.870000e+02 1.943211e-05
6.880000e+02 2.104597e-05
6.890000e+02 2.278789e-05
6.900000e+02 2.466842e-05
6.910000e+02 2.669757e-05
6.920000e+02 2.888674e-05
6.930000e+02 3.124803e-05
6.940000e+02 3.379436e-05
6.950000e+02 3.653952e-05
6.960000e+02 3.949862e-05
6.970000e+02 4.268545e-05
6.980000e+02 4.612278e-05
6.990000e+02 4.982321e-05
7.000000e+02 5.380817e-05
7.010000e+02 5.809857e-05
7.020000e+02 6.271677e-05
7.030000e+02 6.768671e-05
7.040000e+02 7.303401e-05
7.050000e+02 7.878601e-05
7.060000e+02 8.497201e-05
7.070000e+02 9.162332e-05
7.080000e+02 9.877334e-05
7.090000e+02 1.064578e-04
7.100000e+02 1.147149e-04
7.110000e+02 1.235853e-04
7.120000e+02 1.331125e-04
7.130000e+02 1.433431e-04
7.140000e+02 1.543266e-04
7.150000e+02 1.661160e-04
7.160000e+02 1.787676e-04
7.170000e+02 1.923410e-04
7.180000e+02 2.068975e-04
7.190000e+02 2.225184e-04
7.200000e+02 2.392625e-04
7.210000e+02 2.572126e-04
7.220000e+02 2.764515e-04
7.230000e+02 2.970677e-04
7.240000e+02 3.191551e-04
7.250000e+02 3.428139e-04
7.260000e+02 3.681508e-04
7.270000e+02 3.952794e-04
7.280000e+02 4.243206e-04
7.290000e+02 4.554029e-04
7.300000e+02 4.886615e-04
7.310000e+02 5.242471e-04
7.320000e+02 5.623093e-04
7.330000e+02 6.030147e-04
7.340000e+02 6.465379e-04
7.350000e+02 6.930653e-04
7.360000e+02 7.427928e-04
7.370000e+02 7.959355e-04
7.380000e+02 8.527112e-04
7.390000e+02 9.133592e-04
7.400000e+02 9.781306e-04
7.410000e+02 1.047294e-03
7.420000e+02 1.121130e-03
7.430000e+02 1.199943e-03
7.440000e+02 1.284052e-03
7.450000e+02 1.373794e-03
7.460000e+02 1.469531e-03
7.470000e+02 1.571642e-03
7.480000e+02 1.680534e-03
7.490000e+02 1.796634e-03
7.500000e+02 1.920397e-03
7.510000e+02 2.052304e-03
7.520000e+02 2.192867e-03
7.530000e+02 2.342626e-03
7.540000e+02 2.502154e-03
7.550000e+02 2.672057e-03
7.560000e+02 2.852979e-03
7.570000e+02 3.045596e-03
7.580000e+02 3.250638e-03
7.590000e+02 3.468849e-03
7.600000e+02 3.701065e-03
7.610000e+02 3.948118e-03
7.620000e+02 4.210909e-03
7.630000e+02 4.490397e-03
7.640000e+02 4.787593e-03
7.650000e+02 5.103562e-03
7.660000e+02 5.439436e-03
7.670000e+02 5.796404e-03
7.680000e+02 6.175686e-03
7.690000e+02 6.578743e-03
7.700000e+02 7.006853e-03
7.710000e+02 7.461540e-03
7.720000e+02 7.944382e-03
7.730000e+02 8.457027e-03
7.740000e+02 9.001229e-03
7.750000e+02 9.578835e-03
7.760000e+02 1.019167e-02
7.770000e+02 1.084216e-02
7.780000e+02 1.153212e-02
7.790000e+02 1.226394e-02
7.800000e+02 1.304005e-02
7.810000e+02 1.386299e-02
7.820000e+02 1.473544e-02
7.830000e+02 1.566025e-02
7.840000e+02 1.664038e-02
7.850000e+02 1.767899e-02
7.860000e+02 1.877939e-02
7.870000e+02 1.994518e-02
7.880000e+02 2.117984e-02
7.890000e+02 2.248734e-02
7.900000e+02 2.387167e-02
7.910000e+02 2.533738e-02
7.920000e+02 2.688875e-02
7.930000e+02 2.853063e-02
7.940000e+02 3.026801e-02
7.950000e+02 3.210619e-02
7.960000e+02 3.405071e-02
7.970000e+02 3.610740e-02
7.980000e+02 3.828235e-02
7.990000e+02 4.058221e-02
8.000000e+02 4.301358e-02
8.010000e+02 4.558367e-02
8.020000e+02 4.829999e-02
8.030000e+02 5.117042e-02
8.040000e+02 5.420329e-02
8.050000e+02 5.740729e-02
8.060000e+02 6.079157e-02
8.070000e+02 6.436577e-02
8.080000e+02 6.814001e-02
8.090000e+02 7.212488e-02
8.100000e+02 7.633151e-02
8.110000e+02 8.077163e-02
8.120000e+02 8.545734e-02
8.130000e+02 9.040216e-02
8.140000e+02 9.561896e-02
8.150000e+02 1.011221e-01
8.160000e+02 1.069267e-01
8.170000e+02 1.130481e-01
8.180000e+02 1.195031e-01
8.190000e+02 1.263085e-01
8.200000e+02 1.334826e-01
8.210000e+02 1.410441e-01
8.220000e+02 1.490130e-01
8.230000e+02 1.574100e-01
8.240000e+02 1.662570e-01
8.250000e+02 1.755767e-01
8.260000e+02 1.853931e-01
8.270000e+02 1.957312e-01
8.280000e+02 2.066174e-01
8.290000e+02 2.180790e-01
8.300000e+02 2.301450e-01
8.310000e+02 2.428455e-01
8.320000e+02 2.562120e-01
8.330000e+02 2.702776e-01
8.340000e+02 2.850770e-01
8.350000e+02 3.005796e-01
8.360000e+02 3.170180e-01
8.370000e+02 3.342481e-01
8.380000e+02 3.523621e-01
8.390000e+02 3.714084e-01
8.400000e+02 3.914326e-01
8.410000e+02 4.124818e-01
8.420000e+02 4.345822e-01
8.430000e+02 4.578582e-01
8.440000e+02 4.822909e-01
8.450000e+02 5.079617e-01
8.460000e+02 5.349296e-01
8.470000e+02 5.632570e-01
8.480000e+02 5.930085e-01
8.490000e+02 6.242517e-01
8.500000e+02 6.570572e-01
8.510000e+02 6.914991e-01
8.520000e+02 7.276542e-01
8.530000e+02 7.656037e-01
8.540000e+02 8.054374e-01
8.550000e+02 8.472312e-01
8.560000e+02 8.910826e-01
8.570000e+02 9.370875e-01
8.580000e+02 9.853452e-01
8.590000e+02 1.035961e+00
8.600000e+02 1.089043e+00
8.610000e+02 1.144705e+00
8.620000e+02 1.203065e+00
8.630000e+02 1.264246e+00
8.640000e+02 1.328379e+00
8.650000e+02 1.395596e+00
8.660000e+02 1.466038e+00
8.670000e+02 1.539851e+00
8.680000e+02 1.617187e+00
8.690000e+02 1.698206e+00
8.700000e+02 1.783060e+00
8.710000e+02 1.871958e+00
8.720000e+02 1.965043e+00
8.730000e+02 2.062516e+00
8.740000e+02 2.164570e+00
8.750000e+02 2.271409e+00
8.760000e+02 2.383245e+00
8.770000e+02 2.500296e+00
8.780000e+02 2.622799e+00
8.790000e+02 2.750985e+00
8.800000e+02 2.885105e+00
8.810000e+02 3.025419e+00
8.820000e+02 3.172196e+00
8.830000e+02 3.325718e+00
8.840000e+02 3.486275e+00
8.850000e+02 3.654171e+00
8.860000e+02 3.829727e+00
8.870000e+02 4.013267e+00
8.880000e+02 4.205134e+00
8.890000e+02 4.405685e+00
8.900000e+02 4.615291e+00
8.910000e+02 4.834336e+00
8.920000e+02 5.046997e+00
8.930000e+02 5.302361e+00
8.940000e+02 5.552191e+00
8.950000e+02 5.813158e+00
8.960000e+02 6.085734e+00
8.970000e+02 6.370401e+00
8.980000e+02 6.667668e+00
8.990000e+02 6.978058e+00
9.000000e+02 7.302115e+00
9.010000e+02 7.640409e+00
9.020000e+02 7.993526e+00
9.030000e+02 8.362077e+00
9.040000e+02 8.746547e+00
9.050000e+02 9.148049e+00
9.060000e+02 9.566816e+00
9.070000e+02 1.000364e+01
9.080000e+02 1.045946e+01
9.090000e+02 1.093484e+01
9.100000e+02 1.143065e+01
9.110000e+02 1.194779e+01
9.120000e+02 1.248745e+01
9.130000e+02 1.276494e+01
9.140000e+02 1.443477e+01
9.150000e+02 2.190522e+02
9.160000e+02 3.110679e+02
9.170000e+02 3.226592e+02
9.180000e+02 3.340689e+02
9.190000e+02 3.468065e+02
9.200000e+02 3.594862e+02
9.210000e+02 1.797213e+01
9.220000e+02 3.857727e+02
9.230000e+02 3.989571e+02
9.240000e+02 3.779260e+02
9.250000e+02 4.225810e+02
9.260000e+02 4.434455e+02
9.270000e+02 4.602049e+02
9.280000e+02 4.775547e+02
9.290000e+02 4.310732e+02
9.300000e+02 5.059712e+02
9.310000e+02 5.260715e+02
9.320000e+02 5.497720e+02
9.330000e+02 5.691584e+02
9.340000e+02 5.892999e+02
9.350000e+02 1.346599e+02
9.360000e+02 6.283058e+02
9.370000e+02 1.158474e+02
9.380000e+02 4.665688e+02
9.390000e+02 7.004729e+02
9.400000e+02 7.253919e+02
9.410000e+02 5.302839e+02
9.420000e+02 7.772919e+02
9.430000e+02 8.043798e+02
9.440000e+02 7.318033e+02
9.450000e+02 8.607896e+02
9.460000e+02 8.905033e+02
9.470000e+02 7.422534e+02
9.480000e+02 9.475406e+02
9.490000e+02 9.753685e+02
9.500000e+02 2.754511e+02
9.510000e+02 1.018645e+03
9.520000e+02 1.090468e+03
9.530000e+02 1.127414e+03
9.540000e+02 9.702028e+02
9.550000e+02 1.207134e+03
9.560000e+02 1.253151e+03
9.570000e+02 8.800035e+02
9.580000e+02 1.321690e+03
9.590000e+02 1.384500e+03
9.600000e+02 2.790894e+02
9.610000e+02 1.481119e+03
9.620000e+02 1.530590e+03
9.630000e+02 1.581753e+03
9.640000e+02 1.295325e+02
9.650000e+02 1.535361e+03
9.660000e+02 1.744780e+03
9.670000e+02 1.802467e+03
9.680000e+02 1.851739e+03
9.690000e+02 1.911511e+03
9.700000e+02 1.980675e+03
9.710000e+02 2.028492e+03
9.720000e+02 1.914006e+03
9.730000e+02 1.918077e+03
9.740000e+02 2.224133e+03
9.750000e+02 2.326888e+03
9.760000e+02 2.408853e+03
9.770000e+02 2.489277e+03
9.780000e+02 2.568409e+03
9.790000e+02 2.655441e+03
9.800000e+02 2.741271e+03
9.810000e+02 2.830556e+03
9.820000e+02 2.913571e+03
9.830000e+02 3.014276e+03
9.840000e+02 1.009145e+03
9.850000e+02 3.211284e+03
9.860000e+02 3.313725e+03
9.870000e+02 3.418606e+03
9.880000e+02 3.518938e+03
9.890000e+02 2.802158e+03
9.900000e+02 4.307951e+02
9.910000e+02 3.843434e+03
9.920000e+02 3.954613e+03
9.930000e+02 4.009133e+03
9.940000e+02 6.339556e+02
9.950000e+02 9.606739e+02
9.960000e+02 3.357151e+03
9.970000e+02 1.603240e+03
9.980000e+02 4.781414e+03
9.990000e+02 4.924491e+03
1.000000e+03 5.110692e+03
1.001000e+03 5.268733e+03
1.002000e+03 5.430538e+03
1.003000e+03 5.364280e+03
1.004000e+03 5.768796e+03
1.005000e+03 5.761258e+03
1.006000e+03 6.128432e+03
1.007000e+03 6.315284e+03
1.008000e+03 6.505333e+03
1.009000e+03 6.590989e+03
1.010000e+03 6.906857e+03
1.011000e+03 7.114772e+03
1.012000e+03 7.328591e+03
1.013000e+03 7.548360e+03
1.014000e+03 7.764407e+03
1.015000e+03 7.899226e+03
1.016000e+03 8.233094e+03
1.017000e+03 8.468181e+03
1.018000e+03 8.724577e+03
1.019000e+03 8.968964e+03
1.020000e+03 9.217271e+03
1.021000e+03 8.169420e+03
1.022000e+03 9.264009e+03
1.023000e+03 9.783729e+03
1.024000e+03 9.561482e+03
1.025000e+03 7.124249e+03
1.026000e+03 3.149713e+03
1.027000e+03 9.771470e+03
1.028000e+03 2.975854e+03
1.029000e+03 1.176975e+04
1.030000e+03 1.218881e+04
1.031000e+03 1.266972e+04
1.032000e+03 1.305713e+04
1.033000e+03 5.800298e+03
1.034000e+03 1.388397e+04
1.035000e+03 3.125513e+03
1.036000e+03 1.464692e+04
1.037000e+03 3.700666e+03
1.038000e+03 1.559043e+04
1.039000e+03 1.601859e+04
1.040000e+03 1.650942e+04
1.041000e+03 1.697172e+04
1.042000e+03 1.739902e+04
1.043000e+03 1.768705e+04
1.044000e+03 1.848101e+04
1.045000e+03 1.900630e+04
1.046000e+03 1.955716e+04
1.047000e+03 2.011234e+04
1.048000e+03 2.065087e+04
1.049000e+03 2.123422e+04
1.050000e+03 2.186371e+04
1.051000e+03 2.247786e+04
1.052000e+03 2.310869e+04
1.053000e+03 2.367277e+04
1.054000e+03 2.439058e+04
1.055000e+03 2.509611e+04
1.056000e+03 2.579671e+04
1.057000e+03 2.651199e+04
1.058000e+03 2.724609e+04
1.059000e+03 2.799777e+04
1.060000e+03 2.876658e+04
1.061000e+03 2.956320e+04
1.062000e+03 3.037417e+04
1.063000e+03 2.698942e+04
1.064000e+03 6.763887e+03
1.065000e+03 3.298134e+04
1.066000e+03 3.384848e+04
1.067000e+03 3.461816e+04
1.068000e+03 3.575605e+04
1.069000e+03 3.669977e+04
1.070000e+03 3.767862e+04
1.071000e+03 3.876713e+04
1.072000e+03 3.980995e+04
1.073000e+03 4.085599e+04
1.074000e+03 4.197836e+04
1.075000e+03 4.309889e+04
1.076000e+03 4.425502e+04
1.077000e+03 4.540569e+04
1.078000e+03 4.664799e+04
1.079000e+03 4.773939e+04
1.080000e+03 4.915311e+04
1.081000e+03 5.046071e+04
1.082000e+03 5.175523e+04
1.083000e+03 5.315921e+04
1.084000e+03 5.452186e+04
1.085000e+03 5.396471e+04
1.086000e+03 5.744888e+04
1.087000e+03 5.894181e+04
1.088000e+03 6.028101e+04
1.089000e+03 6.205494e+04
1.090000e+03 6.365883e+04
1.091000e+03 6.531379e+04
1.092000e+03 6.698965e+04
1.093000e+03 6.866953e+04
1.094000e+03 7.050320e+04
1.095000e+03 7.228227e+04
1.096000e+03 7.416325e+04
1.097000e+03 7.557590e+04
1.098000e+03 7.795601e+04
1.099000e+03 7.998167e+04
1.100000e+03 8.111007e+04
1.101000e+03 7.569570e+04
1.102000e+03 2.147294e+05
1.103000e+03 1.000570e+06
1.104000e+03 2.158618e+05
1.105000e+03 8.899050e+04
1.106000e+03 2.853106e+06
1.107000e+03 2.815988e+06
1.108000e+03 2.972794e+06
1.109000e+03 2.624557e+06
1.110000e+03 8.130430e+05
1.111000e+03 2.271522e+05
1.112000e+03 3.027678e+06
1.113000e+03 3.267798e+06
1.114000e+03 7.870650e+04
1.115000e+03 3.311401e+06
1.116000e+03 3.397896e+06
1.117000e+03 6.461300e+04
1.118000e+03 3.443322e+06
1.119000e+03 3.609768e+06
1.120000e+03 3.663775e+06
1.121000e+03 3.134176e+06
1.122000e+03 2.517325e+04
1.123000e+03 4.767743e+05
1.124000e+03 3.946516e+06
1.125000e+03 2.599097e+06
1.126000e+03 4.118939e+06
1.127000e+03 3.941945e+06
1.128000e+03 1.769238e+06
1.129000e+03 4.220312e+06
1.130000e+03 4.028893e+06
1.131000e+03 4.532060e+06
1.132000e+03 9.831600e+04
1.133000e+03 4.642366e+06
1.134000e+03 4.553604e+06
1.135000e+03 1.252012e+05
1.136000e+03 4.946132e+06
1.137000e+03 5.046200e+06
1.138000e+03 5.157088e+06
1.139000e+03 5.032896e+06
1.140000e+03 5.555000e+04
1.141000e+03 5.450000e+06
1.142000e+03 5.507796e+06
1.143000e+03 5.637648e+06
1.144000e+03 5.753278e+06
1.145000e+03 4.256281e+06
1.146000e+03 5.979288e+06
1.147000e+03 5.911398e+06
1.148000e+03 6.039422e+06
1.149000e+03 6.278189e+06
1.150000e+03 6.248323e+06
1.151000e+03 6.435188e+06
1.152000e+03 6.635992e+06
1.153000e+03 3.175576e+06
1.154000e+03 1.953925e+05
1.155000e+03 6.705286e+06
1.156000e+03 3.574987e+06
1.157000e+03 7.192744e+06
1.158000e+03 1.615100e+05
1.159000e+03 6.110553e+06
1.160000e+03 7.656703e+06
1.161000e+03 7.801998e+06
1.162000e+03 1.229250e+06
1.163000e+03 8.041526e+06
1.164000e+03 1.662930e+05
1.165000e+03 8.361535e+06
1.166000e+03 8.486264e+06
1.167000e+03 8.501014e+06
1.168000e+03 8.861171e+06
1.169000e+03 8.627980e+06
1.170000e+03 9.201150e+06
1.171000e+03 9.373771e+06
1.172000e+03 9.436759e+06
1.173000e+03 9.717239e+06
1.174000e+03 9.821450e+06
1.175000e+03 1.817250e+05
1.176000e+03 1.489420e+05
1.177000e+03 1.039184e+07
1.178000e+03 1.042429e+07
1.179000e+03 1.074201e+07
1.180000e+03 9.107052e+06
1.181000e+03 1.096501e+07
1.182000e+03 1.124413e+07
1.183000e+03 1.139439e+07
1.184000e+03 1.153865e+07
1.185000e+03 1.162746e+07
1.186000e+03 1.178944e+07
1.187000e+03 1.191151e+07
1.188000e+03 1.195451e+07
1.189000e+03 1.871220e+05
1.190000e+03 3.691768e+06
1.191000e+03 1.188427e+07
1.192000e+03 1.191955e+07
1.193000e+03 1.595755e+05
1.194000e+03 2.146540e+05
1.195000e+03 7.991762e+06
1.196000e+03 1.188211e+07
1.197000e+03 1.527044e+07
1.198000e+03 1.532741e+07
1.199000e+03 1.464810e+07
1.200000e+03 1.253894e+07
1.201000e+03 1.322732e+07
1.202000e+03 1.296091e+07
1.203000e+03 1.404227e+07
1.204000e+03 1.259490e+07
1.205000e+03 1.123646e+07
1.206000e+03 9.872972e+06
1.207000e+03 2.451338e+06
1.208000e+03 6.878866e+06
1.209000e+03 5.192128e+06
1.210000e+03 3.624883e+05
1.211000e+03 2.715686e+06
1.212000e+03 1.720186e+06
1.213000e+03 1.006597e+06
1.214000e+03 5.679605e+05
1.215000e+03 3.402044e+05
1.216000e+03 2.931617e+05
1.217000e+03 5.010754e+05
1.218000e+03 9.189118e+05
1.219000e+03 1.670983e+06
1.220000e+03 2.823171e+06
1.221000e+03 4.380094e+06
1.222000e+03 6.307344e+06
1.223000e+03 8.557144e+06
1.224000e+03 1.108052e+07
1.225000e+03 1.382797e+07
1.226000e+03 1.675550e+07
1.227000e+03 1.959250e+07
1.228000e+03 2.309781e+07
1.229000e+03 2.642203e+07
1.230000e+03 2.979670e+07
1.231000e+03 3.325252e+07
1.232000e+03 3.675852e+07
1.233000e+03 4.025646e+07
1.234000e+03 2.321334e+07
1.235000e+03 4.727667e+07
1.236000e+03 5.073937e+07
1.237000e+03 5.421022e+07
1.238000e+03 5.770109e+07
1.239000e+03 6.111518e+07
1.240000e+03 5.844275e+07
1.241000e+03 9.652014e+07
1.242000e+03 5.620341e+07
1.243000e+03 9.183502e+07
1.244000e+03 3.880640e+07
1.245000e+03 5.607210e+07
1.246000e+03 1.661405e+08
1.247000e+03 1.766268e+08
1.248000e+03 4.027234e+07
1.249000e+03 5.847459e+07
1.250000e+03 2.130554e+08
1.251000e+03 2.253218e+08
1.252000e+03 2.375753e+08
1.253000e+03 2.516873e+08
1.254000e+03 2.607563e+08
1.255000e+03 2.781015e+08
1.256000e+03 2.887539e+08
1.257000e+03 3.039727e+08
1.258000e+03 3.125251e+08
1.259000e+03 2.996621e+08
1.260000e+03 2.092923e+08
1.261000e+03 8.236660e+05
1.262000e+03 2.548880e+07
1.263000e+03 3.556236e+08
1.264000e+03 2.941104e+08
1.265000e+03 7.811840e+05
1.266000e+03 3.861875e+08
1.267000e+03 4.388086e+08
