# wavelength_A flux
5.000000e+02 2.732039e-09
5.010000e+02 3.112541e-09
5.020000e+02 3.544127e-09
5.030000e+02 4.033392e-09
5.040000e+02 4.587756e-09
5.050000e+02 5.420900e-09
5.060000e+02 6.158297e-09
5.070000e+02 6.992348e-09
5.080000e+02 7.935260e-09
5.090000e+02 9.001171e-09
5.100000e+02 1.020442e-08
5.110000e+02 1.156277e-08
5.120000e+02 1.309524e-08
5.130000e+02 1.482337e-08
5.140000e+02 1.677118e-08
5.150000e+02 1.896516e-08
5.160000e+02 2.143633e-08
5.170000e+02 2.421579e-08
5.180000e+02 2.734542e-08
5.190000e+02 3.086275e-08
5.200000e+02 3.481572e-08
5.210000e+02 3.925603e-08
5.220000e+02 4.423427e-08
5.230000e+02 4.983589e-08
5.240000e+02 5.611222e-08
5.250000e+02 6.315012e-08
5.260000e+02 7.103684e-08
5.270000e+02 7.987155e-08
5.280000e+02 8.976350e-08
5.290000e+02 1.007982e-07
5.300000e+02 1.132185e-07
5.310000e+02 1.270670e-07
5.320000e+02 1.425460e-07
5.330000e+02 1.598380e-07
5.340000e+02 1.791479e-07
5.350000e+02 2.007015e-07
5.360000e+02 2.247471e-07
5.370000e+02 2.462841e-07
5.380000e+02 2.814592e-07
5.390000e+02 3.147582e-07
5.400000e+02 3.518842e-07
5.410000e+02 3.931610e-07
5.420000e+02 4.391723e-07
5.430000e+02 4.903162e-07
5.440000e+02 5.471859e-07
5.450000e+02 6.103958e-07
5.460000e+02 6.804765e-07
5.470000e+02 7.586204e-07
5.480000e+02 8.452018e-07
5.490000e+02 9.412885e-07
5.500000e+02 1.047865e-06
5.510000e+02 1.166043e-06
5.520000e+02 1.297023e-06
5.530000e+02 1.442138e-06
5.540000e+02 1.602853e-06
5.550000e+02 1.780742e-06
5.560000e+02 1.977629e-06
5.570000e+02 2.195425e-06
5.580000e+02 2.436259e-06
5.590000e+02 2.702463e-06
5.600000e+02 2.996575e-06
5.610000e+02 3.321452e-06
5.620000e+02 3.680150e-06
5.630000e+02 4.076041e-06
5.640000e+02 4.512818e-06
5.650000e+02 4.994505e-06
5.660000e+02 5.525591e-06
5.670000e+02 6.110841e-06
5.680000e+02 6.755617e-06
5.690000e+02 7.465670e-06
5.700000e+02 8.247179e-06
5.710000e+02 9.107395e-06
5.720000e+02 1.005368e-05
5.730000e+02 1.109430e-05
5.740000e+02 1.223827e-05
5.750000e+02 1.349573e-05
5.760000e+02 1.487296e-05
5.770000e+02 1.639326e-05
5.780000e+02 1.805811e-05
5.790000e+02 1.988511e-05
5.800000e+02 2.188937e-05
5.810000e+02 2.408732e-05
5.820000e+02 2.649679e-05
5.830000e+02 2.913685e-05
5.840000e+02 3.201416e-05
5.850000e+02 3.519425e-05
5.860000e+02 3.866674e-05
5.870000e+02 4.246361e-05
5.880000e+02 4.661765e-05
5.890000e+02 5.115891e-05
5.900000e+02 5.612797e-05
5.910000e+02 6.155700e-05
5.920000e+02 6.749063e-05
5.930000e+02 7.397152e-05
5.940000e+02 8.104860e-05
5.950000e+02 8.876721e-05
5.960000e+02 9.720554e-05
5.970000e+02 1.064037e-04
5.980000e+02 1.164334e-04
5.990000e+02 1.273708e-04
6.000000e+02 1.392922e-04
6.010000e+02 1.522063e-04
6.020000e+02 1.664319e-04
6.030000e+02 1.818396e-04
6.040000e+02 1.986151e-04
6.050000e+02 2.168709e-04
6.060000e+02 2.367324e-04
6.070000e+02 2.583363e-04
6.080000e+02 2.818263e-04
6.090000e+02 3.073606e-04
6.100000e+02 3.351076e-04
6.110000e+02 3.652469e-04
6.120000e+02 3.979865e-04
6.130000e+02 4.335340e-04
6.140000e+02 4.721188e-04
6.150000e+02 5.139839e-04
6.160000e+02 5.594055e-04
6.170000e+02 6.086667e-04
6.180000e+02 6.620769e-04
6.190000e+02 7.199690e-04
6.200000e+02 7.827023e-04
6.210000e+02 8.506623e-04
6.220000e+02 9.242640e-04
6.230000e+02 1.003955e-03
6.240000e+02 1.090192e-03
6.250000e+02 1.183535e-03
6.260000e+02 1.284517e-03
6.270000e+02 1.393734e-03
6.280000e+02 1.511827e-03
6.290000e+02 1.639482e-03
6.300000e+02 1.777438e-03
6.310000e+02 1.926471e-03
6.320000e+02 2.087459e-03
6.330000e+02 2.261299e-03
6.340000e+02 2.448973e-03
6.350000e+02 2.651523e-03
6.360000e+02 2.862050e-03
6.370000e+02 3.105803e-03
6.380000e+02 3.360056e-03
6.390000e+02 3.634146e-03
6.400000e+02 3.929628e-03
6.410000e+02 4.248049e-03
6.420000e+02 4.591107e-03
6.430000e+02 4.960615e-03
6.440000e+02 5.358511e-03
6.450000e+02 5.786870e-03
6.460000e+02 6.247918e-03
6.470000e+02 6.744016e-03
6.480000e+02 7.277720e-03
6.490000e+02 7.851724e-03
6.500000e+02 8.468924e-03
6.510000e+02 9.132406e-03
6.520000e+02 9.845500e-03
6.530000e+02 1.061170e-02
6.540000e+02 1.143479e-02
6.550000e+02 1.231877e-02
6.560000e+02 1.326792e-02
6.570000e+02 1.428636e-02
6.580000e+02 1.538035e-02
6.590000e+02 1.655369e-02
6.600000e+02 1.781221e-02
6.610000e+02 1.916218e-02
6.620000e+02 2.060940e-02
6.630000e+02 2.216108e-02
6.640000e+02 2.382413e-02
6.650000e+02 2.560598e-02
6.660000e+02 2.751514e-02
6.670000e+02 2.955979e-02
6.680000e+02 3.174923e-02
6.690000e+02 3.409320e-02
6.700000e+02 3.660198e-02
6.710000e+02 3.928673e-02
6.720000e+02 4.215810e-02
6.730000e+02 4.523147e-02
6.740000e+02 4.851713e-02
6.750000e+02 5.203011e-02
6.760000e+02 5.578534e-02
6.770000e+02 5.979866e-02
6.780000e+02 6.408691e-02
6.790000e+02 6.866742e-02
6.800000e+02 7.356020e-02
6.810000e+02 7.878490e-02
6.820000e+02 8.436283e-02
6.830000e+02 9.031560e-02
6.840000e+02 9.666932e-02
6.850000e+02 1.034469e-01
6.860000e+02 1.106799e-01
6.870000e+02 1.183909e-01
6.880000e+02 1.266164e-01
6.890000e+02 1.353838e-01
6.900000e+02 1.447287e-01
6.910000e+02 1.546874e-01
6.920000e+02 1.652978e-01
6.930000e+02 1.766005e-01
6.940000e+02 1.886382e-01
6.950000e+02 2.014561e-01
6.960000e+02 2.151022e-01
6.970000e+02 2.296223e-01
6.980000e+02 2.450850e-01
6.990000e+02 2.615319e-01
7.000000e+02 2.790281e-01
7.010000e+02 2.976368e-01
7.020000e+02 3.174251e-01
7.030000e+02 3.384594e-01
7.040000e+02 3.608231e-01
7.050000e+02 3.845909e-01
7.060000e+02 4.098446e-01
7.070000e+02 4.366775e-01
7.080000e+02 4.651774e-01
7.090000e+02 4.954378e-01
7.100000e+02 5.275819e-01
7.110000e+02 5.616995e-01
7.120000e+02 5.979125e-01
7.130000e+02 6.363428e-01
7.140000e+02 6.771184e-01
7.150000e+02 7.203738e-01
7.160000e+02 7.662558e-01
7.170000e+02 8.149058e-01
7.180000e+02 8.664811e-01
7.190000e+02 9.211855e-01
7.200000e+02 9.791400e-01
7.210000e+02 1.040565e+00
7.220000e+02 1.105645e+00
7.230000e+02 1.174575e+00
7.240000e+02 1.247598e+00
7.250000e+02 1.324924e+00
7.260000e+02 1.406783e+00
7.270000e+02 1.493483e+00
7.280000e+02 1.585226e+00
7.290000e+02 1.682315e+00
7.300000e+02 1.785043e+00
7.310000e+02 1.893720e+00
7.320000e+02 2.008671e+00
7.330000e+02 2.130238e+00
7.340000e+02 2.258781e+00
7.350000e+02 2.394678e+00
7.360000e+02 2.538321e+00
7.370000e+02 2.690140e+00
7.380000e+02 2.850561e+00
7.390000e+02 3.020048e+00
7.400000e+02 3.199057e+00
7.410000e+02 3.388134e+00
7.420000e+02 3.587775e+00
7.430000e+02 3.798649e+00
7.440000e+02 4.021221e+00
7.450000e+02 4.256145e+00
7.460000e+02 4.504071e+00
7.470000e+02 4.765674e+00
7.480000e+02 5.041665e+00
7.490000e+02 5.332798e+00
7.500000e+02 5.639847e+00
7.510000e+02 5.963635e+00
7.520000e+02 6.305023e+00
7.530000e+02 6.664912e+00
7.540000e+02 7.044246e+00
7.550000e+02 7.443988e+00
7.560000e+02 7.865229e+00
7.570000e+02 8.308414e+00
7.580000e+02 8.776438e+00
7.590000e+02 9.268626e+00
7.600000e+02 9.787193e+00
7.610000e+02 1.033317e+01
7.620000e+02 1.090796e+01
7.630000e+02 1.151297e+01
7.640000e+02 1.214973e+01
7.650000e+02 1.281975e+01
7.660000e+02 1.352479e+01
7.670000e+02 1.426646e+01
7.680000e+02 1.504646e+01
7.690000e+02 1.586706e+01
7.700000e+02 1.672982e+01
7.710000e+02 1.763692e+01
7.720000e+02 1.859050e+01
7.730000e+02 1.959283e+01
7.740000e+02 2.064623e+01
7.750000e+02 2.175315e+01
7.760000e+02 2.290947e+01
7.770000e+02 2.413754e+01
7.780000e+02 2.542083e+01
7.790000e+02 2.676856e+01
7.800000e+02 2.818379e+01
7.810000e+02 2.966969e+01
7.820000e+02 3.122958e+01
7.830000e+02 3.286687e+01
7.840000e+02 3.458533e+01
7.850000e+02 3.638858e+01
7.860000e+02 3.828041e+01
7.870000e+02 4.026567e+01
7.880000e+02 4.234773e+01
7.890000e+02 4.453141e+01
7.900000e+02 4.682137e+01
7.910000e+02 4.922198e+01
7.920000e+02 5.173846e+01
7.930000e+02 5.437720e+01
7.940000e+02 5.714291e+01
7.950000e+02 6.004134e+01
7.960000e+02 6.307845e+01
7.970000e+02 6.626050e+01
7.980000e+02 6.959395e+01
7.990000e+02 7.308550e+01
8.000000e+02 7.674242e+01
8.010000e+02 8.057124e+01
8.020000e+02 8.458137e+01
8.030000e+02 8.877905e+01
8.040000e+02 9.317316e+01
8.050000e+02 9.777228e+01
8.060000e+02 1.025854e+02
8.070000e+02 1.076218e+02
8.080000e+02 1.128904e+02
8.090000e+02 1.184030e+02
8.100000e+02 1.241691e+02
8.110000e+02 1.302000e+02
8.120000e+02 1.365067e+02
8.130000e+02 1.431015e+02
8.140000e+02 1.499962e+02
8.150000e+02 1.572035e+02
8.160000e+02 1.647376e+02
8.170000e+02 1.726103e+02
8.180000e+02 1.808396e+02
8.190000e+02 1.894371e+02
8.200000e+02 1.984196e+02
8.210000e+02 2.078030e+02
8.220000e+02 2.176040e+02
8.230000e+02 2.278379e+02
8.240000e+02 2.385273e+02
8.250000e+02 2.496886e+02
8.260000e+02 2.613414e+02
8.270000e+02 2.735042e+02
8.280000e+02 2.862015e+02
8.290000e+02 2.994532e+02
8.300000e+02 3.132824e+02
8.310000e+02 3.277122e+02
8.320000e+02 3.427671e+02
8.330000e+02 3.584725e+02
8.340000e+02 3.748546e+02
8.350000e+02 3.918919e+02
8.360000e+02 4.097565e+02
8.370000e+02 4.283392e+02
8.380000e+02 4.476886e+02
8.390000e+02 4.679066e+02
8.400000e+02 4.889585e+02
8.410000e+02 5.108994e+02
8.420000e+02 5.337542e+02
8.430000e+02 5.575972e+02
8.440000e+02 5.824260e+02
8.450000e+02 6.082936e+02
8.460000e+02 6.352406e+02
8.470000e+02 6.633089e+02
8.480000e+02 6.925422e+02
8.490000e+02 7.229853e+02
8.500000e+02 7.546854e+02
8.510000e+02 7.876880e+02
8.520000e+02 8.220362e+02
8.530000e+02 8.578064e+02
8.540000e+02 8.950426e+02
8.550000e+02 9.337884e+02
8.560000e+02 9.741074e+02
8.570000e+02 1.016062e+03
8.580000e+02 1.059711e+03
8.590000e+02 1.105122e+03
8.600000e+02 1.152358e+03
8.610000e+02 1.201488e+03
8.620000e+02 1.252583e+03
8.630000e+02 1.305710e+03
8.640000e+02 1.360963e+03
8.650000e+02 1.418393e+03
8.660000e+02 1.478117e+03
8.670000e+02 1.540188e+03
8.680000e+02 1.604704e+03
8.690000e+02 1.671753e+03
8.700000e+02 1.741424e+03
8.710000e+02 1.813827e+03
8.720000e+02 1.889046e+03
8.730000e+02 1.967189e+03
8.740000e+02 2.048362e+03
8.750000e+02 2.132674e+03
8.760000e+02 2.220237e+03
8.770000e+02 2.311149e+03
8.780000e+02 2.405590e+03
8.790000e+02 2.503625e+03
8.800000e+02 2.605402e+03
8.810000e+02 2.711023e+03
8.820000e+02 2.820687e+03
8.830000e+02 2.934505e+03
8.840000e+02 3.052624e+03
8.850000e+02 3.175195e+03
8.860000e+02 3.302373e+03
8.870000e+02 3.434320e+03
8.880000e+02 3.571200e+03
8.890000e+02 3.713166e+03
8.900000e+02 3.860431e+03
8.910000e+02 4.013169e+03
8.920000e+02 4.163473e+03
8.930000e+02 4.335802e+03
8.940000e+02 4.506093e+03
8.950000e+02 4.682634e+03
8.960000e+02 4.865659e+03
8.970000e+02 5.055368e+03
8.980000e+02 5.251995e+03
8.990000e+02 5.455772e+03
9.000000e+02 5.666944e+03
9.010000e+02 5.885759e+03
9.020000e+02 6.112472e+03
9.030000e+02 6.347339e+03
9.040000e+02 6.590500e+03
9.050000e+02 6.842634e+03
9.060000e+02 7.103730e+03
9.070000e+02 7.373688e+03
9.080000e+02 7.653938e+03
9.090000e+02 7.943825e+03
9.100000e+02 8.243968e+03
9.110000e+02 8.554770e+03
9.120000e+02 8.876841e+03
9.130000e+02 8.958292e+03
9.140000e+02 9.811502e+03
9.150000e+02 3.806827e+04
9.160000e+02 1.377762e+05
9.170000e+02 1.449057e+05
9.180000e+02 1.475574e+05
9.190000e+02 1.552412e+05
9.200000e+02 1.602568e+05
9.210000e+02 1.150679e+04
9.220000e+02 1.695953e+05
9.230000e+02 1.722181e+05
9.240000e+02 1.677666e+05
9.250000e+02 1.830276e+05
9.260000e+02 1.899936e+05
9.270000e+02 1.970436e+05
9.280000e+02 2.033305e+05
9.290000e+02 1.850535e+05
9.300000e+02 2.099501e+05
9.310000e+02 2.193355e+05
9.320000e+02 2.288159e+05
9.330000e+02 2.345642e+05
9.340000e+02 2.413749e+05
9.350000e+02 1.035140e+05
9.360000e+02 2.556844e+05
9.370000e+02 7.115046e+04
9.380000e+02 7.037859e+04
9.390000e+02 2.801941e+05
9.400000e+02 2.885461e+05
9.410000e+02 1.585913e+05
9.420000e+02 3.057369e+05
9.430000e+02 3.096483e+05
9.440000e+02 2.189599e+05
9.450000e+02 3.326347e+05
9.460000e+02 3.425261e+05
9.470000e+02 1.151093e+05
9.480000e+02 2.931164e+05
9.490000e+02 3.689402e+05
9.500000e+02 8.805162e+04
9.510000e+02 3.838617e+05
9.520000e+02 4.056328e+05
9.530000e+02 4.118812e+05
9.540000e+02 3.061132e+05
9.550000e+02 4.415728e+05
9.560000e+02 3.035436e+05
9.570000e+02 3.921411e+05
9.580000e+02 4.785374e+05
9.590000e+02 4.955991e+05
9.600000e+02 1.480926e+05
9.610000e+02 5.127238e+05
9.620000e+02 5.362215e+05
9.630000e+02 5.537487e+05
9.640000e+02 5.877266e+04
9.650000e+02 5.291438e+05
9.660000e+02 6.009572e+05
9.670000e+02 6.090152e+05
9.680000e+02 6.316929e+05
9.690000e+02 6.474681e+05
9.700000e+02 6.669684e+05
9.710000e+02 6.797851e+05
9.720000e+02 6.388078e+05
9.730000e+02 6.378899e+05
9.740000e+02 7.301478e+05
9.750000e+02 7.633719e+05
9.760000e+02 7.852138e+05
9.770000e+02 8.083222e+05
9.780000e+02 8.276053e+05
9.790000e+02 8.532987e+05
9.800000e+02 8.759591e+05
9.810000e+02 9.000241e+05
9.820000e+02 9.216324e+05
9.830000e+02 9.482623e+05
9.840000e+02 4.312663e+05
9.850000e+02 9.998351e+05
9.860000e+02 1.026284e+06
9.870000e+02 1.053364e+06
9.880000e+02 1.077437e+06
9.890000e+02 9.208884e+05
9.900000e+02 1.700795e+05
9.910000e+02 1.158253e+06
9.920000e+02 9.850740e+05
9.930000e+02 1.143270e+06
9.940000e+02 2.557252e+05
9.950000e+02 3.991167e+05
9.960000e+02 5.090756e+05
9.970000e+02 3.224756e+05
9.980000e+02 1.396669e+06
9.990000e+02 1.396173e+06
1.000000e+03 1.472979e+06
1.001000e+03 1.510953e+06
1.002000e+03 1.549192e+06
1.003000e+03 1.511125e+06
1.004000e+03 1.628458e+06
1.005000e+03 1.540956e+06
1.006000e+03 1.713682e+06
1.007000e+03 1.723151e+06
1.008000e+03 1.793572e+06
1.009000e+03 1.808623e+06
1.010000e+03 1.892920e+06
1.011000e+03 1.940232e+06
1.012000e+03 1.988412e+06
1.013000e+03 2.038054e+06
1.014000e+03 2.079341e+06
1.015000e+03 2.119725e+06
1.016000e+03 2.189029e+06
1.017000e+03 2.236952e+06
1.018000e+03 2.296768e+06
1.019000e+03 2.349430e+06
1.020000e+03 2.404507e+06
1.021000e+03 1.658134e+06
1.022000e+03 2.397203e+06
1.023000e+03 2.515792e+06
1.024000e+03 2.198756e+06
1.025000e+03 1.831646e+06
1.026000e+03 8.614217e+05
1.027000e+03 2.352189e+06
1.028000e+03 1.072073e+06
1.029000e+03 2.935199e+06
1.030000e+03 2.988354e+06
1.031000e+03 3.128246e+06
1.032000e+03 3.186020e+06
1.033000e+03 2.168729e+06
1.034000e+03 3.386911e+06
1.035000e+03 9.887765e+05
1.036000e+03 3.338780e+06
1.037000e+03 5.471490e+05
1.038000e+03 3.730424e+06
1.039000e+03 3.780879e+06
1.040000e+03 3.912919e+06
1.041000e+03 3.967100e+06
1.042000e+03 4.075551e+06
1.043000e+03 4.127208e+06
1.044000e+03 4.288682e+06
1.045000e+03 4.388823e+06
1.046000e+03 4.506093e+06
1.047000e+03 4.608294e+06
1.048000e+03 4.701554e+06
1.049000e+03 4.523563e+06
1.050000e+03 4.941797e+06
1.051000e+03 5.058214e+06
1.052000e+03 5.176676e+06
1.053000e+03 5.244203e+06
1.054000e+03 5.351187e+06
1.055000e+03 5.179087e+06
1.056000e+03 5.672377e+06
1.057000e+03 5.801560e+06
1.058000e+03 5.931262e+06
1.059000e+03 6.068702e+06
1.060000e+03 6.206144e+06
1.061000e+03 6.352152e+06
1.062000e+03 6.496546e+06
1.063000e+03 2.591775e+06
1.064000e+03 1.694368e+06
1.065000e+03 6.963890e+06
1.066000e+03 5.190977e+06
1.067000e+03 7.160975e+06
1.068000e+03 7.468817e+06
1.069000e+03 7.163941e+06
1.070000e+03 7.739820e+06
1.071000e+03 7.985858e+06
1.072000e+03 8.163486e+06
1.073000e+03 8.328687e+06
1.074000e+03 8.530471e+06
1.075000e+03 8.718357e+06
1.076000e+03 8.912064e+06
1.077000e+03 9.100425e+06
1.078000e+03 9.307482e+06
1.079000e+03 9.492184e+06
1.080000e+03 9.722679e+06
1.081000e+03 9.936708e+06
1.082000e+03 1.014906e+07
1.083000e+03 1.035227e+07
1.084000e+03 1.047854e+07
1.085000e+03 7.039414e+06
1.086000e+03 1.106884e+07
1.087000e+03 1.130039e+07
1.088000e+03 1.151188e+07
1.089000e+03 1.179924e+07
1.090000e+03 1.204101e+07
1.091000e+03 1.217528e+07
1.092000e+03 1.257406e+07
1.093000e+03 1.283237e+07
1.094000e+03 1.311773e+07
1.095000e+03 1.339008e+07
1.096000e+03 1.367936e+07
1.097000e+03 1.240630e+07
1.098000e+03 1.373843e+07
1.099000e+03 1.455268e+07
1.100000e+03 1.180823e+07
1.101000e+03 1.396169e+07
1.102000e+03 2.886320e+07
1.103000e+03 7.871176e+07
1.104000e+03 4.098550e+07
1.105000e+03 1.509856e+07
1.106000e+03 2.517065e+08
1.107000e+03 2.285520e+08
1.108000e+03 2.298636e+08
1.109000e+03 8.728734e+07
1.110000e+03 5.204132e+07
1.111000e+03 3.444538e+07
1.112000e+03 1.783593e+08
1.113000e+03 2.849496e+08
1.114000e+03 1.248442e+07
1.115000e+03 2.731915e+08
1.116000e+03 2.890552e+08
1.117000e+03 1.579038e+07
1.118000e+03 1.327231e+08
1.119000e+03 3.093652e+08
1.120000e+03 3.101778e+08
1.121000e+03 2.827421e+08
1.122000e+03 5.208368e+06
1.123000e+03 2.132485e+07
1.124000e+03 3.334441e+08
1.125000e+03 1.391343e+08
1.126000e+03 3.458075e+08
1.127000e+03 3.303554e+08
1.128000e+03 2.016239e+08
1.129000e+03 3.421484e+08
1.130000e+03 1.960768e+08
1.131000e+03 3.754112e+08
1.132000e+03 1.338179e+07
1.133000e+03 2.527898e+08
1.134000e+03 2.907943e+08
1.135000e+03 7.400096e+06
1.136000e+03 3.979229e+08
1.137000e+03 4.113400e+08
1.138000e+03 4.176731e+08
1.139000e+03 4.110463e+08
1.140000e+03 1.012413e+07
1.141000e+03 4.385411e+08
1.142000e+03 4.332532e+08
1.143000e+03 4.503191e+08
1.144000e+03 4.588206e+08
1.145000e+03 3.497262e+08
1.146000e+03 4.716499e+08
1.147000e+03 4.694340e+08
1.148000e+03 4.732946e+08
1.149000e+03 4.936769e+08
1.150000e+03 4.924250e+08
1.151000e+03 5.044600e+08
1.152000e+03 5.146893e+08
1.153000e+03 1.227403e+08
1.154000e+03 2.565558e+07
1.155000e+03 2.221324e+08
1.156000e+03 5.803757e+07
1.157000e+03 5.477107e+08
1.158000e+03 1.388795e+07
1.159000e+03 3.003084e+08
1.160000e+03 5.411254e+08
1.161000e+03 5.925032e+08
1.162000e+03 1.141406e+08
1.163000e+03 6.005141e+08
1.164000e+03 3.015232e+07
1.165000e+03 6.277683e+08
1.166000e+03 6.285052e+08
1.167000e+03 6.322818e+08
1.168000e+03 6.574584e+08
1.169000e+03 5.947708e+08
1.170000e+03 6.763879e+08
1.171000e+03 6.888051e+08
1.172000e+03 6.894472e+08
1.173000e+03 7.053737e+08
1.174000e+03 6.891012e+08
1.175000e+03 3.483930e+07
1.176000e+03 2.571053e+07
1.177000e+03 7.461751e+08
1.178000e+03 7.079650e+08
1.179000e+03 7.686643e+08
1.180000e+03 6.481976e+08
1.181000e+03 7.833024e+08
1.182000e+03 7.986675e+08
1.183000e+03 8.074465e+08
1.184000e+03 8.154099e+08
1.185000e+03 7.986666e+08
1.186000e+03 8.282292e+08
1.187000e+03 8.376600e+08
1.188000e+03 8.348939e+08
1.189000e+03 2.702234e+07
1.190000e+03 6.729286e+07
1.191000e+03 8.333347e+08
1.192000e+03 8.347080e+08
1.193000e+03 2.375526e+07
1.194000e+03 3.166170e+07
1.195000e+03 6.039657e+08
1.196000e+03 8.337345e+08
1.197000e+03 9.882267e+08
1.198000e+03 9.900801e+08
1.199000e+03 9.572574e+08
1.200000e+03 8.427601e+08
1.201000e+03 8.816986e+08
1.202000e+03 8.665228e+08
1.203000e+03 9.094152e+08
1.204000e+03 8.249277e+08
1.205000e+03 7.602380e+08
1.206000e+03 6.684070e+08
1.207000e+03 2.161791e+08
1.208000e+03 5.071730e+08
1.209000e+03 3.911468e+08
1.210000e+03 5.445216e+07
1.211000e+03 2.359308e+08
1.212000e+03 1.510425e+08
1.213000e+03 1.037190e+08
1.214000e+03 6.443012e+07
1.215000e+03 4.246510e+07
1.216000e+03 3.830646e+07
1.217000e+03 5.805876e+07
1.218000e+03 9.616490e+07
1.219000e+03 1.580656e+08
1.220000e+03 2.439985e+08
1.221000e+03 3.507695e+08
1.222000e+03 4.737342e+08
1.223000e+03 6.084255e+08
1.224000e+03 7.527315e+08
1.225000e+03 8.994548e+08
1.226000e+03 1.051164e+09
1.227000e+03 1.183608e+09
1.228000e+03 1.365658e+09
1.229000e+03 1.518766e+09
1.230000e+03 1.661021e+09
1.231000e+03 1.823519e+09
1.232000e+03 1.975028e+09
1.233000e+03 2.124330e+09
1.234000e+03 1.403169e+09
1.235000e+03 2.402766e+09
1.236000e+03 2.534181e+09
1.237000e+03 2.673591e+09
1.238000e+03 2.803491e+09
1.239000e+03 2.930106e+09
1.240000e+03 2.798511e+09
1.241000e+03 5.019050e+09
1.242000e+03 2.876084e+09
1.243000e+03 3.978881e+09
1.244000e+03 1.792209e+09
1.245000e+03 2.647735e+09
1.246000e+03 8.025995e+09
1.247000e+03 7.927282e+09
1.248000e+03 1.976178e+09
1.249000e+03 2.368188e+09
1.250000e+03 1.022104e+10
1.251000e+03 1.057732e+10
1.252000e+03 1.090101e+10
1.253000e+03 1.183263e+10
1.254000e+03 1.211848e+10
1.255000e+03 1.273197e+10
1.256000e+03 1.307447e+10
1.257000e+03 1.384914e+10
1.258000e+03 1.389243e+10
1.259000e+03 1.364484e+10
1.260000e+03 9.820999e+09
1.261000e+03 9.424224e+07
1.262000e+03 1.268814e+09
1.263000e+03 1.562374e+10
1.264000e+03 1.323975e+10
1.265000e+03 9.031987e+07
1.266000e+03 1.686042e+10
1.267000e+03 1.853150e+10
