# wavelength_A flux
5.000000e+02 2.202908e-37
5.010000e+02 2.856902e-37
5.020000e+02 3.701143e-37
5.030000e+02 4.789836e-37
5.040000e+02 6.192307e-37
5.050000e+02 7.998674e-37
5.060000e+02 1.031926e-36
5.070000e+02 1.329943e-36
5.080000e+02 1.712289e-36
5.090000e+02 2.202322e-36
5.100000e+02 2.829312e-36
5.110000e+02 3.632289e-36
5.120000e+02 4.657790e-36
5.130000e+02 5.966957e-36
5.140000e+02 7.636563e-36
5.150000e+02 9.763796e-36
5.160000e+02 1.247147e-35
5.170000e+02 1.591468e-35
5.180000e+02 2.028901e-35
5.190000e+02 2.584102e-35
5.200000e+02 3.288111e-35
5.210000e+02 4.179974e-35
5.220000e+02 5.308758e-35
5.230000e+02 6.736100e-35
5.240000e+02 8.539277e-35
5.250000e+02 1.081517e-34
5.260000e+02 1.368509e-34
5.270000e+02 1.730081e-34
5.280000e+02 2.185202e-34
5.290000e+02 2.757564e-34
5.300000e+02 3.476728e-34
5.310000e+02 4.379546e-34
5.320000e+02 5.511921e-34
5.330000e+02 6.930976e-34
5.340000e+02 8.707744e-34
5.350000e+02 1.093047e-33
5.360000e+02 1.370870e-33
5.370000e+02 1.717770e-33
5.380000e+02 2.150757e-33
5.390000e+02 2.690503e-33
5.400000e+02 3.362854e-33
5.410000e+02 4.199686e-33
5.420000e+02 5.240375e-33
5.430000e+02 6.533508e-33
5.440000e+02 8.138999e-33
5.450000e+02 1.013067e-32
5.460000e+02 1.259939e-32
5.470000e+02 1.565697e-32
5.480000e+02 1.944080e-32
5.490000e+02 2.411964e-32
5.500000e+02 2.990060e-32
5.510000e+02 3.703763e-32
5.520000e+02 4.584188e-32
5.530000e+02 5.669433e-32
5.540000e+02 7.006104e-32
5.550000e+02 8.651178e-32
5.560000e+02 1.067425e-31
5.570000e+02 1.316027e-31
5.580000e+02 1.621285e-31
5.590000e+02 1.995827e-31
5.600000e+02 2.455032e-31
5.610000e+02 3.017615e-31
5.620000e+02 3.706336e-31
5.630000e+02 4.548850e-31
5.640000e+02 5.578742e-31
5.650000e+02 6.836761e-31
5.660000e+02 8.372317e-31
5.670000e+02 1.024528e-30
5.680000e+02 1.252813e-30
5.690000e+02 1.530859e-30
5.700000e+02 1.869270e-30
5.710000e+02 2.280858e-30
5.720000e+02 2.781094e-30
5.730000e+02 3.388643e-30
5.740000e+02 4.126012e-30
5.750000e+02 5.020317e-30
5.760000e+02 6.104209e-30
5.770000e+02 7.416976e-30
5.780000e+02 9.005858e-30
5.790000e+02 1.092762e-29
5.800000e+02 1.325044e-29
5.810000e+02 1.605610e-29
5.820000e+02 1.944271e-29
5.830000e+02 2.352784e-29
5.840000e+02 2.845230e-29
5.850000e+02 3.438461e-29
5.860000e+02 4.152636e-29
5.870000e+02 5.011849e-29
5.880000e+02 6.044885e-29
5.890000e+02 7.286105e-29
5.900000e+02 8.776507e-29
5.910000e+02 1.056497e-28
5.920000e+02 1.270973e-28
5.930000e+02 1.528015e-28
5.940000e+02 1.835876e-28
5.950000e+02 2.204373e-28
5.960000e+02 2.645173e-28
5.970000e+02 3.172135e-28
5.980000e+02 3.801713e-28
5.990000e+02 4.553428e-28
6.000000e+02 5.450425e-28
6.010000e+02 6.520131e-28
6.020000e+02 7.795030e-28
6.030000e+02 9.313565e-28
6.040000e+02 1.112121e-27
6.050000e+02 1.327174e-27
6.060000e+02 1.582866e-27
6.070000e+02 1.886699e-27
6.080000e+02 2.247523e-27
6.090000e+02 2.675780e-27
6.100000e+02 3.183774e-27
6.110000e+02 3.786006e-27
6.120000e+02 4.499546e-27
6.130000e+02 5.344481e-27
6.140000e+02 6.344439e-27
6.150000e+02 7.527191e-27
6.160000e+02 8.925363e-27
6.170000e+02 1.057726e-26
6.180000e+02 1.252784e-26
6.190000e+02 1.482983e-26
6.200000e+02 1.754502e-26
6.210000e+02 2.074584e-26
6.220000e+02 2.451706e-26
6.230000e+02 2.895792e-26
6.240000e+02 3.418449e-26
6.250000e+02 4.033244e-26
6.260000e+02 4.756034e-26
6.270000e+02 5.605335e-26
6.280000e+02 6.602758e-26
6.290000e+02 7.773516e-26
6.300000e+02 9.147010e-26
6.310000e+02 1.075750e-25
6.320000e+02 1.264489e-25
6.330000e+02 1.485566e-25
6.340000e+02 1.744385e-25
6.350000e+02 2.047235e-25
6.360000e+02 2.401425e-25
6.370000e+02 2.815448e-25
6.380000e+02 3.299165e-25
6.390000e+02 3.864023e-25
6.400000e+02 4.523302e-25
6.410000e+02 5.292401e-25
6.420000e+02 6.189166e-25
6.430000e+02 7.234273e-25
6.440000e+02 8.451659e-25
6.450000e+02 9.869026e-25
6.460000e+02 1.151842e-24
6.470000e+02 1.343690e-24
6.480000e+02 1.566727e-24
6.490000e+02 1.825900e-24
6.500000e+02 2.126918e-24
6.510000e+02 2.476373e-24
6.520000e+02 2.881864e-24
6.530000e+02 3.352154e-24
6.540000e+02 3.897344e-24
6.550000e+02 4.529066e-24
6.560000e+02 5.260712e-24
6.570000e+02 6.107696e-24
6.580000e+02 7.087747e-24
6.590000e+02 8.221250e-24
6.600000e+02 9.531632e-24
6.610000e+02 1.104580e-23
6.620000e+02 1.279467e-23
6.630000e+02 1.481369e-23
6.640000e+02 1.714355e-23
6.650000e+02 1.983091e-23
6.660000e+02 2.292924e-23
6.670000e+02 2.649982e-23
6.680000e+02 3.061279e-23
6.690000e+02 3.534848e-23
6.700000e+02 4.079880e-23
6.710000e+02 4.706884e-23
6.720000e+02 5.427877e-23
6.730000e+02 6.256592e-23
6.740000e+02 7.208712e-23
6.750000e+02 8.302148e-23
6.760000e+02 9.557341e-23
6.770000e+02 1.099761e-22
6.780000e+02 1.264955e-22
6.790000e+02 1.454346e-22
6.800000e+02 1.671390e-22
6.810000e+02 1.920020e-22
6.820000e+02 2.204715e-22
6.830000e+02 2.530571e-22
6.840000e+02 2.903387e-22
6.850000e+02 3.329756e-22
6.860000e+02 3.817173e-22
6.870000e+02 4.374153e-22
6.880000e+02 5.010366e-22
6.890000e+02 5.736794e-22
6.900000e+02 6.565896e-22
6.910000e+02 7.511809e-22
6.920000e+02 8.590561e-22
6.930000e+02 9.820326e-22
6.940000e+02 1.122169e-21
6.950000e+02 1.281798e-21
6.960000e+02 1.463559e-21
6.970000e+02 1.670441e-21
6.980000e+02 1.905825e-21
6.990000e+02 2.173535e-21
7.000000e+02 2.477895e-21
7.010000e+02 2.823789e-21
7.020000e+02 3.216737e-21
7.030000e+02 3.662971e-21
7.040000e+02 4.169525e-21
7.050000e+02 4.744341e-21
7.060000e+02 5.396372e-21
7.070000e+02 6.135718e-21
7.080000e+02 6.973759e-21
7.090000e+02 7.923323e-21
7.100000e+02 8.998856e-21
7.110000e+02 1.021662e-20
7.120000e+02 1.159494e-20
7.130000e+02 1.315440e-20
7.140000e+02 1.491818e-20
7.150000e+02 1.691233e-20
7.160000e+02 1.916614e-20
7.170000e+02 2.171252e-20
7.180000e+02 2.458842e-20
7.190000e+02 2.783533e-20
7.200000e+02 3.149985e-20
7.210000e+02 3.563422e-20
7.220000e+02 4.029709e-20
7.230000e+02 4.555416e-20
7.240000e+02 5.147914e-20
7.250000e+02 5.815456e-20
7.260000e+02 6.567293e-20
7.270000e+02 7.413777e-20
7.280000e+02 8.366503e-20
7.290000e+02 9.438440e-20
7.300000e+02 1.064410e-19
7.310000e+02 1.199971e-19
7.320000e+02 1.352342e-19
7.330000e+02 1.523548e-19
7.340000e+02 1.715857e-19
7.350000e+02 1.931796e-19
7.360000e+02 2.174190e-19
7.370000e+02 2.446193e-19
7.380000e+02 2.751319e-19
7.390000e+02 3.093493e-19
7.400000e+02 3.477088e-19
7.410000e+02 3.906981e-19
7.420000e+02 4.388605e-19
7.430000e+02 4.928013e-19
7.440000e+02 5.531947e-19
7.450000e+02 6.207910e-19
7.460000e+02 6.964255e-19
7.470000e+02 7.810276e-19
7.480000e+02 8.756309e-19
7.490000e+02 9.813847e-19
7.500000e+02 1.099567e-18
7.510000e+02 1.231597e-18
7.520000e+02 1.379052e-18
7.530000e+02 1.543684e-18
7.540000e+02 1.727438e-18
7.550000e+02 1.932473e-18
7.560000e+02 2.161183e-18
7.570000e+02 2.416227e-18
7.580000e+02 2.700550e-18
7.590000e+02 3.017419e-18
7.600000e+02 3.370454e-18
7.610000e+02 3.763667e-18
7.620000e+02 4.201501e-18
7.630000e+02 4.688876e-18
7.640000e+02 5.231238e-18
7.650000e+02 5.834615e-18
7.660000e+02 6.505677e-18
7.670000e+02 7.251799e-18
7.680000e+02 8.081139e-18
7.690000e+02 9.002713e-18
7.700000e+02 1.002649e-17
7.710000e+02 1.116347e-17
7.720000e+02 1.242582e-17
7.730000e+02 1.382696e-17
7.740000e+02 1.538172e-17
7.750000e+02 1.710646e-17
7.760000e+02 1.901923e-17
7.770000e+02 2.113993e-17
7.780000e+02 2.349051e-17
7.790000e+02 2.609518e-17
7.800000e+02 2.898060e-17
7.810000e+02 3.217617e-17
7.820000e+02 3.571425e-17
7.830000e+02 3.963050e-17
7.840000e+02 4.396415e-17
7.850000e+02 4.875840e-17
7.860000e+02 5.406078e-17
7.870000e+02 5.992358e-17
7.880000e+02 6.640430e-17
7.890000e+02 7.356616e-17
7.900000e+02 8.147867e-17
7.910000e+02 9.021818e-17
7.920000e+02 9.986861e-17
7.930000e+02 1.105221e-16
7.940000e+02 1.222799e-16
7.950000e+02 1.352530e-16
7.960000e+02 1.495634e-16
7.970000e+02 1.653449e-16
7.980000e+02 1.827443e-16
7.990000e+02 2.019224e-16
8.000000e+02 2.230557e-16
8.010000e+02 2.463377e-16
8.020000e+02 2.719805e-16
8.030000e+02 3.002160e-16
8.040000e+02 3.312989e-16
8.050000e+02 3.655077e-16
8.060000e+02 4.031473e-16
8.070000e+02 4.445516e-16
8.080000e+02 4.900859e-16
8.090000e+02 5.401497e-16
8.100000e+02 5.951802e-16
8.110000e+02 6.556553e-16
8.120000e+02 7.220977e-16
8.130000e+02 7.950782e-16
8.140000e+02 8.752210e-16
8.150000e+02 9.632079e-16
8.160000e+02 1.059783e-15
8.170000e+02 1.165760e-15
8.180000e+02 1.282026e-15
8.190000e+02 1.409551e-15
8.200000e+02 1.549390e-15
8.210000e+02 1.702697e-15
8.220000e+02 1.870730e-15
8.230000e+02 2.054861e-15
8.240000e+02 2.256584e-15
8.250000e+02 2.477529e-15
8.260000e+02 2.719472e-15
8.270000e+02 2.984348e-15
8.280000e+02 3.274264e-15
8.290000e+02 3.591514e-15
8.300000e+02 3.938596e-15
8.310000e+02 4.318230e-15
8.320000e+02 4.733376e-15
8.330000e+02 5.187251e-15
8.340000e+02 5.683359e-15
8.350000e+02 6.225508e-15
8.360000e+02 6.817838e-15
8.370000e+02 7.464851e-15
8.380000e+02 8.171439e-15
8.390000e+02 8.942919e-15
8.400000e+02 9.785063e-15
8.410000e+02 1.070414e-14
8.420000e+02 1.170697e-14
8.430000e+02 1.280094e-14
8.440000e+02 1.399407e-14
8.450000e+02 1.529508e-14
8.460000e+02 1.671342e-14
8.470000e+02 1.825932e-14
8.480000e+02 1.994391e-14
8.490000e+02 2.177924e-14
8.500000e+02 2.377838e-14
8.510000e+02 2.595548e-14
8.520000e+02 2.832590e-14
8.530000e+02 3.090624e-14
8.540000e+02 3.371453e-14
8.550000e+02 3.677026e-14
8.560000e+02 4.009455e-14
8.570000e+02 4.371024e-14
8.580000e+02 4.764208e-14
8.590000e+02 5.191684e-14
8.600000e+02 5.656347e-14
8.610000e+02 6.161329e-14
8.620000e+02 6.710017e-14
8.630000e+02 7.306075e-14
8.640000e+02 7.953461e-14
8.650000e+02 8.656454e-14
8.660000e+02 9.419678e-14
8.670000e+02 1.024813e-13
8.680000e+02 1.114720e-13
8.690000e+02 1.212272e-13
8.700000e+02 1.318098e-13
8.710000e+02 1.432878e-13
8.720000e+02 1.557343e-13
8.730000e+02 1.692287e-13
8.740000e+02 1.838561e-13
8.750000e+02 1.997088e-13
8.760000e+02 2.168859e-13
8.770000e+02 2.354946e-13
8.780000e+02 2.556503e-13
8.790000e+02 2.774775e-13
8.800000e+02 3.011102e-13
8.810000e+02 3.266930e-13
8.820000e+02 3.543816e-13
8.830000e+02 3.843435e-13
8.840000e+02 4.167595e-13
8.850000e+02 4.518239e-13
8.860000e+02 4.897460e-13
8.870000e+02 5.307511e-13
8.880000e+02 5.750816e-13
8.890000e+02 6.229985e-13
8.900000e+02 6.747822e-13
8.910000e+02 7.307346e-13
8.920000e+02 7.911803e-13
8.930000e+02 8.564681e-13
8.940000e+02 9.269731e-13
8.950000e+02 1.003099e-12
8.960000e+02 1.085278e-12
8.970000e+02 1.173976e-12
8.980000e+02 1.269693e-12
8.990000e+02 1.372967e-12
9.000000e+02 1.484373e-12
9.010000e+02 1.604532e-12
9.020000e+02 1.734107e-12
9.030000e+02 1.873812e-12
9.040000e+02 2.024413e-12
9.050000e+02 2.186731e-12
9.060000e+02 2.361647e-12
9.070000e+02 2.550106e-12
9.080000e+02 2.753122e-12
9.090000e+02 2.971781e-12
9.100000e+02 3.207249e-12
9.110000e+02 3.460773e-12
9.120000e+02 3.733693e-12
9.130000e+02 4.027441e-12
9.140000e+02 4.418077e-12
9.150000e+02 1.051623e-09
9.160000e+02 7.318588e-09
9.170000e+02 3.481639e-10
9.180000e+02 1.372729e-09
9.190000e+02 2.122362e-08
9.200000e+02 6.156159e-08
9.210000e+02 7.336517e-12
9.220000e+02 5.233941e-08
9.230000e+02 2.743535e-10
9.240000e+02 5.563336e-10
9.250000e+02 9.812246e-09
9.260000e+02 2.087234e-09
9.270000e+02 5.676389e-10
9.280000e+02 4.052156e-07
9.290000e+02 3.886968e-07
9.300000e+02 8.110593e-08
9.310000e+02 5.995144e-10
9.320000e+02 3.099030e-07
9.330000e+02 9.126916e-08
9.340000e+02 1.978600e-08
9.350000e+02 6.480345e-10
9.360000e+02 2.335535e-09
9.370000e+02 1.866280e-10
9.380000e+02 4.785372e-10
9.390000e+02 8.352030e-09
9.400000e+02 5.534420e-07
9.410000e+02 5.181859e-08
9.420000e+02 1.444252e-06
9.430000e+02 1.470278e-08
9.440000e+02 1.652324e-06
9.450000e+02 1.590625e-06
9.460000e+02 3.004406e-07
9.470000e+02 1.825242e-10
9.480000e+02 4.692458e-07
9.490000e+02 4.334199e-08
9.500000e+02 7.153703e-10
9.510000e+02 1.500258e-07
9.520000e+02 4.976856e-07
9.530000e+02 2.785139e-09
9.540000e+02 2.021161e-10
9.550000e+02 3.441596e-08
9.560000e+02 2.446153e-06
9.570000e+02 1.359911e-08
9.580000e+02 1.161169e-10
9.590000e+02 1.533655e-06
9.600000e+02 1.740460e-09
9.610000e+02 5.595630e-07
9.620000e+02 1.752733e-07
9.630000e+02 1.527610e-08
9.640000e+02 3.892126e-09
9.650000e+02 7.214567e-10
9.660000e+02 3.745004e-08
9.670000e+02 4.926392e-09
9.680000e+02 3.361720e-09
9.690000e+02 2.388906e-07
9.700000e+02 4.131931e-07
9.710000e+02 8.338843e-09
9.720000e+02 2.109163e-09
9.730000e+02 9.356289e-09
9.740000e+02 2.259701e-07
9.750000e+02 8.724068e-08
9.760000e+02 3.179189e-06
9.770000e+02 2.108673e-06
9.780000e+02 9.244153e-07
9.790000e+02 1.062138e-05
9.800000e+02 1.067047e-05
9.810000e+02 4.926278e-07
9.820000e+02 6.959999e-08
9.830000e+02 1.149187e-05
9.840000e+02 2.773560e-07
9.850000e+02 1.852859e-07
9.860000e+02 3.111007e-07
9.870000e+02 1.231853e-05
9.880000e+02 2.759407e-09
9.890000e+02 3.464029e-06
9.900000e+02 8.940678e-06
9.910000e+02 8.088524e-08
9.920000e+02 1.045809e-09
9.930000e+02 2.253195e-05
9.940000e+02 1.655906e-09
9.950000e+02 8.173998e-07
9.960000e+02 1.438184e-08
9.970000e+02 7.151502e-07
9.980000e+02 1.225662e-05
9.990000e+02 1.268207e-07
1.000000e+03 4.057730e-05
1.001000e+03 3.431447e-05
1.002000e+03 3.542862e-05
1.003000e+03 1.250373e-07
1.004000e+03 4.471076e-09
1.005000e+03 6.312548e-07
1.006000e+03 3.336714e-05
1.007000e+03 4.542171e-05
1.008000e+03 2.227468e-05
1.009000e+03 1.846699e-07
1.010000e+03 2.132930e-05
1.011000e+03 2.349985e-05
1.012000e+03 3.045211e-05
1.013000e+03 3.000861e-05
1.014000e+03 4.130015e-09
1.015000e+03 9.940777e-09
1.016000e+03 8.357674e-07
1.017000e+03 4.616595e-09
1.018000e+03 1.866629e-07
1.019000e+03 8.865754e-09
1.020000e+03 3.094762e-05
1.021000e+03 4.734247e-07
1.022000e+03 6.868813e-07
1.023000e+03 2.775687e-08
1.024000e+03 2.178365e-06
1.025000e+03 7.398000e-09
1.026000e+03 1.096565e-08
1.027000e+03 8.283533e-07
1.028000e+03 6.358550e-08
1.029000e+03 9.576979e-09
1.030000e+03 3.014720e-06
1.031000e+03 1.022525e-05
1.032000e+03 9.578670e-05
1.033000e+03 7.035487e-07
1.034000e+03 1.193681e-05
1.035000e+03 4.148751e-08
1.036000e+03 1.568333e-08
1.037000e+03 1.382950e-04
1.038000e+03 5.614431e-04
1.039000e+03 1.683370e-04
1.040000e+03 1.146736e-04
1.041000e+03 6.181171e-04
1.042000e+03 5.163020e-04
1.043000e+03 4.484481e-04
1.044000e+03 1.229099e-03
1.045000e+03 4.205029e-08
1.046000e+03 1.187532e-04
1.047000e+03 4.742690e-05
1.048000e+03 4.264584e-07
1.049000e+03 3.949030e-05
1.050000e+03 6.626098e-06
1.051000e+03 3.163237e-06
1.052000e+03 7.903126e-04
1.053000e+03 1.161599e-03
1.054000e+03 4.080357e-08
1.055000e+03 1.255146e-03
1.056000e+03 1.482071e-03
1.057000e+03 1.628866e-04
1.058000e+03 2.960899e-06
1.059000e+03 2.527144e-06
1.060000e+03 6.384798e-07
1.061000e+03 3.837654e-04
1.062000e+03 1.505426e-06
1.063000e+03 7.877063e-05
1.064000e+03 1.047738e-07
1.065000e+03 7.450581e-08
1.066000e+03 5.288144e-04
1.067000e+03 2.742334e-06
1.068000e+03 3.188893e-03
1.069000e+03 5.278191e-07
1.070000e+03 4.204875e-05
1.071000e+03 1.272412e-03
1.072000e+03 3.880782e-03
1.073000e+03 1.334120e-07
1.074000e+03 1.953069e-04
1.075000e+03 9.887386e-05
1.076000e+03 3.948200e-03
1.077000e+03 1.612352e-06
1.078000e+03 4.570931e-06
1.079000e+03 2.840112e-05
1.080000e+03 1.839278e-04
1.081000e+03 1.562211e-03
1.082000e+03 7.274286e-04
1.083000e+03 3.222544e-04
1.084000e+03 8.021505e-03
1.085000e+03 4.927628e-05
1.086000e+03 6.463489e-03
1.087000e+03 7.592607e-06
1.088000e+03 9.109557e-03
1.089000e+03 9.748627e-03
1.090000e+03 3.749664e-05
1.091000e+03 6.758701e-05
1.092000e+03 9.431469e-03
1.093000e+03 1.138244e-02
1.094000e+03 7.268476e-04
1.095000e+03 1.313607e-02
1.096000e+03 3.477911e-04
1.097000e+03 6.245655e-03
1.098000e+03 1.268240e-02
1.099000e+03 1.563253e-04
1.100000e+03 1.442953e-06
1.101000e+03 5.035859e-06
1.102000e+03 1.153553e-04
1.103000e+03 1.672258e-02
1.104000e+03 1.735864e-02
1.105000e+03 1.825285e-02
1.106000e+03 7.879956e-04
1.107000e+03 3.487803e-06
1.108000e+03 7.793551e-03
1.109000e+03 5.958043e-05
1.110000e+03 2.066378e-02
1.111000e+03 1.671020e-02
1.112000e+03 3.221178e-03
1.113000e+03 1.488294e-02
1.114000e+03 1.500733e-03
1.115000e+03 6.231864e-05
1.116000e+03 1.626965e-05
1.117000e+03 2.247299e-02
1.118000e+03 1.074239e-04
1.119000e+03 3.134065e-03
1.120000e+03 3.100373e-05
1.121000e+03 1.729969e-02
1.122000e+03 4.240090e-02
1.123000e+03 3.643360e-02
1.124000e+03 4.536896e-02
1.125000e+03 2.348490e-02
1.126000e+03 5.838121e-02
1.127000e+03 2.422887e-02
1.128000e+03 3.154788e-02
1.129000e+03 1.073580e-02
1.130000e+03 3.765785e-02
1.131000e+03 3.085629e-02
1.132000e+03 5.727727e-05
1.133000e+03 8.785091e-04
1.134000e+03 1.459235e-02
1.135000e+03 3.046197e-02
1.136000e+03 1.785219e-03
1.137000e+03 2.572696e-02
1.138000e+03 1.049433e-02
1.139000e+03 3.295112e-02
1.140000e+03 3.008585e-02
1.141000e+03 3.232960e-02
1.142000e+03 3.269583e-02
1.143000e+03 1.047821e-02
1.144000e+03 3.239061e-02
1.145000e+03 3.340654e-05
1.146000e+03 3.418259e-02
1.147000e+03 3.361756e-02
1.148000e+03 3.572833e-04
1.149000e+03 2.733067e-02
1.150000e+03 2.459246e-02
1.151000e+03 3.276088e-02
1.152000e+03 2.683087e-02
1.153000e+03 3.162358e-02
1.154000e+03 3.217709e-02
1.155000e+03 2.580918e-02
1.156000e+03 2.391918e-02
1.157000e+03 2.893676e-02
1.158000e+03 1.195060e-02
1.159000e+03 2.991881e-02
1.160000e+03 1.606563e-02
1.161000e+03 2.738128e-02
1.162000e+03 1.746198e-03
1.163000e+03 7.258657e-03
1.164000e+03 6.887130e-05
1.165000e+03 1.488794e-02
1.166000e+03 8.019307e-03
1.167000e+03 5.546055e-03
1.168000e+03 3.136878e-02
1.169000e+03 3.234997e-02
1.170000e+03 5.259998e-03
1.171000e+03 1.476464e-02
1.172000e+03 1.071189e-02
1.173000e+03 1.035107e-02
1.174000e+03 2.319822e-04
1.175000e+03 5.050283e-05
1.176000e+03 2.103020e-05
1.177000e+03 4.146109e-02
1.178000e+03 3.922419e-02
1.179000e+03 3.693292e-02
1.180000e+03 2.970229e-02
1.181000e+03 3.376023e-02
1.182000e+03 3.237879e-02
1.183000e+03 2.666282e-02
1.184000e+03 2.473290e-02
1.185000e+03 2.526097e-02
1.186000e+03 1.327706e-03
1.187000e+03 2.685654e-02
1.188000e+03 2.057997e-02
1.189000e+03 2.635718e-02
1.190000e+03 2.565975e-02
1.191000e+03 2.377663e-02
1.192000e+03 2.196954e-02
1.193000e+03 2.118004e-02
1.194000e+03 2.114621e-02
1.195000e+03 2.020473e-02
1.196000e+03 3.261516e-01
1.197000e+03 3.346048e-01
1.198000e+03 5.408883e-03
1.199000e+03 2.799818e-01
1.200000e+03 2.383570e-02
1.201000e+03 2.159313e-01
1.202000e+03 1.305750e-01
1.203000e+03 1.562201e-01
1.204000e+03 2.509568e-02
1.205000e+03 1.020854e-01
1.206000e+03 7.984871e-02
1.207000e+03 1.104992e-02
1.208000e+03 3.876785e-02
1.209000e+03 2.849056e-02
1.210000e+03 1.111999e-04
1.211000e+03 1.041628e-02
1.212000e+03 5.051315e-03
1.213000e+03 2.178362e-03
1.214000e+03 6.227432e-04
1.215000e+03 1.118285e-04
1.216000e+03 9.955418e-05
1.217000e+03 3.909460e-04
1.218000e+03 1.796658e-03
1.219000e+03 5.037887e-03
1.220000e+03 8.659574e-03
1.221000e+03 2.202736e-02
1.222000e+03 3.761724e-02
1.223000e+03 5.415546e-02
1.224000e+03 8.178580e-02
1.225000e+03 9.455785e-03
1.226000e+03 1.790584e-01
1.227000e+03 2.452205e-01
1.228000e+03 1.015464e-01
1.229000e+03 3.816700e-01
1.230000e+03 3.427924e-01
1.231000e+03 5.485147e-02
1.232000e+03 6.780134e-01
1.233000e+03 7.955312e-01
1.234000e+03 7.737684e-01
1.235000e+03 9.910058e-01
1.236000e+03 2.327049e-01
1.237000e+03 1.254371e+00
1.238000e+03 1.354793e+00
1.239000e+03 1.060722e+00
1.240000e+03 3.453070e-01
1.241000e+03 1.229932e+00
1.242000e+03 1.741730e+00
1.243000e+03 1.982480e+00
1.244000e+03 2.121359e+00
1.245000e+03 2.206727e+00
1.246000e+03 2.015436e+00
1.247000e+03 2.305720e+00
1.248000e+03 1.996142e+00
1.249000e+03 2.737704e+00
1.250000e+03 2.038841e+00
1.251000e+03 2.950753e+00
1.252000e+03 2.812515e+00
1.253000e+03 3.124328e+00
1.254000e+03 2.986292e+00
1.255000e+03 7.275550e-01
1.256000e+03 2.476228e+00
1.257000e+03 1.838748e+00
1.258000e+03 2.379896e+00
1.259000e+03 2.851619e+00
1.260000e+03 3.588497e+00
1.261000e+03 6.271362e-02
1.262000e+03 3.725783e+00
1.263000e+03 3.569616e+00
1.264000e+03 2.730845e+00
1.265000e+03 2.617212e+00
1.266000e+03 4.455271e+00
1.267000e+03 4.094810e+00
