# wavelength_A flux
5.000000e+02 1.186200e-26
5.010000e+02 1.464304e-26
5.020000e+02 1.806058e-26
5.030000e+02 2.225673e-26
5.040000e+02 2.740455e-26
5.050000e+02 3.382000e-26
5.060000e+02 4.156896e-26
5.070000e+02 5.104882e-26
5.080000e+02 6.264222e-26
5.090000e+02 7.680321e-26
5.100000e+02 9.381542e-26
5.110000e+02 1.151710e-25
5.120000e+02 1.408583e-25
5.130000e+02 1.721494e-25
5.140000e+02 2.102164e-25
5.150000e+02 2.564974e-25
5.160000e+02 3.127208e-25
5.170000e+02 3.809718e-25
5.180000e+02 4.637558e-25
5.190000e+02 5.640915e-25
5.200000e+02 6.856071e-25
5.210000e+02 8.326616e-25
5.220000e+02 1.010468e-24
5.230000e+02 1.225365e-24
5.240000e+02 1.484819e-24
5.250000e+02 1.797861e-24
5.260000e+02 2.175283e-24
5.270000e+02 2.629991e-24
5.280000e+02 3.177410e-24
5.290000e+02 3.835962e-24
5.300000e+02 4.627648e-24
5.310000e+02 5.578687e-24
5.320000e+02 6.720342e-24
5.330000e+02 8.089847e-24
5.340000e+02 9.731515e-24
5.350000e+02 1.169805e-23
5.360000e+02 1.405209e-23
5.370000e+02 1.685287e-23
5.380000e+02 2.023427e-23
5.390000e+02 2.425550e-23
5.400000e+02 2.905587e-23
5.410000e+02 3.478238e-23
5.420000e+02 4.160947e-23
5.430000e+02 4.974277e-23
5.440000e+02 5.942591e-23
5.450000e+02 7.094655e-23
5.460000e+02 8.464431e-23
5.470000e+02 1.009200e-22
5.480000e+02 1.202462e-22
5.490000e+02 1.431795e-22
5.500000e+02 1.703759e-22
5.510000e+02 2.026070e-22
5.520000e+02 2.407804e-22
5.530000e+02 2.859631e-22
5.540000e+02 3.394083e-22
5.550000e+02 4.025872e-22
5.560000e+02 4.772260e-22
5.570000e+02 5.653485e-22
5.580000e+02 6.693263e-22
5.590000e+02 7.919368e-22
5.600000e+02 9.364305e-22
5.610000e+02 1.106610e-21
5.620000e+02 1.306919e-21
5.630000e+02 1.542551e-21
5.640000e+02 1.819568e-21
5.650000e+02 2.145047e-21
5.660000e+02 2.527238e-21
5.670000e+02 2.975758e-21
5.680000e+02 3.501812e-21
5.690000e+02 4.118443e-21
5.700000e+02 4.840826e-21
5.710000e+02 5.686613e-21
5.720000e+02 6.676315e-21
5.730000e+02 7.833761e-21
5.740000e+02 9.186612e-21
5.750000e+02 1.076697e-20
5.760000e+02 1.261204e-20
5.770000e+02 1.476501e-20
5.780000e+02 1.727581e-20
5.790000e+02 2.020231e-20
5.800000e+02 2.361146e-20
5.810000e+02 2.758070e-20
5.820000e+02 3.219953e-20
5.830000e+02 3.757134e-20
5.840000e+02 4.381514e-20
5.850000e+02 5.106985e-20
5.860000e+02 5.949345e-20
5.870000e+02 6.926932e-20
5.880000e+02 8.060865e-20
5.890000e+02 9.375462e-20
5.900000e+02 1.089871e-19
5.910000e+02 1.266281e-19
5.920000e+02 1.470479e-19
5.930000e+02 1.706721e-19
5.940000e+02 1.979895e-19
5.950000e+02 2.295616e-19
5.960000e+02 2.660324e-19
5.970000e+02 3.081408e-19
5.980000e+02 3.567340e-19
5.990000e+02 4.127827e-19
6.000000e+02 4.773987e-19
6.010000e+02 5.518547e-19
6.020000e+02 6.376073e-19
6.030000e+02 7.363221e-19
6.040000e+02 8.499033e-19
6.050000e+02 9.805265e-19
6.060000e+02 1.130676e-18
6.070000e+02 1.303190e-18
6.080000e+02 1.501303e-18
6.090000e+02 1.728706e-18
6.100000e+02 1.989608e-18
6.110000e+02 2.288802e-18
6.120000e+02 2.631748e-18
6.130000e+02 3.024662e-18
6.140000e+02 3.474617e-18
6.150000e+02 3.989655e-18
6.160000e+02 4.578921e-18
6.170000e+02 5.252805e-18
6.180000e+02 6.023111e-18
6.190000e+02 6.903237e-18
6.200000e+02 7.908388e-18
6.210000e+02 9.055814e-18
6.220000e+02 1.036507e-17
6.230000e+02 1.185832e-17
6.240000e+02 1.356067e-17
6.250000e+02 1.550055e-17
6.260000e+02 1.771014e-17
6.270000e+02 2.022585e-17
6.280000e+02 2.308886e-17
6.290000e+02 2.634571e-17
6.300000e+02 3.004899e-17
6.310000e+02 3.425794e-17
6.320000e+02 3.904013e-17
6.330000e+02 4.447075e-17
6.340000e+02 5.063535e-17
6.350000e+02 5.763020e-17
6.360000e+02 6.556386e-17
6.370000e+02 7.455859e-17
6.380000e+02 8.475210e-17
6.390000e+02 9.629944e-17
6.400000e+02 1.093751e-16
6.410000e+02 1.241753e-16
6.420000e+02 1.409208e-16
6.430000e+02 1.598597e-16
6.440000e+02 1.812706e-16
6.450000e+02 2.054666e-16
6.460000e+02 2.327993e-16
6.470000e+02 2.636629e-16
6.480000e+02 2.985001e-16
6.490000e+02 3.378070e-16
6.500000e+02 3.821399e-16
6.510000e+02 4.321221e-16
6.520000e+02 4.884518e-16
6.530000e+02 5.519107e-16
6.540000e+02 6.233741e-16
6.550000e+02 7.038207e-16
6.560000e+02 7.943458e-16
6.570000e+02 8.961737e-16
6.580000e+02 1.010673e-15
6.590000e+02 1.139372e-15
6.600000e+02 1.283978e-15
6.610000e+02 1.446398e-15
6.620000e+02 1.628758e-15
6.630000e+02 1.833433e-15
6.640000e+02 2.063069e-15
6.650000e+02 2.320616e-15
6.660000e+02 2.609364e-15
6.670000e+02 2.932975e-15
6.680000e+02 3.295529e-15
6.690000e+02 3.701568e-15
6.700000e+02 4.156148e-15
6.710000e+02 4.664889e-15
6.720000e+02 5.234048e-15
6.730000e+02 5.870575e-15
6.740000e+02 6.582197e-15
6.750000e+02 7.377499e-15
6.760000e+02 8.266014e-15
6.770000e+02 9.258326e-15
6.780000e+02 1.036618e-14
6.790000e+02 1.160261e-14
6.800000e+02 1.298208e-14
6.810000e+02 1.452061e-14
6.820000e+02 1.623596e-14
6.830000e+02 1.814782e-14
6.840000e+02 2.027799e-14
6.850000e+02 2.265061e-14
6.860000e+02 2.529242e-14
6.870000e+02 2.823298e-14
6.880000e+02 3.150500e-14
6.890000e+02 3.514468e-14
6.900000e+02 3.919200e-14
6.910000e+02 4.369117e-14
6.920000e+02 4.869104e-14
6.930000e+02 5.424555e-14
6.940000e+02 6.041425e-14
6.950000e+02 6.726290e-14
6.960000e+02 7.486404e-14
6.970000e+02 8.329771e-14
6.980000e+02 9.265217e-14
6.990000e+02 1.030247e-13
7.000000e+02 1.145226e-13
7.010000e+02 1.272639e-13
7.020000e+02 1.413789e-13
7.030000e+02 1.570108e-13
7.040000e+02 1.743173e-13
7.050000e+02 1.934721e-13
7.060000e+02 2.146662e-13
7.070000e+02 2.381096e-13
7.080000e+02 2.640333e-13
7.090000e+02 2.926911e-13
7.100000e+02 3.243620e-13
7.110000e+02 3.593524e-13
7.120000e+02 3.979989e-13
7.130000e+02 4.406710e-13
7.140000e+02 4.877744e-13
7.150000e+02 5.397540e-13
7.160000e+02 5.970980e-13
7.170000e+02 6.603419e-13
7.180000e+02 7.300727e-13
7.190000e+02 8.069337e-13
7.200000e+02 8.916299e-13
7.210000e+02 9.849337e-13
7.220000e+02 1.087691e-12
7.230000e+02 1.200827e-12
7.240000e+02 1.325357e-12
7.250000e+02 1.462388e-12
7.260000e+02 1.613135e-12
7.270000e+02 1.778924e-12
7.280000e+02 1.961206e-12
7.290000e+02 2.161568e-12
7.300000e+02 2.381742e-12
7.310000e+02 2.623621e-12
7.320000e+02 2.889273e-12
7.330000e+02 3.180958e-12
7.340000e+02 3.501139e-12
7.350000e+02 3.852506e-12
7.360000e+02 4.237996e-12
7.370000e+02 4.660809e-12
7.380000e+02 5.124436e-12
7.390000e+02 5.632686e-12
7.400000e+02 6.189705e-12
7.410000e+02 6.800016e-12
7.420000e+02 7.468542e-12
7.430000e+02 8.200648e-12
7.440000e+02 9.002175e-12
7.450000e+02 9.879479e-12
7.460000e+02 1.083948e-11
7.470000e+02 1.188971e-11
7.480000e+02 1.303835e-11
7.490000e+02 1.429431e-11
7.500000e+02 1.566727e-11
7.510000e+02 1.716776e-11
7.520000e+02 1.880722e-11
7.530000e+02 2.059806e-11
7.540000e+02 2.255379e-11
7.550000e+02 2.468906e-11
7.560000e+02 2.701978e-11
7.570000e+02 2.956322e-11
7.580000e+02 3.233813e-11
7.590000e+02 3.536483e-11
7.600000e+02 3.866537e-11
7.610000e+02 4.226367e-11
7.620000e+02 4.618565e-11
7.630000e+02 5.045941e-11
7.640000e+02 5.511539e-11
7.650000e+02 6.018660e-11
7.660000e+02 6.570874e-11
7.670000e+02 7.172050e-11
7.680000e+02 7.826378e-11
7.690000e+02 8.538392e-11
7.700000e+02 9.312997e-11
7.710000e+02 1.015550e-10
7.720000e+02 1.107164e-10
7.730000e+02 1.206763e-10
7.740000e+02 1.315019e-10
7.750000e+02 1.432656e-10
7.760000e+02 1.560458e-10
7.770000e+02 1.699274e-10
7.780000e+02 1.850018e-10
7.790000e+02 2.013678e-10
7.800000e+02 2.191322e-10
7.810000e+02 2.384102e-10
7.820000e+02 2.593261e-10
7.830000e+02 2.820141e-10
7.840000e+02 3.066189e-10
7.850000e+02 3.332967e-10
7.860000e+02 3.622157e-10
7.870000e+02 3.935575e-10
7.880000e+02 4.275178e-10
7.890000e+02 4.643074e-10
7.900000e+02 5.041534e-10
7.910000e+02 5.473006e-10
7.920000e+02 5.940126e-10
7.930000e+02 6.445732e-10
7.940000e+02 6.992878e-10
7.950000e+02 7.584854e-10
7.960000e+02 8.225199e-10
7.970000e+02 8.917721e-10
7.980000e+02 9.666514e-10
7.990000e+02 1.047598e-09
8.000000e+02 1.135087e-09
8.010000e+02 1.229626e-09
8.020000e+02 1.331763e-09
8.030000e+02 1.442086e-09
8.040000e+02 1.561227e-09
8.050000e+02 1.689864e-09
8.060000e+02 1.828727e-09
8.070000e+02 1.978599e-09
8.080000e+02 2.140319e-09
8.090000e+02 2.314791e-09
8.100000e+02 2.502981e-09
8.110000e+02 2.705929e-09
8.120000e+02 2.924748e-09
8.130000e+02 3.160634e-09
8.140000e+02 3.414867e-09
8.150000e+02 3.688823e-09
8.160000e+02 3.983973e-09
8.170000e+02 4.301895e-09
8.180000e+02 4.644281e-09
8.190000e+02 5.012942e-09
8.200000e+02 5.409819e-09
8.210000e+02 5.836991e-09
8.220000e+02 6.296681e-09
8.230000e+02 6.791273e-09
8.240000e+02 7.323317e-09
8.250000e+02 7.895539e-09
8.260000e+02 8.510860e-09
8.270000e+02 9.172403e-09
8.280000e+02 9.883508e-09
8.290000e+02 1.064775e-08
8.300000e+02 1.146894e-08
8.310000e+02 1.235116e-08
8.320000e+02 1.329879e-08
8.330000e+02 1.431647e-08
8.340000e+02 1.540920e-08
8.350000e+02 1.658229e-08
8.360000e+02 1.784143e-08
8.370000e+02 1.919268e-08
8.380000e+02 2.064253e-08
8.390000e+02 2.219789e-08
8.400000e+02 2.386614e-08
8.410000e+02 2.565517e-08
8.420000e+02 2.757337e-08
8.430000e+02 2.962972e-08
8.440000e+02 3.183378e-08
8.450000e+02 3.419574e-08
8.460000e+02 3.672648e-08
8.470000e+02 3.943758e-08
8.480000e+02 4.234141e-08
8.490000e+02 4.545113e-08
8.500000e+02 4.878077e-08
8.510000e+02 5.234526e-08
8.520000e+02 5.616054e-08
8.530000e+02 6.024354e-08
8.540000e+02 6.461233e-08
8.550000e+02 6.928611e-08
8.560000e+02 7.428535e-08
8.570000e+02 7.963180e-08
8.580000e+02 8.534864e-08
8.590000e+02 9.146051e-08
8.600000e+02 9.799363e-08
8.610000e+02 1.049759e-07
8.620000e+02 1.124369e-07
8.630000e+02 1.204083e-07
8.640000e+02 1.289235e-07
8.650000e+02 1.380181e-07
8.660000e+02 1.477300e-07
8.670000e+02 1.580996e-07
8.680000e+02 1.691694e-07
8.690000e+02 1.809848e-07
8.700000e+02 1.935942e-07
8.710000e+02 2.070488e-07
8.720000e+02 2.214028e-07
8.730000e+02 2.367140e-07
8.740000e+02 2.530437e-07
8.750000e+02 2.704569e-07
8.760000e+02 2.890226e-07
8.770000e+02 3.088139e-07
8.780000e+02 3.299086e-07
8.790000e+02 3.523890e-07
8.800000e+02 3.763423e-07
8.810000e+02 4.018614e-07
8.820000e+02 4.290442e-07
8.830000e+02 4.579948e-07
8.840000e+02 4.888237e-07
8.850000e+02 5.216475e-07
8.860000e+02 5.565902e-07
8.870000e+02 5.937830e-07
8.880000e+02 6.333648e-07
8.890000e+02 6.754828e-07
8.900000e+02 7.202927e-07
8.910000e+02 7.679598e-07
8.920000e+02 8.186585e-07
8.930000e+02 8.725738e-07
8.940000e+02 9.299013e-07
8.950000e+02 9.908482e-07
8.960000e+02 1.055633e-06
8.970000e+02 1.124489e-06
8.980000e+02 1.197659e-06
8.990000e+02 1.275404e-06
9.000000e+02 1.357997e-06
9.010000e+02 1.445729e-06
9.020000e+02 1.538905e-06
9.030000e+02 1.637850e-06
9.040000e+02 1.742906e-06
9.050000e+02 1.854434e-06
9.060000e+02 1.972817e-06
9.070000e+02 2.098457e-06
9.080000e+02 2.231782e-06
9.090000e+02 2.373243e-06
9.100000e+02 2.523313e-06
9.110000e+02 2.682495e-06
9.120000e+02 2.851320e-06
9.130000e+02 3.030346e-06
9.140000e+02 3.236113e-06
9.150000e+02 5.009521e-04
9.160000e+02 2.625313e-03
9.170000e+02 1.678402e-04
9.180000e+02 6.407499e-04
9.190000e+02 6.780287e-03
9.200000e+02 1.697782e-02
9.210000e+02 4.907977e-06
9.220000e+02 8.421731e-03
9.230000e+02 1.410354e-04
9.240000e+02 3.444925e-04
9.250000e+02 1.946599e-03
9.260000e+02 8.773734e-04
9.270000e+02 2.587331e-04
9.280000e+02 7.356456e-02
9.290000e+02 7.583753e-02
9.300000e+02 2.028896e-02
9.310000e+02 2.117255e-04
9.320000e+02 6.278708e-02
9.330000e+02 9.780310e-03
9.340000e+02 3.289208e-03
9.350000e+02 2.886033e-04
9.360000e+02 6.045531e-04
9.370000e+02 8.955592e-05
9.380000e+02 2.104113e-04
9.390000e+02 1.353693e-03
9.400000e+02 6.436416e-02
9.410000e+02 9.527858e-03
9.420000e+02 2.082793e-01
9.430000e+02 2.085470e-03
9.440000e+02 2.312801e-01
9.450000e+02 2.160322e-01
9.460000e+02 2.856533e-02
9.470000e+02 1.215269e-04
9.480000e+02 8.095865e-02
9.490000e+02 1.092346e-02
9.500000e+02 2.868274e-04
9.510000e+02 1.717515e-02
9.520000e+02 3.933063e-02
9.530000e+02 5.136316e-04
9.540000e+02 1.376629e-04
9.550000e+02 5.513042e-03
9.560000e+02 3.028871e-01
9.570000e+02 2.572320e-03
9.580000e+02 6.716233e-05
9.590000e+02 2.188776e-01
9.600000e+02 5.492792e-04
9.610000e+02 3.534512e-02
9.620000e+02 1.353802e-02
9.630000e+02 4.241332e-03
9.640000e+02 3.486462e-04
9.650000e+02 3.446341e-04
9.660000e+02 5.991280e-03
9.670000e+02 1.304433e-03
9.680000e+02 8.449703e-04
9.690000e+02 3.036727e-02
9.700000e+02 2.618985e-02
9.710000e+02 1.634307e-03
9.720000e+02 8.409331e-04
9.730000e+02 2.534962e-03
9.740000e+02 2.576142e-02
9.750000e+02 1.046859e-02
9.760000e+02 2.056494e-01
9.770000e+02 1.219491e-01
9.780000e+02 4.575499e-02
9.790000e+02 8.760374e-01
9.800000e+02 8.959468e-01
9.810000e+02 3.748804e-02
9.820000e+02 7.606745e-03
9.830000e+02 6.665831e-01
9.840000e+02 4.163816e-02
9.850000e+02 1.938965e-02
9.860000e+02 2.788330e-02
9.870000e+02 7.997063e-01
9.880000e+02 8.721948e-04
9.890000e+02 1.499498e-01
9.900000e+02 1.518120e-01
9.910000e+02 6.574326e-03
9.920000e+02 3.502849e-04
9.930000e+02 1.628273e+00
9.940000e+02 4.416890e-04
9.950000e+02 1.130163e-01
9.960000e+02 2.673745e-03
9.970000e+02 9.837531e-02
9.980000e+02 4.342986e-01
9.990000e+02 1.215848e-02
1.000000e+03 2.412330e+00
1.001000e+03 2.140363e+00
1.002000e+03 1.800875e+00
1.003000e+03 1.451361e-02
1.004000e+03 1.521111e-03
1.005000e+03 4.049754e-02
1.006000e+03 1.394210e+00
1.007000e+03 2.199839e+00
1.008000e+03 7.609659e-01
1.009000e+03 2.234291e-02
1.010000e+03 8.309256e-01
1.011000e+03 1.461689e+00
1.012000e+03 9.804289e-01
1.013000e+03 8.607340e-01
1.014000e+03 9.852946e-04
1.015000e+03 2.311945e-03
1.016000e+03 4.612696e-02
1.017000e+03 1.010180e-03
1.018000e+03 2.235818e-02
1.019000e+03 2.288342e-03
1.020000e+03 1.781395e+00
1.021000e+03 2.895808e-02
1.022000e+03 4.369128e-02
1.023000e+03 4.282415e-03
1.024000e+03 2.328699e-01
1.025000e+03 1.352618e-03
1.026000e+03 2.035624e-03
1.027000e+03 8.151313e-02
1.028000e+03 9.883523e-03
1.029000e+03 1.878977e-03
1.030000e+03 2.040172e-01
1.031000e+03 2.528498e-01
1.032000e+03 2.504384e+00
1.033000e+03 8.175254e-02
1.034000e+03 4.119902e-01
1.035000e+03 6.665707e-03
1.036000e+03 2.952456e-03
1.037000e+03 2.449778e+00
1.038000e+03 1.131586e+01
1.039000e+03 2.661915e+00
1.040000e+03 3.262182e+00
1.041000e+03 1.599847e+01
1.042000e+03 8.586961e+00
1.043000e+03 7.917075e+00
1.044000e+03 2.473919e+01
1.045000e+03 6.231772e-03
1.046000e+03 3.607070e+00
1.047000e+03 8.337736e-01
1.048000e+03 3.024459e-02
1.049000e+03 1.015989e+00
1.050000e+03 3.691602e-01
1.051000e+03 2.054815e-01
1.052000e+03 9.609460e+00
1.053000e+03 1.980744e+01
1.054000e+03 5.856514e-03
1.055000e+03 2.369825e+01
1.056000e+03 2.485497e+01
1.057000e+03 2.259967e+00
1.058000e+03 2.330339e-01
1.059000e+03 1.062069e-01
1.060000e+03 4.670525e-02
1.061000e+03 3.514202e+00
1.062000e+03 1.277354e-01
1.063000e+03 2.382116e+00
1.064000e+03 1.196671e-02
1.065000e+03 9.683609e-03
1.066000e+03 4.864020e+00
1.067000e+03 1.139930e-01
1.068000e+03 4.821777e+01
1.069000e+03 3.580087e-02
1.070000e+03 1.674236e+00
1.071000e+03 2.303992e+01
1.072000e+03 3.708231e+01
1.073000e+03 1.694107e-02
1.074000e+03 2.352617e+00
1.075000e+03 1.405113e+00
1.076000e+03 4.181552e+01
1.077000e+03 1.196859e-01
1.078000e+03 2.958450e-01
1.079000e+03 1.170776e+00
1.080000e+03 3.351582e+00
1.081000e+03 1.176331e+01
1.082000e+03 7.459114e+00
1.083000e+03 4.150951e+00
1.084000e+03 8.417114e+01
1.085000e+03 1.227776e+00
1.086000e+03 7.185946e+01
1.087000e+03 2.799072e-01
1.088000e+03 1.036675e+02
1.089000e+03 1.046328e+02
1.090000e+03 9.849949e-01
1.091000e+03 1.279556e+00
1.092000e+03 8.764857e+01
1.093000e+03 9.935603e+01
1.094000e+03 1.137280e+01
1.095000e+03 1.265728e+02
1.096000e+03 1.324614e+01
1.097000e+03 3.278040e+01
1.098000e+03 1.238869e+02
1.099000e+03 3.607605e+00
1.100000e+03 1.160569e-01
1.101000e+03 2.735096e-01
1.102000e+03 2.057898e+00
1.103000e+03 1.203113e+02
1.104000e+03 1.640684e+02
1.105000e+03 1.452313e+02
1.106000e+03 9.194423e+00
1.107000e+03 1.566544e-01
1.108000e+03 4.726076e+01
1.109000e+03 1.245430e+00
1.110000e+03 1.889465e+02
1.111000e+03 1.117872e+02
1.112000e+03 2.388097e+01
1.113000e+03 1.433732e+02
1.114000e+03 1.493856e+01
1.115000e+03 1.762977e+00
1.116000e+03 9.460319e-01
1.117000e+03 1.172059e+02
1.118000e+03 1.982515e+00
1.119000e+03 3.219690e+01
1.120000e+03 1.100609e+00
1.121000e+03 9.738153e+01
1.122000e+03 1.879267e+02
1.123000e+03 1.706093e+02
1.124000e+03 1.906241e+02
1.125000e+03 9.901376e+01
1.126000e+03 3.639885e+02
1.127000e+03 1.492582e+02
1.128000e+03 2.076408e+02
1.129000e+03 6.768225e+01
1.130000e+03 2.247136e+02
1.131000e+03 2.574614e+02
1.132000e+03 1.958406e+00
1.133000e+03 7.785339e+00
1.134000e+03 7.134213e+01
1.135000e+03 1.485819e+02
1.136000e+03 1.719283e+01
1.137000e+03 1.917120e+02
1.138000e+03 6.142417e+01
1.139000e+03 2.801836e+02
1.140000e+03 2.836071e+02
1.141000e+03 2.535200e+02
1.142000e+03 3.060294e+02
1.143000e+03 1.009879e+02
1.144000e+03 3.030587e+02
1.145000e+03 1.044266e+00
1.146000e+03 3.297864e+02
1.147000e+03 2.936618e+02
1.148000e+03 5.716339e+00
1.149000e+03 2.147867e+02
1.150000e+03 1.513944e+02
1.151000e+03 3.303692e+02
1.152000e+03 2.680381e+02
1.153000e+03 2.957817e+02
1.154000e+03 3.359548e+02
1.155000e+03 1.893800e+02
1.156000e+03 2.863678e+02
1.157000e+03 3.180912e+02
1.158000e+03 1.041832e+02
1.159000e+03 3.155930e+02
1.160000e+03 1.075574e+02
1.161000e+03 2.931289e+02
1.162000e+03 2.073352e+01
1.163000e+03 5.534665e+01
1.164000e+03 2.445374e+00
1.165000e+03 1.902688e+02
1.166000e+03 1.153719e+02
1.167000e+03 9.333755e+01
1.168000e+03 3.553594e+02
1.169000e+03 3.664398e+02
1.170000e+03 8.547873e+01
1.171000e+03 2.052784e+02
1.172000e+03 1.141145e+02
1.173000e+03 1.706434e+02
1.174000e+03 5.405647e+00
1.175000e+03 1.714699e+00
1.176000e+03 8.048210e-01
1.177000e+03 4.444389e+02
1.178000e+03 4.325955e+02
1.179000e+03 3.994936e+02
1.180000e+03 2.412308e+02
1.181000e+03 3.979335e+02
1.182000e+03 3.690097e+02
1.183000e+03 2.552411e+02
1.184000e+03 2.225594e+02
1.185000e+03 2.660383e+02
1.186000e+03 2.361474e+01
1.187000e+03 3.107867e+02
1.188000e+03 1.711395e+02
1.189000e+03 3.427002e+02
1.190000e+03 3.365240e+02
1.191000e+03 2.837880e+02
1.192000e+03 2.967129e+02
1.193000e+03 2.431867e+02
1.194000e+03 2.872326e+02
1.195000e+03 2.782637e+02
1.196000e+03 1.244206e+03
1.197000e+03 1.565111e+03
1.198000e+03 6.579260e+01
1.199000e+03 1.467488e+03
1.200000e+03 1.593931e+02
1.201000e+03 1.281890e+03
1.202000e+03 5.660007e+02
1.203000e+03 1.024726e+03
1.204000e+03 1.447488e+02
1.205000e+03 7.837967e+02
1.206000e+03 7.243109e+02
1.207000e+03 1.839669e+02
1.208000e+03 4.460968e+02
1.209000e+03 3.744686e+02
1.210000e+03 3.130112e+00
1.211000e+03 1.721628e+02
1.212000e+03 8.823412e+01
1.213000e+03 4.673135e+01
1.214000e+03 1.528425e+01
1.215000e+03 3.146375e+00
1.216000e+03 2.580191e+00
1.217000e+03 9.916811e+00
1.218000e+03 3.878726e+01
1.219000e+03 9.418599e+01
1.220000e+03 1.030520e+02
1.221000e+03 3.100461e+02
1.222000e+03 4.297481e+02
1.223000e+03 5.197700e+02
1.224000e+03 8.130999e+02
1.225000e+03 9.242700e+01
1.226000e+03 1.373818e+03
1.227000e+03 1.614833e+03
1.228000e+03 4.658412e+02
1.229000e+03 1.810719e+03
1.230000e+03 1.486462e+03
1.231000e+03 3.217942e+02
1.232000e+03 2.990845e+03
1.233000e+03 3.292791e+03
1.234000e+03 2.919021e+03
1.235000e+03 3.448281e+03
1.236000e+03 7.186287e+02
1.237000e+03 4.131953e+03
1.238000e+03 4.036109e+03
1.239000e+03 2.976688e+03
1.240000e+03 2.493520e+03
1.241000e+03 2.954220e+03
1.242000e+03 4.401144e+03
1.243000e+03 5.320282e+03
1.244000e+03 5.630646e+03
1.245000e+03 5.522740e+03
1.246000e+03 4.637357e+03
1.247000e+03 5.377936e+03
1.248000e+03 5.349762e+03
1.249000e+03 6.645791e+03
1.250000e+03 4.978268e+03
1.251000e+03 6.875870e+03
1.252000e+03 6.175819e+03
1.253000e+03 7.237675e+03
1.254000e+03 6.626728e+03
1.255000e+03 3.778826e+03
1.256000e+03 5.970604e+03
1.257000e+03 5.958083e+03
1.258000e+03 4.389545e+03
1.259000e+03 5.830975e+03
1.260000e+03 8.103193e+03
1.261000e+03 6.632827e+02
1.262000e+03 8.571959e+03
1.263000e+03 8.030067e+03
1.264000e+03 5.443960e+03
1.265000e+03 6.363599e+02
1.266000e+03 9.271714e+03
1.267000e+03 7.114385e+03
