# wavelength_A flux
5.000000e+02 4.203895e-45
5.010000e+02 5.605194e-45
5.020000e+02 7.006492e-45
5.030000e+02 9.809089e-45
5.040000e+02 1.261169e-44
5.050000e+02 1.681558e-44
5.060000e+02 2.382207e-44
5.070000e+02 3.082857e-44
5.080000e+02 4.203895e-44
5.090000e+02 5.465064e-44
5.100000e+02 7.286752e-44
5.110000e+02 9.809089e-44
5.120000e+02 1.289195e-43
5.130000e+02 1.709584e-43
5.140000e+02 2.270104e-43
5.150000e+02 2.998779e-43
5.160000e+02 3.965675e-43
5.170000e+02 5.226843e-43
5.180000e+02 6.894388e-43
5.190000e+02 9.080414e-43
5.200000e+02 1.193906e-42
5.210000e+02 1.569454e-42
5.220000e+02 2.058507e-42
5.230000e+02 2.698901e-42
5.240000e+02 3.535476e-42
5.250000e+02 4.624285e-42
5.260000e+02 6.043800e-42
5.270000e+02 7.890712e-42
5.280000e+02 1.028973e-41
5.290000e+02 1.340622e-41
5.300000e+02 1.744897e-41
5.310000e+02 2.268702e-41
5.320000e+02 2.946791e-41
5.330000e+02 3.823723e-41
5.340000e+02 4.956813e-41
5.350000e+02 6.419348e-41
5.360000e+02 8.305076e-41
5.370000e+02 1.073395e-40
5.380000e+02 1.386066e-40
5.390000e+02 1.788029e-40
5.400000e+02 2.304365e-40
5.410000e+02 2.966941e-40
5.420000e+02 3.816422e-40
5.430000e+02 4.904489e-40
5.440000e+02 6.296833e-40
5.450000e+02 8.076916e-40
5.460000e+02 1.035061e-39
5.470000e+02 1.325211e-39
5.480000e+02 1.695137e-39
5.490000e+02 2.166349e-39
5.500000e+02 2.766033e-39
5.510000e+02 3.528530e-39
5.520000e+02 4.497179e-39
5.530000e+02 5.726619e-39
5.540000e+02 7.285688e-39
5.550000e+02 9.261022e-39
5.560000e+02 1.176158e-38
5.570000e+02 1.492424e-38
5.580000e+02 1.892089e-38
5.590000e+02 2.396707e-38
5.600000e+02 3.033297e-38
5.610000e+02 3.835688e-38
5.620000e+02 4.846207e-38
5.630000e+02 6.117768e-38
5.640000e+02 7.716465e-38
5.650000e+02 9.724787e-38
5.660000e+02 1.224560e-37
5.670000e+02 1.540707e-37
5.680000e+02 1.936878e-37
5.690000e+02 2.432923e-37
5.700000e+02 3.053517e-37
5.710000e+02 3.829306e-37
5.720000e+02 4.798322e-37
5.730000e+02 6.007725e-37
5.740000e+02 7.515953e-37
5.750000e+02 9.395353e-37
5.760000e+02 1.173543e-36
5.770000e+02 1.464683e-36
5.780000e+02 1.826622e-36
5.790000e+02 2.276230e-36
5.800000e+02 2.834311e-36
5.810000e+02 3.526505e-36
5.820000e+02 4.384389e-36
5.830000e+02 5.446817e-36
5.840000e+02 6.761568e-36
5.850000e+02 8.387349e-36
5.860000e+02 1.039624e-35
5.870000e+02 1.287668e-35
5.880000e+02 1.593709e-35
5.890000e+02 1.971031e-35
5.900000e+02 2.435896e-35
5.910000e+02 3.008200e-35
5.920000e+02 3.712263e-35
5.930000e+02 4.577799e-35
5.940000e+02 5.641076e-35
5.950000e+02 6.946342e-35
5.960000e+02 8.547535e-35
5.970000e+02 1.051036e-34
5.980000e+02 1.291482e-34
5.990000e+02 1.585821e-34
6.000000e+02 1.945882e-34
6.010000e+02 2.386038e-34
6.020000e+02 2.923734e-34
6.030000e+02 3.580137e-34
6.040000e+02 4.380909e-34
6.050000e+02 5.357141e-34
6.060000e+02 6.546476e-34
6.070000e+02 7.994465e-34
6.080000e+02 9.756180e-34
6.090000e+02 1.189817e-33
6.100000e+02 1.450081e-33
6.110000e+02 1.766108e-33
6.120000e+02 2.149595e-33
6.130000e+02 2.614640e-33
6.140000e+02 3.178222e-33
6.150000e+02 3.860780e-33
6.160000e+02 4.686903e-33
6.170000e+02 5.686147e-33
6.180000e+02 6.894027e-33
6.190000e+02 8.353180e-33
6.200000e+02 1.011477e-32
6.210000e+02 1.224016e-32
6.220000e+02 1.480288e-32
6.230000e+02 1.789099e-32
6.240000e+02 2.160994e-32
6.250000e+02 2.608582e-32
6.260000e+02 3.146942e-32
6.270000e+02 3.794090e-32
6.280000e+02 4.571537e-32
6.290000e+02 5.504958e-32
6.300000e+02 6.624973e-32
6.310000e+02 7.968083e-32
6.320000e+02 9.577770e-32
6.330000e+02 1.150581e-31
6.340000e+02 1.381380e-31
6.350000e+02 1.657500e-31
6.360000e+02 1.987650e-31
6.370000e+02 2.382172e-31
6.380000e+02 2.853346e-31
6.390000e+02 3.415743e-31
6.400000e+02 4.086641e-31
6.410000e+02 4.886518e-31
6.420000e+02 5.839630e-31
6.430000e+02 6.974695e-31
6.440000e+02 8.325691e-31
6.450000e+02 9.932800e-31
6.460000e+02 1.184351e-30
6.470000e+02 1.411394e-30
6.480000e+02 1.681030e-30
6.490000e+02 2.001075e-30
6.500000e+02 2.380749e-30
6.510000e+02 2.830914e-30
6.520000e+02 3.364372e-30
6.530000e+02 3.996194e-30
6.540000e+02 4.744118e-30
6.550000e+02 5.629007e-30
6.560000e+02 6.675390e-30
6.570000e+02 7.912086e-30
6.580000e+02 9.372944e-30
6.590000e+02 1.109769e-29
6.600000e+02 1.313294e-29
6.610000e+02 1.553335e-29
6.620000e+02 1.836298e-29
6.630000e+02 2.169686e-29
6.640000e+02 2.562285e-29
6.650000e+02 3.024377e-29
6.660000e+02 3.567986e-29
6.670000e+02 4.207172e-29
6.680000e+02 4.958363e-29
6.690000e+02 5.840743e-29
6.700000e+02 6.876711e-29
6.710000e+02 8.092398e-29
6.720000e+02 9.518280e-29
6.730000e+02 1.118988e-28
6.740000e+02 1.314859e-28
6.750000e+02 1.544260e-28
6.760000e+02 1.812803e-28
6.770000e+02 2.127012e-28
6.780000e+02 2.494480e-28
6.790000e+02 2.924027e-28
6.800000e+02 3.425904e-28
6.810000e+02 4.012013e-28
6.820000e+02 4.696167e-28
6.830000e+02 5.494395e-28
6.840000e+02 6.425283e-28
6.850000e+02 7.510373e-28
6.860000e+02 8.774624e-28
6.870000e+02 1.024694e-27
6.880000e+02 1.196078e-27
6.890000e+02 1.395486e-27
6.900000e+02 1.627393e-27
6.910000e+02 1.896976e-27
6.920000e+02 2.210213e-27
6.930000e+02 2.574012e-27
6.940000e+02 2.996343e-27
6.950000e+02 3.486409e-27
6.960000e+02 4.054819e-27
6.970000e+02 4.713808e-27
6.980000e+02 5.477476e-27
6.990000e+02 6.362065e-27
7.000000e+02 7.386275e-27
7.010000e+02 8.571631e-27
7.020000e+02 9.942896e-27
7.030000e+02 1.152855e-26
7.040000e+02 1.336132e-26
7.050000e+02 1.547882e-26
7.060000e+02 1.792425e-26
7.070000e+02 2.074721e-26
7.080000e+02 2.400461e-26
7.090000e+02 2.776173e-26
7.100000e+02 3.209344e-26
7.110000e+02 3.708554e-26
7.120000e+02 4.283632e-26
7.130000e+02 4.945838e-26
7.140000e+02 5.708059e-26
7.150000e+02 6.585045e-26
7.160000e+02 7.593663e-26
7.170000e+02 8.753204e-26
7.180000e+02 1.008571e-25
7.190000e+02 1.161638e-25
7.200000e+02 1.337397e-25
7.210000e+02 1.539133e-25
7.220000e+02 1.770592e-25
7.230000e+02 2.036050e-25
7.240000e+02 2.340382e-25
7.250000e+02 2.689143e-25
7.260000e+02 3.088665e-25
7.270000e+02 3.546158e-25
7.280000e+02 4.069832e-25
7.290000e+02 4.669030e-25
7.300000e+02 5.354381e-25
7.310000e+02 6.137975e-25
7.320000e+02 7.033555e-25
7.330000e+02 8.056737e-25
7.340000e+02 9.225262e-25
7.350000e+02 1.055928e-24
7.360000e+02 1.208165e-24
7.370000e+02 1.381833e-24
7.380000e+02 1.579875e-24
7.390000e+02 1.805630e-24
7.400000e+02 2.062879e-24
7.410000e+02 2.355911e-24
7.420000e+02 2.689580e-24
7.430000e+02 3.069384e-24
7.440000e+02 3.501546e-24
7.450000e+02 3.993108e-24
7.460000e+02 4.552032e-24
7.470000e+02 5.187325e-24
7.480000e+02 5.909163e-24
7.490000e+02 6.729045e-24
7.500000e+02 7.659962e-24
7.510000e+02 8.716580e-24
7.520000e+02 9.915451e-24
7.530000e+02 1.127526e-23
7.540000e+02 1.281706e-23
7.550000e+02 1.456462e-23
7.560000e+02 1.654471e-23
7.570000e+02 1.878751e-23
7.580000e+02 2.132700e-23
7.590000e+02 2.420146e-23
7.600000e+02 2.745396e-23
7.610000e+02 3.113299e-23
7.620000e+02 3.529307e-23
7.630000e+02 3.999555e-23
7.640000e+02 4.530936e-23
7.650000e+02 5.131198e-23
7.660000e+02 5.809047e-23
7.670000e+02 6.574258e-23
7.680000e+02 7.437809e-23
7.690000e+02 8.412019e-23
7.700000e+02 9.510709e-23
7.710000e+02 1.074938e-22
7.720000e+02 1.214543e-22
7.730000e+02 1.371834e-22
7.740000e+02 1.548994e-22
7.750000e+02 1.748470e-22
7.760000e+02 1.973001e-22
7.770000e+02 2.225655e-22
7.780000e+02 2.509865e-22
7.790000e+02 2.829471e-22
7.800000e+02 3.188769e-22
7.810000e+02 3.592563e-22
7.820000e+02 4.046223e-22
7.830000e+02 4.555748e-22
7.840000e+02 5.127841e-22
7.850000e+02 5.769991e-22
7.860000e+02 6.490553e-22
7.870000e+02 7.298858e-22
7.880000e+02 8.205316e-22
7.890000e+02 9.221536e-22
7.900000e+02 1.036047e-21
7.910000e+02 1.163655e-21
7.920000e+02 1.306586e-21
7.930000e+02 1.466634e-21
7.940000e+02 1.645794e-21
7.950000e+02 1.846289e-21
7.960000e+02 2.070595e-21
7.970000e+02 2.321466e-21
7.980000e+02 2.601965e-21
7.990000e+02 2.915502e-21
8.000000e+02 3.265865e-21
8.010000e+02 3.657266e-21
8.020000e+02 4.094389e-21
8.030000e+02 4.582432e-21
8.040000e+02 5.127173e-21
8.050000e+02 5.735025e-21
8.060000e+02 6.413109e-21
8.070000e+02 7.169325e-21
8.080000e+02 8.012441e-21
8.090000e+02 8.952177e-21
8.100000e+02 9.999315e-21
8.110000e+02 1.116581e-20
8.120000e+02 1.246489e-20
8.130000e+02 1.391125e-20
8.140000e+02 1.552113e-20
8.150000e+02 1.731253e-20
8.160000e+02 1.930537e-20
8.170000e+02 2.152171e-20
8.180000e+02 2.398594e-20
8.190000e+02 2.672505e-20
8.200000e+02 2.976888e-20
8.210000e+02 3.315042e-20
8.220000e+02 3.690615e-20
8.230000e+02 4.107636e-20
8.240000e+02 4.570557e-20
8.250000e+02 5.084294e-20
8.260000e+02 5.654276e-20
8.270000e+02 6.286496e-20
8.280000e+02 6.987564e-20
8.290000e+02 7.764779e-20
8.300000e+02 8.626187e-20
8.310000e+02 9.580662e-20
8.320000e+02 1.063799e-19
8.330000e+02 1.180894e-19
8.340000e+02 1.310542e-19
8.350000e+02 1.454049e-19
8.360000e+02 1.612859e-19
8.370000e+02 1.788557e-19
8.380000e+02 1.982892e-19
8.390000e+02 2.197787e-19
8.400000e+02 2.435356e-19
8.410000e+02 2.697928e-19
8.420000e+02 2.988061e-19
8.430000e+02 3.308570e-19
8.440000e+02 3.662547e-19
8.450000e+02 4.053393e-19
8.460000e+02 4.484840e-19
8.470000e+02 4.960991e-19
8.480000e+02 5.486351e-19
8.490000e+02 6.065865e-19
8.500000e+02 6.704961e-19
8.510000e+02 7.409596e-19
8.520000e+02 8.186305e-19
8.530000e+02 9.042257e-19
8.540000e+02 9.985312e-19
8.550000e+02 1.102409e-18
8.560000e+02 1.216803e-18
8.570000e+02 1.342749e-18
8.580000e+02 1.481381e-18
8.590000e+02 1.633942e-18
8.600000e+02 1.801790e-18
8.610000e+02 1.986417e-18
8.620000e+02 2.189451e-18
8.630000e+02 2.412678e-18
8.640000e+02 2.658048e-18
8.650000e+02 2.927698e-18
8.660000e+02 3.223961e-18
8.670000e+02 3.549391e-18
8.680000e+02 3.906779e-18
8.690000e+02 4.299174e-18
8.700000e+02 4.729910e-18
8.710000e+02 5.202626e-18
8.720000e+02 5.721297e-18
8.730000e+02 6.290267e-18
8.740000e+02 6.914273e-18
8.750000e+02 7.598490e-18
8.760000e+02 8.348562e-18
8.770000e+02 9.170646e-18
8.780000e+02 1.007146e-17
8.790000e+02 1.105833e-17
8.800000e+02 1.213925e-17
8.810000e+02 1.332291e-17
8.820000e+02 1.461881e-17
8.830000e+02 1.603728e-17
8.840000e+02 1.758960e-17
8.850000e+02 1.928801e-17
8.860000e+02 2.114589e-17
8.870000e+02 2.317776e-17
8.880000e+02 2.539947e-17
8.890000e+02 2.782824e-17
8.900000e+02 3.048279e-17
8.910000e+02 3.338353e-17
8.920000e+02 3.655262e-17
8.930000e+02 4.001418e-17
8.940000e+02 4.379440e-17
8.950000e+02 4.792179e-17
8.960000e+02 5.242729e-17
8.970000e+02 5.734453e-17
8.980000e+02 6.271007e-17
8.990000e+02 6.856357e-17
9.000000e+02 7.494813e-17
9.010000e+02 8.191051e-17
9.020000e+02 8.950148e-17
9.030000e+02 9.777615e-17
9.040000e+02 1.067943e-16
9.050000e+02 1.166207e-16
9.060000e+02 1.273258e-16
9.070000e+02 1.389858e-16
9.080000e+02 1.516834e-16
9.090000e+02 1.655081e-16
9.100000e+02 1.805572e-16
9.110000e+02 1.969358e-16
9.120000e+02 2.147579e-16
9.130000e+02 2.341470e-16
9.140000e+02 2.693023e-16
9.150000e+02 1.471994e-13
9.160000e+02 1.206816e-12
9.170000e+02 2.679494e-13
9.180000e+02 1.972264e-13
9.190000e+02 3.828309e-12
9.200000e+02 1.224959e-11
9.210000e+02 4.642774e-16
9.220000e+02 1.810372e-11
9.230000e+02 7.774099e-14
9.240000e+02 5.735863e-13
9.250000e+02 1.086870e-11
9.260000e+02 3.226217e-13
9.270000e+02 6.584155e-13
9.280000e+02 1.007875e-10
9.290000e+02 9.489380e-11
9.300000e+02 1.715917e-11
9.310000e+02 2.335498e-13
9.320000e+02 7.460470e-11
9.330000e+02 1.126536e-10
9.340000e+02 4.832838e-11
9.350000e+02 1.874498e-13
9.360000e+02 4.442615e-12
9.370000e+02 5.375333e-14
9.380000e+02 7.868961e-14
9.390000e+02 1.206892e-11
9.400000e+02 2.255526e-10
9.410000e+02 4.150306e-12
9.420000e+02 4.216802e-10
9.430000e+02 3.601039e-11
9.440000e+02 4.925277e-10
9.450000e+02 4.874867e-10
9.460000e+02 3.102959e-10
9.470000e+02 1.804668e-13
9.480000e+02 8.469147e-11
9.490000e+02 9.372293e-12
9.500000e+02 6.750713e-14
9.510000e+02 6.440588e-11
9.520000e+02 2.953320e-10
9.530000e+02 6.601650e-12
9.540000e+02 2.227962e-13
9.550000e+02 7.152956e-11
9.560000e+02 3.852981e-10
9.570000e+02 1.784595e-11
9.580000e+02 5.825895e-14
9.590000e+02 1.150531e-09
9.600000e+02 4.192480e-13
9.610000e+02 1.103609e-09
9.620000e+02 5.984545e-10
9.630000e+02 2.474976e-11
9.640000e+02 7.259859e-12
9.650000e+02 8.196777e-13
9.660000e+02 1.134025e-10
9.670000e+02 9.811374e-12
9.680000e+02 6.618039e-12
9.690000e+02 3.632544e-10
9.700000e+02 4.539757e-10
9.710000e+02 1.388643e-11
9.720000e+02 1.279459e-12
9.730000e+02 2.015927e-12
9.740000e+02 1.186432e-10
9.750000e+02 2.018996e-10
9.760000e+02 1.666608e-09
9.770000e+02 2.205740e-09
9.780000e+02 1.985295e-09
9.790000e+02 4.387947e-09
9.800000e+02 4.947841e-09
9.810000e+02 1.742466e-09
9.820000e+02 2.772156e-10
9.830000e+02 6.509763e-09
9.840000e+02 1.264213e-10
9.850000e+02 7.254024e-10
9.860000e+02 7.011482e-10
9.870000e+02 8.302993e-09
9.880000e+02 3.671730e-12
9.890000e+02 6.741318e-09
9.900000e+02 7.584053e-09
9.910000e+02 3.314536e-10
9.920000e+02 4.716592e-13
9.930000e+02 8.650116e-09
9.940000e+02 3.015366e-13
9.950000e+02 3.331349e-10
9.960000e+02 2.253042e-11
9.970000e+02 1.464195e-11
9.980000e+02 1.363512e-08
9.990000e+02 4.444355e-10
1.000000e+03 2.009832e-08
1.001000e+03 1.763183e-08
1.002000e+03 2.227099e-08
1.003000e+03 4.263976e-10
1.004000e+03 5.957901e-12
1.005000e+03 2.970182e-09
1.006000e+03 2.622308e-08
1.007000e+03 2.885094e-08
1.008000e+03 2.660933e-08
1.009000e+03 3.823577e-10
1.010000e+03 2.655028e-08
1.011000e+03 2.589454e-08
1.012000e+03 3.172603e-08
1.013000e+03 3.221868e-08
1.014000e+03 2.552625e-12
1.015000e+03 1.556799e-11
1.016000e+03 2.760689e-09
1.017000e+03 1.399769e-12
1.018000e+03 6.149623e-10
1.019000e+03 1.419309e-11
1.020000e+03 2.076515e-08
1.021000e+03 5.547456e-10
1.022000e+03 1.704466e-09
1.023000e+03 6.443779e-11
1.024000e+03 8.189053e-10
1.025000e+03 1.515611e-12
1.026000e+03 2.224065e-12
1.027000e+03 3.663871e-10
1.028000e+03 2.660117e-11
1.029000e+03 3.782752e-12
1.030000e+03 1.022672e-08
1.031000e+03 4.078469e-08
1.032000e+03 7.781735e-08
1.033000e+03 4.727383e-10
1.034000e+03 5.132230e-08
1.035000e+03 1.203659e-11
1.036000e+03 1.512035e-11
1.037000e+03 3.655111e-07
1.038000e+03 5.777896e-07
1.039000e+03 5.184723e-07
1.040000e+03 3.908646e-07
1.041000e+03 6.817515e-07
1.042000e+03 8.637372e-07
1.043000e+03 4.540622e-07
1.044000e+03 1.141390e-06
1.045000e+03 1.987174e-11
1.046000e+03 5.229372e-07
1.047000e+03 3.534702e-07
1.048000e+03 1.760611e-09
1.049000e+03 3.072617e-07
1.050000e+03 3.046762e-08
1.051000e+03 1.004832e-08
1.052000e+03 1.627272e-06
1.053000e+03 1.845310e-06
1.054000e+03 2.705747e-11
1.055000e+03 1.664297e-06
1.056000e+03 2.111935e-06
1.057000e+03 7.896712e-07
1.058000e+03 1.368699e-08
1.059000e+03 6.733444e-09
1.060000e+03 1.883791e-09
1.061000e+03 2.220964e-06
1.062000e+03 6.245454e-09
1.063000e+03 2.285150e-09
1.064000e+03 3.433342e-11
1.065000e+03 4.320100e-11
1.066000e+03 3.915956e-07
1.067000e+03 1.600092e-08
1.068000e+03 4.381729e-06
1.069000e+03 2.062878e-09
1.070000e+03 2.960555e-07
1.071000e+03 3.928881e-06
1.072000e+03 5.557233e-06
1.073000e+03 2.005436e-10
1.074000e+03 1.994079e-06
1.075000e+03 1.297956e-06
1.076000e+03 2.078368e-06
1.077000e+03 2.299657e-09
1.078000e+03 2.250727e-08
1.079000e+03 2.243191e-07
1.080000e+03 1.149508e-06
1.081000e+03 6.996341e-06
1.082000e+03 5.020771e-06
1.083000e+03 3.174521e-06
1.084000e+03 8.824389e-06
1.085000e+03 4.184603e-07
1.086000e+03 1.095207e-05
1.087000e+03 4.352205e-08
1.088000e+03 1.225938e-05
1.089000e+03 1.275679e-05
1.090000e+03 3.577933e-07
1.091000e+03 8.335228e-07
1.092000e+03 1.203013e-05
1.093000e+03 1.446156e-05
1.094000e+03 4.229613e-06
1.095000e+03 1.734191e-05
1.096000e+03 2.158858e-07
1.097000e+03 1.719277e-05
1.098000e+03 1.756835e-05
1.099000e+03 1.167255e-06
1.100000e+03 4.854044e-09
1.101000e+03 1.866400e-08
1.102000e+03 1.312317e-06
1.103000e+03 2.500963e-05
1.104000e+03 2.560233e-05
1.105000e+03 2.743464e-05
1.106000e+03 7.241983e-06
1.107000e+03 1.792250e-08
1.108000e+03 2.750738e-05
1.109000e+03 5.735092e-07
1.110000e+03 3.193091e-05
1.111000e+03 3.068232e-05
1.112000e+03 2.377931e-05
1.113000e+03 2.379792e-05
1.114000e+03 1.079380e-05
1.115000e+03 4.118247e-07
1.116000e+03 6.385003e-08
1.117000e+03 4.552240e-05
1.118000e+03 1.098482e-06
1.119000e+03 2.434851e-05
1.120000e+03 1.953013e-07
1.121000e+03 5.008150e-05
1.122000e+03 5.752443e-05
1.123000e+03 8.599018e-05
1.124000e+03 1.117838e-04
1.125000e+03 8.538169e-05
1.126000e+03 8.823752e-05
1.127000e+03 7.431142e-05
1.128000e+03 6.115116e-05
1.129000e+03 4.708216e-05
1.130000e+03 6.307400e-05
1.131000e+03 4.691803e-05
1.132000e+03 3.123241e-07
1.133000e+03 1.118501e-05
1.134000e+03 4.787297e-05
1.135000e+03 3.709014e-05
1.136000e+03 1.449089e-05
1.137000e+03 3.777294e-05
1.138000e+03 4.013462e-05
1.139000e+03 4.786687e-05
1.140000e+03 4.536872e-05
1.141000e+03 4.241876e-05
1.142000e+03 4.607414e-05
1.143000e+03 3.278923e-05
1.144000e+03 4.350945e-05
1.145000e+03 1.840635e-07
1.146000e+03 4.790256e-05
1.147000e+03 4.830794e-05
1.148000e+03 3.677775e-06
1.149000e+03 4.658222e-05
1.150000e+03 4.642491e-05
1.151000e+03 4.624296e-05
1.152000e+03 4.365693e-05
1.153000e+03 4.433876e-05
1.154000e+03 4.272635e-05
1.155000e+03 4.201757e-05
1.156000e+03 3.035876e-05
1.157000e+03 4.008018e-05
1.158000e+03 3.594492e-05
1.159000e+03 4.091757e-05
1.160000e+03 3.809576e-05
1.161000e+03 3.737355e-05
1.162000e+03 1.158664e-05
1.163000e+03 2.570245e-05
1.164000e+03 6.764276e-08
1.165000e+03 2.027145e-05
1.166000e+03 1.014762e-05
1.167000e+03 6.471747e-06
1.168000e+03 4.317179e-05
1.169000e+03 4.397994e-05
1.170000e+03 6.926175e-06
1.171000e+03 1.852088e-05
1.172000e+03 1.475612e-05
1.173000e+03 1.239293e-05
1.174000e+03 1.488836e-06
1.175000e+03 6.909249e-08
1.176000e+03 1.567059e-08
1.177000e+03 5.861055e-05
1.178000e+03 5.502785e-05
1.179000e+03 5.210526e-05
1.180000e+03 4.769086e-05
1.181000e+03 4.668518e-05
1.182000e+03 4.520100e-05
1.183000e+03 4.257024e-05
1.184000e+03 4.113829e-05
1.185000e+03 3.953431e-05
1.186000e+03 8.359132e-06
1.187000e+03 3.737264e-05
1.188000e+03 3.568769e-05
1.189000e+03 3.570968e-05
1.190000e+03 3.471693e-05
1.191000e+03 3.278864e-05
1.192000e+03 2.946081e-05
1.193000e+03 2.935006e-05
1.194000e+03 2.832231e-05
1.195000e+03 2.706797e-05
1.196000e+03 7.175455e-04
1.197000e+03 6.602842e-04
1.198000e+03 6.453015e-05
1.199000e+03 5.324343e-04
1.200000e+03 2.026653e-04
1.201000e+03 3.971612e-04
1.202000e+03 3.228998e-04
1.203000e+03 2.755760e-04
1.204000e+03 1.472413e-04
1.205000e+03 1.708630e-04
1.206000e+03 1.279762e-04
1.207000e+03 1.360544e-05
1.208000e+03 5.568295e-05
1.209000e+03 4.014911e-05
1.210000e+03 1.216067e-07
1.211000e+03 1.335961e-05
1.212000e+03 6.334655e-06
1.213000e+03 2.504584e-06
1.214000e+03 6.788006e-07
1.215000e+03 7.769804e-08
1.216000e+03 6.591529e-08
1.217000e+03 4.063601e-07
1.218000e+03 2.083933e-06
1.219000e+03 6.274152e-06
1.220000e+03 1.478343e-05
1.221000e+03 3.035029e-05
1.222000e+03 5.728216e-05
1.223000e+03 9.450156e-05
1.224000e+03 1.383087e-04
1.225000e+03 7.635726e-05
1.226000e+03 3.201575e-04
1.227000e+03 4.519600e-04
1.228000e+03 5.141975e-04
1.229000e+03 7.916950e-04
1.230000e+03 5.128120e-04
1.231000e+03 5.148876e-04
1.232000e+03 1.475832e-03
1.233000e+03 1.771670e-03
1.234000e+03 1.735902e-03
1.235000e+03 2.393278e-03
1.236000e+03 2.051573e-03
1.237000e+03 3.071133e-03
1.238000e+03 3.433819e-03
1.239000e+03 3.606421e-03
1.240000e+03 3.108699e-04
1.241000e+03 3.909141e-03
1.242000e+03 4.908187e-03
1.243000e+03 5.327445e-03
1.244000e+03 5.760420e-03
1.245000e+03 6.050057e-03
1.246000e+03 6.333930e-03
1.247000e+03 6.738666e-03
1.248000e+03 3.694861e-03
1.249000e+03 7.492058e-03
1.250000e+03 6.865046e-03
1.251000e+03 8.561283e-03
1.252000e+03 8.252451e-03
1.253000e+03 9.091777e-03
1.254000e+03 8.907860e-03
1.255000e+03 1.179733e-03
1.256000e+03 7.958031e-03
1.257000e+03 5.087092e-03
1.258000e+03 8.754754e-03
1.259000e+03 1.010893e-02
1.260000e+03 1.068769e-02
1.261000e+03 1.479927e-04
1.262000e+03 1.110124e-02
1.263000e+03 8.723291e-03
1.264000e+03 1.033149e-02
1.265000e+03 1.037845e-02
1.266000e+03 1.386516e-02
1.267000e+03 1.498081e-02
