# wavelength_A flux
5.000000e+02 1.357553e-22
5.010000e+02 1.644343e-22
5.020000e+02 1.990176e-22
5.030000e+02 2.406887e-22
5.040000e+02 2.908624e-22
5.050000e+02 3.720022e-22
5.060000e+02 4.482704e-22
5.070000e+02 5.397832e-22
5.080000e+02 6.495083e-22
5.090000e+02 7.809765e-22
5.100000e+02 9.383843e-22
5.110000e+02 1.126716e-21
5.120000e+02 1.351889e-21
5.130000e+02 1.620921e-21
5.140000e+02 1.942132e-21
5.150000e+02 2.325370e-21
5.160000e+02 2.782316e-21
5.170000e+02 3.326700e-21
5.180000e+02 3.974996e-21
5.190000e+02 4.746315e-21
5.200000e+02 5.663453e-21
5.210000e+02 6.753213e-21
5.220000e+02 8.044668e-21
5.230000e+02 9.582883e-21
5.240000e+02 1.140425e-20
5.250000e+02 1.356261e-20
5.260000e+02 1.611883e-20
5.270000e+02 1.914429e-20
5.280000e+02 2.272283e-20
5.290000e+02 2.695087e-20
5.300000e+02 3.194971e-20
5.310000e+02 3.784871e-20
5.320000e+02 4.480830e-20
5.330000e+02 5.301398e-20
5.340000e+02 6.268279e-20
5.350000e+02 7.406836e-20
5.360000e+02 8.746603e-20
5.370000e+02 1.011597e-19
5.380000e+02 1.217474e-19
5.390000e+02 1.435097e-19
5.400000e+02 1.690550e-19
5.410000e+02 1.990107e-19
5.420000e+02 2.341678e-19
5.430000e+02 2.753503e-19
5.440000e+02 3.235808e-19
5.450000e+02 3.800330e-19
5.460000e+02 4.460571e-19
5.470000e+02 5.232724e-19
5.480000e+02 6.134774e-19
5.490000e+02 7.188129e-19
5.500000e+02 8.417463e-19
5.510000e+02 9.851351e-19
5.520000e+02 1.152288e-18
5.530000e+02 1.347032e-18
5.540000e+02 1.573795e-18
5.550000e+02 1.837692e-18
5.560000e+02 2.144632e-18
5.570000e+02 2.501438e-18
5.580000e+02 2.915982e-18
5.590000e+02 3.397343e-18
5.600000e+02 3.955983e-18
5.610000e+02 4.603958e-18
5.620000e+02 5.355145e-18
5.630000e+02 6.225517e-18
5.640000e+02 7.233441e-18
5.650000e+02 8.400035e-18
5.660000e+02 9.749561e-18
5.670000e+02 1.130988e-17
5.680000e+02 1.311297e-17
5.690000e+02 1.519551e-17
5.700000e+02 1.759957e-17
5.710000e+02 2.037335e-17
5.720000e+02 2.357206e-17
5.730000e+02 2.725892e-17
5.740000e+02 3.150624e-17
5.750000e+02 3.639740e-17
5.760000e+02 4.202407e-17
5.770000e+02 4.849989e-17
5.780000e+02 5.594323e-17
5.790000e+02 6.449659e-17
5.800000e+02 7.432064e-17
5.810000e+02 8.559859e-17
5.820000e+02 9.853913e-17
5.830000e+02 1.133793e-16
5.840000e+02 1.303593e-16
5.850000e+02 1.498779e-16
5.860000e+02 1.722104e-16
5.870000e+02 1.977653e-16
5.880000e+02 2.270028e-16
5.890000e+02 2.604382e-16
5.900000e+02 2.986566e-16
5.910000e+02 3.423219e-16
5.920000e+02 3.921871e-16
5.930000e+02 4.491061e-16
5.940000e+02 5.140469e-16
5.950000e+02 5.881060e-16
5.960000e+02 6.725253e-16
5.970000e+02 7.687102e-16
5.980000e+02 8.782512e-16
5.990000e+02 1.002947e-15
6.000000e+02 1.144830e-15
6.010000e+02 1.306197e-15
6.020000e+02 1.489644e-15
6.030000e+02 1.698100e-15
6.040000e+02 1.934869e-15
6.050000e+02 2.203681e-15
6.060000e+02 2.508738e-15
6.070000e+02 2.854778e-15
6.080000e+02 3.247140e-15
6.090000e+02 3.691832e-15
6.100000e+02 4.195619e-15
6.110000e+02 4.766113e-15
6.120000e+02 5.411874e-15
6.130000e+02 6.142525e-15
6.140000e+02 6.968879e-15
6.150000e+02 7.903085e-15
6.160000e+02 8.958780e-15
6.170000e+02 1.015127e-14
6.180000e+02 1.149774e-14
6.190000e+02 1.301744e-14
6.200000e+02 1.473196e-14
6.210000e+02 1.666550e-14
6.220000e+02 1.884516e-14
6.230000e+02 2.130128e-14
6.240000e+02 2.406784e-14
6.250000e+02 2.718282e-14
6.260000e+02 3.068873e-14
6.270000e+02 3.463308e-14
6.280000e+02 3.906896e-14
6.290000e+02 4.405569e-14
6.300000e+02 4.965950e-14
6.310000e+02 5.595595e-14
6.320000e+02 6.302265e-14
6.330000e+02 7.095653e-14
6.340000e+02 7.985853e-14
6.350000e+02 8.984316e-14
6.360000e+02 1.010375e-13
6.370000e+02 1.135837e-13
6.380000e+02 1.276398e-13
6.390000e+02 1.433816e-13
6.400000e+02 1.610047e-13
6.410000e+02 1.807267e-13
6.420000e+02 2.027896e-13
6.430000e+02 2.274621e-13
6.440000e+02 2.550429e-13
6.450000e+02 2.858639e-13
6.460000e+02 3.202931e-13
6.470000e+02 3.587393e-13
6.480000e+02 4.016559e-13
6.490000e+02 4.495457e-13
6.500000e+02 5.029662e-13
6.510000e+02 5.625350e-13
6.520000e+02 6.289368e-13
6.530000e+02 7.029296e-13
6.540000e+02 7.853525e-13
6.550000e+02 8.771344e-13
6.560000e+02 9.793029e-13
6.570000e+02 1.092996e-12
6.580000e+02 1.219466e-12
6.590000e+02 1.360107e-12
6.600000e+02 1.516450e-12
6.610000e+02 1.690193e-12
6.620000e+02 1.883205e-12
6.630000e+02 2.097554e-12
6.640000e+02 2.335519e-12
6.650000e+02 2.599616e-12
6.660000e+02 2.892616e-12
6.670000e+02 3.217579e-12
6.680000e+02 3.577873e-12
6.690000e+02 3.977210e-12
6.700000e+02 4.419679e-12
6.710000e+02 4.909781e-12
6.720000e+02 5.452471e-12
6.730000e+02 6.053201e-12
6.740000e+02 6.717967e-12
6.750000e+02 7.453364e-12
6.760000e+02 8.266642e-12
6.770000e+02 9.165767e-12
6.780000e+02 1.015949e-11
6.790000e+02 1.125743e-11
6.800000e+02 1.247014e-11
6.810000e+02 1.380920e-11
6.820000e+02 1.528734e-11
6.830000e+02 1.691849e-11
6.840000e+02 1.871795e-11
6.850000e+02 2.070249e-11
6.860000e+02 2.289050e-11
6.870000e+02 2.530210e-11
6.880000e+02 2.795937e-11
6.890000e+02 3.088646e-11
6.900000e+02 3.410981e-11
6.910000e+02 3.765837e-11
6.920000e+02 4.156380e-11
6.930000e+02 4.586077e-11
6.940000e+02 5.058712e-11
6.950000e+02 5.578430e-11
6.960000e+02 6.149754e-11
6.970000e+02 6.777658e-11
6.980000e+02 7.467460e-11
6.990000e+02 8.225141e-11
7.000000e+02 9.057113e-11
7.010000e+02 9.970402e-11
7.020000e+02 1.097268e-10
7.030000e+02 1.207230e-10
7.040000e+02 1.327839e-10
7.050000e+02 1.460090e-10
7.060000e+02 1.605066e-10
7.070000e+02 1.763947e-10
7.080000e+02 1.938021e-10
7.090000e+02 2.128688e-10
7.100000e+02 2.337474e-10
7.110000e+02 2.566038e-10
7.120000e+02 2.816187e-10
7.130000e+02 3.089887e-10
7.140000e+02 3.389275e-10
7.150000e+02 3.716675e-10
7.160000e+02 4.074614e-10
7.170000e+02 4.465839e-10
7.180000e+02 4.893341e-10
7.190000e+02 5.360330e-10
7.200000e+02 5.870359e-10
7.210000e+02 6.427235e-10
7.220000e+02 7.035107e-10
7.230000e+02 7.698476e-10
7.240000e+02 8.422221e-10
7.250000e+02 9.211639e-10
7.260000e+02 1.007247e-09
7.270000e+02 1.101094e-09
7.280000e+02 1.203379e-09
7.290000e+02 1.314834e-09
7.300000e+02 1.436250e-09
7.310000e+02 1.568484e-09
7.320000e+02 1.712465e-09
7.330000e+02 1.869198e-09
7.340000e+02 2.039771e-09
7.350000e+02 2.225361e-09
7.360000e+02 2.427243e-09
7.370000e+02 2.646787e-09
7.380000e+02 2.885487e-09
7.390000e+02 3.144953e-09
7.400000e+02 3.426921e-09
7.410000e+02 3.733271e-09
7.420000e+02 4.066032e-09
7.430000e+02 4.427396e-09
7.440000e+02 4.819731e-09
7.450000e+02 5.245590e-09
7.460000e+02 5.707730e-09
7.470000e+02 6.209127e-09
7.480000e+02 6.752989e-09
7.490000e+02 7.342778e-09
7.500000e+02 7.982224e-09
7.510000e+02 8.675351e-09
7.520000e+02 9.426494e-09
7.530000e+02 1.024033e-08
7.540000e+02 1.112188e-08
7.550000e+02 1.207658e-08
7.560000e+02 1.311025e-08
7.570000e+02 1.422920e-08
7.580000e+02 1.544016e-08
7.590000e+02 1.675045e-08
7.600000e+02 1.816787e-08
7.610000e+02 1.970085e-08
7.620000e+02 2.135847e-08
7.630000e+02 2.315045e-08
7.640000e+02 2.508727e-08
7.650000e+02 2.718020e-08
7.660000e+02 2.944131e-08
7.670000e+02 3.188361e-08
7.680000e+02 3.452108e-08
7.690000e+02 3.737078e-08
7.700000e+02 4.044243e-08
7.710000e+02 4.375971e-08
7.720000e+02 4.733903e-08
7.730000e+02 5.120028e-08
7.740000e+02 5.536478e-08
7.750000e+02 5.985545e-08
7.760000e+02 6.469687e-08
7.770000e+02 6.991515e-08
7.780000e+02 7.553871e-08
7.790000e+02 8.159772e-08
7.800000e+02 8.812456e-08
7.810000e+02 9.515392e-08
7.820000e+02 1.027230e-07
7.830000e+02 1.108715e-07
7.840000e+02 1.196422e-07
7.850000e+02 1.290805e-07
7.860000e+02 1.392354e-07
7.870000e+02 1.501587e-07
7.880000e+02 1.619070e-07
7.890000e+02 1.745397e-07
7.900000e+02 1.881207e-07
7.910000e+02 2.027185e-07
7.920000e+02 2.184060e-07
7.930000e+02 2.352613e-07
7.940000e+02 2.533680e-07
7.950000e+02 2.728151e-07
7.960000e+02 2.936980e-07
7.970000e+02 3.161183e-07
7.980000e+02 3.401847e-07
7.990000e+02 3.660131e-07
8.000000e+02 3.937274e-07
8.010000e+02 4.234596e-07
8.020000e+02 4.553508e-07
8.030000e+02 4.895513e-07
8.040000e+02 5.262216e-07
8.050000e+02 5.655327e-07
8.060000e+02 6.076671e-07
8.070000e+02 6.528193e-07
8.080000e+02 7.011966e-07
8.090000e+02 7.530199e-07
8.100000e+02 8.085246e-07
8.110000e+02 8.679616e-07
8.120000e+02 9.315979e-07
8.130000e+02 9.997181e-07
8.140000e+02 1.072627e-06
8.150000e+02 1.150641e-06
8.160000e+02 1.234110e-06
8.170000e+02 1.323397e-06
8.180000e+02 1.418890e-06
8.190000e+02 1.521003e-06
8.200000e+02 1.630176e-06
8.210000e+02 1.746877e-06
8.220000e+02 1.871603e-06
8.230000e+02 2.004884e-06
8.240000e+02 2.147280e-06
8.250000e+02 2.299391e-06
8.260000e+02 2.461850e-06
8.270000e+02 2.635333e-06
8.280000e+02 2.820555e-06
8.290000e+02 3.018278e-06
8.300000e+02 3.229311e-06
8.310000e+02 3.454511e-06
8.320000e+02 3.694789e-06
8.330000e+02 3.951111e-06
8.340000e+02 4.224506e-06
8.350000e+02 4.516644e-06
8.360000e+02 4.826943e-06
8.370000e+02 5.158341e-06
8.380000e+02 5.511592e-06
8.390000e+02 5.888060e-06
8.400000e+02 6.289208e-06
8.410000e+02 6.716584e-06
8.420000e+02 7.171864e-06
8.430000e+02 7.656682e-06
8.440000e+02 8.172991e-06
8.450000e+02 8.722700e-06
8.460000e+02 9.307885e-06
8.470000e+02 9.930737e-06
8.480000e+02 1.059357e-05
8.490000e+02 1.129884e-05
8.500000e+02 1.204916e-05
8.510000e+02 1.284726e-05
8.520000e+02 1.369608e-05
8.530000e+02 1.459867e-05
8.540000e+02 1.555828e-05
8.550000e+02 1.657841e-05
8.560000e+02 1.766269e-05
8.570000e+02 1.881497e-05
8.580000e+02 2.004355e-05
8.590000e+02 2.134008e-05
8.600000e+02 2.272178e-05
8.610000e+02 2.418948e-05
8.620000e+02 2.574756e-05
8.630000e+02 2.740212e-05
8.640000e+02 2.915864e-05
8.650000e+02 3.102297e-05
8.660000e+02 3.300161e-05
8.670000e+02 3.510120e-05
8.680000e+02 3.732881e-05
8.690000e+02 3.969188e-05
8.700000e+02 4.219847e-05
8.710000e+02 4.485640e-05
8.720000e+02 4.767494e-05
8.730000e+02 5.066311e-05
8.740000e+02 5.383074e-05
8.750000e+02 5.718811e-05
8.760000e+02 6.074608e-05
8.770000e+02 6.451608e-05
8.780000e+02 6.851043e-05
8.790000e+02 7.274117e-05
8.800000e+02 7.722252e-05
8.810000e+02 8.196802e-05
8.820000e+02 8.699283e-05
8.830000e+02 9.231275e-05
8.840000e+02 9.794423e-05
8.850000e+02 1.039044e-04
8.860000e+02 1.102120e-04
8.870000e+02 1.168862e-04
8.880000e+02 1.239474e-04
8.890000e+02 1.314170e-04
8.900000e+02 1.393173e-04
8.910000e+02 1.476723e-04
8.920000e+02 1.565210e-04
8.930000e+02 1.658474e-04
8.940000e+02 1.757216e-04
8.950000e+02 1.861581e-04
8.960000e+02 1.971879e-04
8.970000e+02 2.088430e-04
8.980000e+02 2.211576e-04
8.990000e+02 2.341665e-04
9.000000e+02 2.479078e-04
9.010000e+02 2.624204e-04
9.020000e+02 2.777465e-04
9.030000e+02 2.939356e-04
9.040000e+02 3.110123e-04
9.050000e+02 3.290442e-04
9.060000e+02 3.480773e-04
9.070000e+02 3.681637e-04
9.080000e+02 3.893582e-04
9.090000e+02 4.117198e-04
9.100000e+02 4.353095e-04
9.110000e+02 4.601917e-04
9.120000e+02 4.864233e-04
9.130000e+02 5.195173e-04
9.140000e+02 5.441308e-04
9.150000e+02 1.378539e+00
9.160000e+02 5.157076e+00
9.170000e+02 1.680325e-01
9.180000e+02 3.971816e+00
9.190000e+02 1.773570e+01
9.200000e+02 3.271088e+01
9.210000e+02 8.046851e-04
9.220000e+02 7.573554e+00
9.230000e+02 2.913269e-01
9.240000e+02 3.125801e-01
9.250000e+02 1.457575e+00
9.260000e+02 9.759264e+00
9.270000e+02 1.859729e-01
9.280000e+02 5.409683e+01
9.290000e+02 6.824402e+01
9.300000e+02 5.148561e+01
9.310000e+02 2.253195e-01
9.320000e+02 7.634423e+01
9.330000e+02 5.528481e+00
9.340000e+02 2.102097e+00
9.350000e+02 1.840993e-01
9.360000e+02 3.364873e-01
9.370000e+02 4.147893e-02
9.380000e+02 1.912839e+00
9.390000e+02 7.145982e-01
9.400000e+02 3.580941e+01
9.410000e+02 5.060770e+00
9.420000e+02 1.147762e+02
9.430000e+02 1.042994e+00
9.440000e+02 1.215954e+02
9.450000e+02 1.167859e+02
9.460000e+02 1.454975e+01
9.470000e+02 5.357504e-02
9.480000e+02 9.557552e+01
9.490000e+02 6.902290e+01
9.500000e+02 1.202350e+00
9.510000e+02 1.216081e+01
9.520000e+02 1.889579e+01
9.530000e+02 1.770474e-01
9.540000e+02 5.581492e-02
9.550000e+02 3.033707e+00
9.560000e+02 1.591641e+02
9.570000e+02 1.307657e+00
9.580000e+02 1.835203e-02
9.590000e+02 1.068749e+02
9.600000e+02 2.308445e-01
9.610000e+02 1.468591e+01
9.620000e+02 5.780351e+00
9.630000e+02 2.726280e+00
9.640000e+02 5.323362e-02
9.650000e+02 1.320190e-01
9.660000e+02 3.127411e+00
9.670000e+02 5.883751e-01
9.680000e+02 2.971878e-01
9.690000e+02 1.414159e+01
9.700000e+02 1.103888e+01
9.710000e+02 6.834727e-01
9.720000e+02 7.828712e-01
9.730000e+02 7.273389e+01
9.740000e+02 1.789509e+01
9.750000e+02 5.163070e+00
9.760000e+02 8.829913e+01
9.770000e+02 4.813261e+01
9.780000e+02 1.618696e+01
9.790000e+02 3.831916e+02
9.800000e+02 3.801352e+02
9.810000e+02 1.602917e+01
9.820000e+02 2.902542e+00
9.830000e+02 2.172917e+02
9.840000e+02 2.166886e+01
9.850000e+02 8.538007e+00
9.860000e+02 1.095807e+01
9.870000e+02 2.581526e+02
9.880000e+02 2.481384e-01
9.890000e+02 4.888443e+01
9.900000e+02 1.484605e+01
9.910000e+02 1.817969e+00
9.920000e+02 7.133150e-02
9.930000e+02 6.005088e+02
9.940000e+02 8.201027e-02
9.950000e+02 4.683533e+01
9.960000e+02 7.665405e-01
9.970000e+02 3.620045e+01
9.980000e+02 1.180504e+02
9.990000e+02 3.864277e+00
1.000000e+03 8.750048e+02
1.001000e+03 9.023170e+02
1.002000e+03 5.346602e+02
1.003000e+03 5.221985e+00
1.004000e+03 4.178467e-01
1.005000e+03 1.312231e+01
1.006000e+03 4.054903e+02
1.007000e+03 7.024407e+02
1.008000e+03 2.220364e+02
1.009000e+03 8.304061e+00
1.010000e+03 2.444398e+02
1.011000e+03 4.880536e+02
1.012000e+03 2.649408e+02
1.013000e+03 2.243299e+02
1.014000e+03 1.667252e-01
1.015000e+03 5.016479e-01
1.016000e+03 1.281424e+01
1.017000e+03 1.654663e-01
1.018000e+03 7.760803e+00
1.019000e+03 4.932861e-01
1.020000e+03 8.743284e+02
1.021000e+03 7.226807e+00
1.022000e+03 1.294592e+01
1.023000e+03 8.776855e-01
1.024000e+03 1.126406e+03
1.025000e+03 1.944733e-01
1.026000e+03 9.755946e+00
1.027000e+03 9.061844e+01
1.028000e+03 2.919617e+00
1.029000e+03 2.961426e-01
1.030000e+03 7.715930e+01
1.031000e+03 5.783282e+01
1.032000e+03 5.589284e+02
1.033000e+03 2.912025e+01
1.034000e+03 1.118520e+02
1.035000e+03 1.403229e+00
1.036000e+03 4.626160e-01
1.037000e+03 4.529534e+02
1.038000e+03 1.798013e+03
1.039000e+03 5.222029e+02
1.040000e+03 6.497156e+02
1.041000e+03 2.717525e+03
1.042000e+03 1.445661e+03
1.043000e+03 1.313770e+03
1.044000e+03 3.848692e+03
1.045000e+03 7.642796e+02
1.046000e+03 9.149373e+02
1.047000e+03 1.712911e+02
1.048000e+03 5.603668e+00
1.049000e+03 2.484368e+02
1.050000e+03 1.076912e+02
1.051000e+03 5.698352e+01
1.052000e+03 1.408983e+03
1.053000e+03 2.955538e+03
1.054000e+03 7.829590e-01
1.055000e+03 3.820747e+03
1.056000e+03 3.791268e+03
1.057000e+03 4.186751e+02
1.058000e+03 7.368709e+01
1.059000e+03 2.928906e+01
1.060000e+03 8.417603e+00
1.061000e+03 5.737759e+02
1.062000e+03 3.472011e+01
1.063000e+03 5.042981e+02
1.064000e+03 1.587891e+00
1.065000e+03 1.278076e+00
1.066000e+03 7.813079e+02
1.067000e+03 1.907513e+01
1.068000e+03 7.199389e+03
1.069000e+03 4.954361e+00
1.070000e+03 4.468154e+02
1.071000e+03 4.214260e+03
1.072000e+03 4.729569e+03
1.073000e+03 2.309082e+00
1.074000e+03 4.009332e+02
1.075000e+03 2.465342e+02
1.076000e+03 5.592452e+03
1.077000e+03 2.408533e+01
1.078000e+03 7.405127e+01
1.079000e+03 3.014257e+02
1.080000e+03 6.689914e+02
1.081000e+03 1.667647e+03
1.082000e+03 1.252912e+03
1.083000e+03 7.640444e+02
1.084000e+03 1.122921e+04
1.085000e+03 2.479761e+02
1.086000e+03 9.793217e+03
1.087000e+03 4.525391e+01
1.088000e+03 1.492928e+04
1.089000e+03 1.457645e+04
1.090000e+03 1.873332e+02
1.091000e+03 2.202881e+02
1.092000e+03 1.122850e+04
1.093000e+03 1.202249e+04
1.094000e+03 2.029516e+03
1.095000e+03 1.674341e+04
1.096000e+03 2.744080e+03
1.097000e+03 3.797870e+03
1.098000e+03 1.672884e+04
1.099000e+03 7.572734e+02
1.100000e+03 1.682471e+01
1.101000e+03 4.480087e+01
1.102000e+03 3.396606e+02
1.103000e+03 1.416226e+04
1.104000e+03 2.203011e+04
1.105000e+03 1.771273e+04
1.106000e+03 1.566334e+03
1.107000e+03 1.788281e+01
1.108000e+03 6.022198e+03
1.109000e+03 1.847295e+02
1.110000e+03 2.524911e+04
1.111000e+03 1.376201e+04
1.112000e+03 3.478872e+03
1.113000e+03 1.870560e+04
1.114000e+03 2.312300e+03
1.115000e+03 3.257458e+02
1.116000e+03 1.828269e+02
1.117000e+03 1.220804e+04
1.118000e+03 2.864487e+02
1.119000e+03 5.055042e+03
1.120000e+03 1.846963e+02
1.121000e+03 1.159637e+04
1.122000e+03 6.517619e+03
1.123000e+03 1.689170e+04
1.124000e+03 1.751960e+04
1.125000e+03 1.025336e+04
1.126000e+03 3.885077e+04
1.127000e+03 1.789321e+04
1.128000e+03 2.312529e+04
1.129000e+03 8.194504e+03
1.130000e+03 2.390164e+04
1.131000e+03 3.193778e+04
1.132000e+03 3.308523e+02
1.133000e+03 9.662500e+02
1.134000e+03 8.242068e+03
1.135000e+03 1.035383e+04
1.136000e+03 2.453334e+03
1.137000e+03 2.535775e+04
1.138000e+03 7.635100e+03
1.139000e+03 3.911941e+04
1.140000e+03 3.582337e+04
1.141000e+03 3.244504e+04
1.142000e+03 4.875117e+04
1.143000e+03 1.590672e+04
1.144000e+03 4.940996e+04
1.145000e+03 1.185742e+02
1.146000e+03 5.700848e+04
1.147000e+03 4.316489e+04
1.148000e+03 7.827402e+02
1.149000e+03 3.048893e+04
1.150000e+03 1.781530e+04
1.151000e+03 6.143979e+04
1.152000e+03 4.485204e+04
1.153000e+03 4.734964e+04
1.154000e+03 6.541130e+04
1.155000e+03 2.541130e+04
1.156000e+03 6.938691e+04
1.157000e+03 6.746066e+04
1.158000e+03 1.658268e+04
1.159000e+03 5.846821e+04
1.160000e+03 1.388363e+04
1.161000e+03 5.843553e+04
1.162000e+03 2.993629e+03
1.163000e+03 7.554832e+03
1.164000e+03 3.343535e+02
1.165000e+03 5.020365e+04
1.166000e+03 3.272007e+04
1.167000e+03 3.291910e+04
1.168000e+03 8.415412e+04
1.169000e+03 8.756235e+04
1.170000e+03 3.012336e+04
1.171000e+03 5.995528e+04
1.172000e+03 1.996360e+04
1.173000e+03 8.738013e+04
1.174000e+03 6.679043e+02
1.175000e+03 1.839570e+02
1.176000e+03 5.858887e+01
1.177000e+03 1.053362e+05
1.178000e+03 1.084875e+05
1.179000e+03 9.018627e+04
1.180000e+03 3.568699e+04
1.181000e+03 1.137050e+05
1.182000e+03 8.871727e+04
1.183000e+03 4.673985e+04
1.184000e+03 3.822816e+04
1.185000e+03 5.732389e+04
1.186000e+03 3.760481e+03
1.187000e+03 7.424843e+04
1.188000e+03 2.585035e+04
1.189000e+03 9.838734e+04
1.190000e+03 1.209398e+05
1.191000e+03 6.949344e+04
1.192000e+03 1.080177e+05
1.193000e+03 2.576727e+04
1.194000e+03 8.885309e+04
1.195000e+03 1.054851e+05
1.196000e+03 9.972072e+04
1.197000e+03 1.750983e+05
1.198000e+03 9.422074e+03
1.199000e+03 1.769365e+05
1.200000e+03 1.959330e+04
1.201000e+03 1.668562e+05
1.202000e+03 5.790693e+04
1.203000e+03 1.540797e+05
1.204000e+03 1.648396e+04
1.205000e+03 1.271777e+05
1.206000e+03 1.520985e+05
1.207000e+03 3.383071e+04
1.208000e+03 1.142874e+05
1.209000e+03 1.194707e+05
1.210000e+03 2.294531e+02
1.211000e+03 7.023721e+04
1.212000e+03 2.971333e+04
1.213000e+03 2.779809e+04
1.214000e+03 9.579386e+03
1.215000e+03 8.119791e+02
1.216000e+03 1.879875e+02
1.217000e+03 5.674226e+03
1.218000e+03 2.338360e+04
1.219000e+03 4.806405e+04
1.220000e+03 1.835472e+04
1.221000e+03 1.113449e+05
1.222000e+03 1.039364e+05
1.223000e+03 1.084625e+05
1.224000e+03 1.936805e+05
1.225000e+03 1.111672e+04
1.226000e+03 2.787614e+05
1.227000e+03 2.698337e+05
1.228000e+03 5.156906e+04
1.229000e+03 2.120770e+05
1.230000e+03 1.622229e+05
1.231000e+03 3.701169e+04
1.232000e+03 4.020911e+05
1.233000e+03 4.341941e+05
1.234000e+03 3.537474e+05
1.235000e+03 3.873904e+05
1.236000e+03 6.740386e+04
1.237000e+03 4.645781e+05
1.238000e+03 3.918653e+05
1.239000e+03 2.853717e+05
1.240000e+03 2.904829e+05
1.241000e+03 2.510208e+05
1.242000e+03 3.911781e+05
1.243000e+03 5.420780e+05
1.244000e+03 5.920128e+05
1.245000e+03 5.186181e+05
1.246000e+03 4.127789e+05
1.247000e+03 4.760459e+05
1.248000e+03 5.281417e+05
1.249000e+03 6.719638e+05
1.250000e+03 4.476036e+05
1.251000e+03 6.752716e+05
1.252000e+03 5.467514e+05
1.253000e+03 7.079299e+05
1.254000e+03 5.863625e+05
1.255000e+03 7.310608e+05
1.256000e+03 5.734857e+05
1.257000e+03 6.009495e+05
1.258000e+03 3.436561e+05
1.259000e+03 5.295540e+05
1.260000e+03 7.855634e+05
1.261000e+03 6.739144e+04
1.262000e+03 8.708127e+05
1.263000e+03 7.516072e+05
1.264000e+03 4.466950e+05
1.265000e+03 1.285481e+04
1.266000e+03 8.342846e+05
1.267000e+03 5.426046e+05
