# wavelength_A flux
5.000000e+02 8.043011e-37
5.010000e+02 1.040387e-36
5.020000e+02 1.344365e-36
5.030000e+02 1.735355e-36
5.040000e+02 2.237746e-36
5.050000e+02 2.883209e-36
5.060000e+02 3.710275e-36
5.070000e+02 4.769730e-36
5.080000e+02 6.125564e-36
5.090000e+02 7.858904e-36
5.100000e+02 1.007104e-35
5.110000e+02 1.289730e-35
5.120000e+02 1.649769e-35
5.130000e+02 2.108265e-35
5.140000e+02 2.691557e-35
5.150000e+02 3.432906e-35
5.160000e+02 4.374239e-35
5.170000e+02 5.568372e-35
5.180000e+02 7.081759e-35
5.190000e+02 8.997953e-35
5.200000e+02 1.142190e-34
5.210000e+02 1.448529e-34
5.220000e+02 1.835323e-34
5.230000e+02 2.323261e-34
5.240000e+02 2.938219e-34
5.250000e+02 3.712565e-34
5.260000e+02 4.686730e-34
5.270000e+02 5.911178e-34
5.280000e+02 7.448837e-34
5.290000e+02 9.378116e-34
5.300000e+02 1.179662e-33
5.310000e+02 1.482575e-33
5.320000e+02 1.861637e-33
5.330000e+02 2.335579e-33
5.340000e+02 2.927640e-33
5.350000e+02 3.666625e-33
5.360000e+02 4.588207e-33
5.370000e+02 5.736326e-33
5.380000e+02 7.166178e-33
5.390000e+02 8.944578e-33
5.400000e+02 1.115496e-32
5.410000e+02 1.389999e-32
5.420000e+02 1.730616e-32
5.430000e+02 2.152927e-32
5.440000e+02 2.676096e-32
5.450000e+02 3.323687e-32
5.460000e+02 4.124646e-32
5.470000e+02 5.114498e-32
5.480000e+02 6.336819e-32
5.490000e+02 7.845005e-32
5.500000e+02 9.704449e-32
5.510000e+02 1.199516e-31
5.520000e+02 1.481497e-31
5.530000e+02 1.828339e-31
5.540000e+02 2.254632e-31
5.550000e+02 2.778175e-31
5.560000e+02 3.420664e-31
5.570000e+02 4.208524e-31
5.580000e+02 5.173918e-31
5.590000e+02 6.355964e-31
5.600000e+02 7.802203e-31
5.610000e+02 9.570371e-31
5.620000e+02 1.173053e-30
5.630000e+02 1.436765e-30
5.640000e+02 1.758469e-30
5.650000e+02 2.150633e-30
5.660000e+02 2.628344e-30
5.670000e+02 3.209844e-30
5.680000e+02 3.917178e-30
5.690000e+02 4.776965e-30
5.700000e+02 5.821322e-30
5.710000e+02 7.088982e-30
5.720000e+02 8.626611e-30
5.730000e+02 1.049041e-29
5.740000e+02 1.274800e-29
5.750000e+02 1.548070e-29
5.760000e+02 1.878623e-29
5.770000e+02 2.278196e-29
5.780000e+02 2.760871e-29
5.790000e+02 3.343538e-29
5.800000e+02 4.046442e-29
5.810000e+02 4.893827e-29
5.820000e+02 5.914714e-29
5.830000e+02 7.143815e-29
5.840000e+02 8.622623e-29
5.850000e+02 1.040071e-28
5.860000e+02 1.253725e-28
5.870000e+02 1.510285e-28
5.880000e+02 1.818169e-28
5.890000e+02 2.187408e-28
5.900000e+02 2.629945e-28
5.910000e+02 3.159997e-28
5.920000e+02 3.794469e-28
5.930000e+02 4.553457e-28
5.940000e+02 5.460829e-28
5.950000e+02 6.544923e-28
5.960000e+02 7.839358e-28
5.970000e+02 9.383995e-28
5.980000e+02 1.122607e-27
5.990000e+02 1.342152e-27
6.000000e+02 1.603656e-27
6.010000e+02 1.914949e-27
6.020000e+02 2.285290e-27
6.030000e+02 2.725617e-27
6.040000e+02 3.248845e-27
6.050000e+02 3.870215e-27
6.060000e+02 4.607701e-27
6.070000e+02 5.482494e-27
6.080000e+02 6.519553e-27
6.090000e+02 7.748264e-27
6.100000e+02 9.203210e-27
6.110000e+02 1.092506e-26
6.120000e+02 1.296161e-26
6.130000e+02 1.536903e-26
6.140000e+02 1.821323e-26
6.150000e+02 2.157157e-26
6.160000e+02 2.553480e-26
6.170000e+02 3.020924e-26
6.180000e+02 3.571950e-26
6.190000e+02 4.221143e-26
6.200000e+02 4.985573e-26
6.210000e+02 5.885207e-26
6.220000e+02 6.943383e-26
6.230000e+02 8.187369e-26
6.240000e+02 9.649007e-26
6.250000e+02 1.136546e-25
6.260000e+02 1.338008e-25
6.270000e+02 1.574341e-25
6.280000e+02 1.851434e-25
6.290000e+02 2.176149e-25
6.300000e+02 2.556469e-25
6.310000e+02 3.001686e-25
6.320000e+02 3.522605e-25
6.330000e+02 4.131784e-25
6.340000e+02 4.843813e-25
6.350000e+02 5.675631e-25
6.360000e+02 6.646901e-25
6.370000e+02 7.780428e-25
6.380000e+02 9.102655e-25
6.390000e+02 1.064422e-24
6.400000e+02 1.244063e-24
6.410000e+02 1.453295e-24
6.420000e+02 1.696875e-24
6.430000e+02 1.980302e-24
6.440000e+02 2.309932e-24
6.450000e+02 2.693113e-24
6.460000e+02 3.138328e-24
6.470000e+02 3.655371e-24
6.480000e+02 4.255543e-24
6.490000e+02 4.951878e-24
6.500000e+02 5.759400e-24
6.510000e+02 6.695420e-24
6.520000e+02 7.779876e-24
6.530000e+02 9.035719e-24
6.540000e+02 1.048936e-23
6.550000e+02 1.217117e-23
6.560000e+02 1.411607e-23
6.570000e+02 1.636417e-23
6.580000e+02 1.896158e-23
6.590000e+02 2.196117e-23
6.600000e+02 2.542367e-23
6.610000e+02 2.941872e-23
6.620000e+02 3.402615e-23
6.630000e+02 3.933745e-23
6.640000e+02 4.545744e-23
6.650000e+02 5.250613e-23
6.660000e+02 6.062086e-23
6.670000e+02 6.995877e-23
6.680000e+02 8.069954e-23
6.690000e+02 9.304855e-23
6.700000e+02 1.072405e-22
6.710000e+02 1.235433e-22
6.720000e+02 1.422631e-22
6.730000e+02 1.637488e-22
6.740000e+02 1.883988e-22
6.750000e+02 2.166670e-22
6.760000e+02 2.490709e-22
6.770000e+02 2.862001e-22
6.780000e+02 3.287257e-22
6.790000e+02 3.774121e-22
6.800000e+02 4.331284e-22
6.810000e+02 4.968637e-22
6.820000e+02 5.697422e-22
6.830000e+02 6.530415e-22
6.840000e+02 7.482130e-22
6.850000e+02 8.569047e-22
6.860000e+02 9.809875e-22
6.870000e+02 1.122584e-21
6.880000e+02 1.284102e-21
6.890000e+02 1.468270e-21
6.900000e+02 1.678182e-21
6.910000e+02 1.917343e-21
6.920000e+02 2.189721e-21
6.930000e+02 2.499808e-21
6.940000e+02 2.852688e-21
6.950000e+02 3.254111e-21
6.960000e+02 3.710579e-21
6.970000e+02 4.229440e-21
6.980000e+02 4.818999e-21
6.990000e+02 5.488632e-21
7.000000e+02 6.248929e-21
7.010000e+02 7.111837e-21
7.020000e+02 8.090839e-21
7.030000e+02 9.201140e-21
7.040000e+02 1.045988e-20
7.050000e+02 1.188637e-20
7.060000e+02 1.350238e-20
7.070000e+02 1.533240e-20
7.080000e+02 1.740404e-20
7.090000e+02 1.974832e-20
7.100000e+02 2.240018e-20
7.110000e+02 2.539888e-20
7.120000e+02 2.878857e-20
7.130000e+02 3.261885e-20
7.140000e+02 3.694546e-20
7.150000e+02 4.183096e-20
7.160000e+02 4.734561e-20
7.170000e+02 5.356825e-20
7.180000e+02 6.058728e-20
7.190000e+02 6.850190e-20
7.200000e+02 7.742325e-20
7.210000e+02 8.747593e-20
7.220000e+02 9.879948e-20
7.230000e+02 1.115502e-19
7.240000e+02 1.259031e-19
7.250000e+02 1.420539e-19
7.260000e+02 1.602217e-19
7.270000e+02 1.806515e-19
7.280000e+02 2.036173e-19
7.290000e+02 2.294252e-19
7.300000e+02 2.584172e-19
7.310000e+02 2.909754e-19
7.320000e+02 3.275264e-19
7.330000e+02 3.685462e-19
7.340000e+02 4.145664e-19
7.350000e+02 4.661793e-19
7.360000e+02 5.240461e-19
7.370000e+02 5.889034e-19
7.380000e+02 6.615723e-19
7.390000e+02 7.429675e-19
7.400000e+02 8.341078e-19
7.410000e+02 9.361273e-19
7.420000e+02 1.050289e-18
7.430000e+02 1.177996e-18
7.440000e+02 1.320813e-18
7.450000e+02 1.480476e-18
7.460000e+02 1.658917e-18
7.470000e+02 1.858282e-18
7.480000e+02 2.080957e-18
7.490000e+02 2.329589e-18
7.500000e+02 2.607120e-18
7.510000e+02 2.916813e-18
7.520000e+02 3.262292e-18
7.530000e+02 3.647573e-18
7.540000e+02 4.077113e-18
7.550000e+02 4.555852e-18
7.560000e+02 5.089266e-18
7.570000e+02 5.683421e-18
7.580000e+02 6.345038e-18
7.590000e+02 7.081558e-18
7.600000e+02 7.901218e-18
7.610000e+02 8.813139e-18
7.620000e+02 9.827406e-18
7.630000e+02 1.095518e-17
7.640000e+02 1.220879e-17
7.650000e+02 1.360189e-17
7.660000e+02 1.514955e-17
7.670000e+02 1.686842e-17
7.680000e+02 1.877689e-17
7.690000e+02 2.089529e-17
7.700000e+02 2.324603e-17
7.710000e+02 2.585386e-17
7.720000e+02 2.874609e-17
7.730000e+02 3.195283e-17
7.740000e+02 3.550729e-17
7.750000e+02 3.944609e-17
7.760000e+02 4.380958e-17
7.770000e+02 4.864220e-17
7.780000e+02 5.399294e-17
7.790000e+02 5.991572e-17
7.800000e+02 6.646991e-17
7.810000e+02 7.372086e-17
7.820000e+02 8.174048e-17
7.830000e+02 9.060785e-17
7.840000e+02 1.004100e-16
7.850000e+02 1.112425e-16
7.860000e+02 1.232105e-16
7.870000e+02 1.364296e-16
7.880000e+02 1.510266e-16
7.890000e+02 1.671410e-16
7.900000e+02 1.849259e-16
7.910000e+02 2.045492e-16
7.920000e+02 2.261955e-16
7.930000e+02 2.500669e-16
7.940000e+02 2.763857e-16
7.950000e+02 3.053950e-16
7.960000e+02 3.373619e-16
7.970000e+02 3.725788e-16
7.980000e+02 4.113664e-16
7.990000e+02 4.540759e-16
8.000000e+02 5.010920e-16
8.010000e+02 5.528359e-16
8.020000e+02 6.097687e-16
8.030000e+02 6.723953e-16
8.040000e+02 7.412679e-16
8.050000e+02 8.169908e-16
8.060000e+02 9.002248e-16
8.070000e+02 9.916925e-16
8.080000e+02 1.092184e-15
8.090000e+02 1.202562e-15
8.100000e+02 1.323770e-15
8.110000e+02 1.456839e-15
8.120000e+02 1.602895e-15
8.130000e+02 1.763165e-15
8.140000e+02 1.938991e-15
8.150000e+02 2.131838e-15
8.160000e+02 2.343303e-15
8.170000e+02 2.575128e-15
8.180000e+02 2.829213e-15
8.190000e+02 3.107632e-15
8.200000e+02 3.412643e-15
8.210000e+02 3.746708e-15
8.220000e+02 4.112509e-15
8.230000e+02 4.512970e-15
8.240000e+02 4.951272e-15
8.250000e+02 5.430883e-15
8.260000e+02 5.955574e-15
8.270000e+02 6.529453e-15
8.280000e+02 7.156987e-15
8.290000e+02 7.843040e-15
8.300000e+02 8.592898e-15
8.310000e+02 9.412311e-15
8.320000e+02 1.030753e-14
8.330000e+02 1.128535e-14
8.340000e+02 1.235316e-14
8.350000e+02 1.351898e-14
8.360000e+02 1.479153e-14
8.370000e+02 1.618027e-14
8.380000e+02 1.769547e-14
8.390000e+02 1.934830e-14
8.400000e+02 2.115087e-14
8.410000e+02 2.311630e-14
8.420000e+02 2.525887e-14
8.430000e+02 2.759402e-14
8.440000e+02 3.013853e-14
8.450000e+02 3.291057e-14
8.460000e+02 3.592985e-14
8.470000e+02 3.921771e-14
8.480000e+02 4.279731e-14
8.490000e+02 4.669370e-14
8.500000e+02 5.093404e-14
8.510000e+02 5.554772e-14
8.520000e+02 6.056656e-14
8.530000e+02 6.602501e-14
8.540000e+02 7.196036e-14
8.550000e+02 7.841294e-14
8.560000e+02 8.542640e-14
8.570000e+02 9.304792e-14
8.580000e+02 1.013285e-13
8.590000e+02 1.103234e-13
8.600000e+02 1.200922e-13
8.610000e+02 1.306993e-13
8.620000e+02 1.422144e-13
8.630000e+02 1.547128e-13
8.640000e+02 1.682755e-13
8.650000e+02 1.829905e-13
8.660000e+02 1.989524e-13
8.670000e+02 2.162634e-13
8.680000e+02 2.350340e-13
8.690000e+02 2.553831e-13
8.700000e+02 2.774392e-13
8.710000e+02 3.013408e-13
8.720000e+02 3.272375e-13
8.730000e+02 3.552902e-13
8.740000e+02 3.856726e-13
8.750000e+02 4.185719e-13
8.760000e+02 4.541898e-13
8.770000e+02 4.927435e-13
8.780000e+02 5.344673e-13
8.790000e+02 5.796130e-13
8.800000e+02 6.284523e-13
8.810000e+02 6.812774e-13
8.820000e+02 7.384027e-13
8.830000e+02 8.001670e-13
8.840000e+02 8.669345e-13
8.850000e+02 9.390971e-13
8.860000e+02 1.017076e-12
8.870000e+02 1.101326e-12
8.880000e+02 1.192332e-12
8.890000e+02 1.290620e-12
8.900000e+02 1.396753e-12
8.910000e+02 1.511336e-12
8.920000e+02 1.635020e-12
8.930000e+02 1.768503e-12
8.940000e+02 1.912535e-12
8.950000e+02 2.067924e-12
8.960000e+02 2.235533e-12
8.970000e+02 2.416292e-12
8.980000e+02 2.611199e-12
8.990000e+02 2.821323e-12
9.000000e+02 3.047813e-12
9.010000e+02 3.291900e-12
9.020000e+02 3.554907e-12
9.030000e+02 3.838249e-12
9.040000e+02 4.143446e-12
9.050000e+02 4.472127e-12
9.060000e+02 4.826038e-12
9.070000e+02 5.207051e-12
9.080000e+02 5.617170e-12
9.090000e+02 6.058544e-12
9.100000e+02 6.533473e-12
9.110000e+02 7.044422e-12
9.120000e+02 7.594030e-12
9.130000e+02 8.185122e-12
9.140000e+02 8.952727e-12
9.150000e+02 2.191271e-09
9.160000e+02 1.538839e-08
9.170000e+02 9.316663e-10
9.180000e+02 2.857010e-09
9.190000e+02 4.461526e-08
9.200000e+02 1.299604e-07
9.210000e+02 1.481872e-11
9.220000e+02 1.199259e-07
9.230000e+02 6.534347e-10
9.240000e+02 1.604704e-09
9.250000e+02 2.578074e-08
9.260000e+02 4.322493e-09
9.270000e+02 1.582087e-09
9.280000e+02 8.534853e-07
9.290000e+02 8.160622e-07
9.300000e+02 1.693414e-07
9.310000e+02 1.431486e-09
9.320000e+02 6.482273e-07
9.330000e+02 2.330825e-07
9.340000e+02 5.364802e-08
9.350000e+02 1.346969e-09
9.360000e+02 6.329171e-09
9.370000e+02 4.198490e-10
9.380000e+02 9.850943e-10
9.390000e+02 2.153733e-08
9.400000e+02 1.225953e-06
9.410000e+02 1.113118e-07
9.420000e+02 2.985475e-06
9.430000e+02 3.870923e-08
9.440000e+02 3.409585e-06
9.450000e+02 3.300800e-06
9.460000e+02 7.488411e-07
9.470000e+02 5.019274e-10
9.480000e+02 9.905875e-07
9.490000e+02 8.882411e-08
9.500000e+02 1.417226e-09
9.510000e+02 3.331922e-07
9.520000e+02 1.145437e-06
9.530000e+02 7.233751e-09
9.540000e+02 5.438237e-10
9.550000e+02 9.193354e-08
9.560000e+02 5.236998e-06
9.570000e+02 3.403534e-08
9.580000e+02 2.560796e-10
9.590000e+02 3.824601e-06
9.600000e+02 3.468273e-09
9.610000e+02 1.396569e-06
9.620000e+02 4.487333e-07
9.630000e+02 4.204821e-08
9.640000e+02 9.521528e-09
9.650000e+02 1.948592e-09
9.660000e+02 9.936639e-08
9.670000e+02 1.319972e-08
9.680000e+02 8.933966e-09
9.690000e+02 6.330033e-07
9.700000e+02 9.616533e-07
9.710000e+02 2.138390e-08
9.720000e+02 5.255810e-09
9.730000e+02 1.862421e-08
9.740000e+02 5.052547e-07
9.750000e+02 2.208032e-07
9.760000e+02 6.780826e-06
9.770000e+02 4.919221e-06
9.780000e+02 2.259039e-06
9.790000e+02 2.130115e-05
9.800000e+02 2.202630e-05
9.810000e+02 1.258491e-06
9.820000e+02 1.781855e-07
9.830000e+02 2.421850e-05
9.840000e+02 5.539555e-07
9.850000e+02 4.781643e-07
9.860000e+02 7.976261e-07
9.870000e+02 2.750932e-05
9.880000e+02 7.148628e-09
9.890000e+02 8.345162e-06
9.900000e+02 1.768080e-05
9.910000e+02 1.989226e-07
9.920000e+02 2.174821e-09
9.930000e+02 4.502639e-05
9.940000e+02 3.188688e-09
9.950000e+02 1.724984e-06
9.960000e+02 3.682544e-08
9.970000e+02 1.313143e-06
9.980000e+02 2.729330e-05
9.990000e+02 3.141568e-07
1.000000e+03 7.906613e-05
1.001000e+03 6.770928e-05
1.002000e+03 7.355510e-05
1.003000e+03 3.183595e-07
1.004000e+03 1.123408e-08
1.005000e+03 1.569184e-06
1.006000e+03 7.068986e-05
1.007000e+03 9.313406e-05
1.008000e+03 4.946208e-05
1.009000e+03 4.694446e-07
1.010000e+03 4.857888e-05
1.011000e+03 5.533033e-05
1.012000e+03 6.597848e-05
1.013000e+03 6.483447e-05
1.014000e+03 8.451025e-09
1.015000e+03 2.449087e-08
1.016000e+03 2.009619e-06
1.017000e+03 8.891220e-09
1.018000e+03 4.729518e-07
1.019000e+03 2.111483e-08
1.020000e+03 6.409459e-05
1.021000e+03 1.099444e-06
1.022000e+03 1.620279e-06
1.023000e+03 6.821028e-08
1.024000e+03 4.213075e-06
1.025000e+03 1.396859e-08
1.026000e+03 2.077458e-08
1.027000e+03 1.654327e-06
1.028000e+03 1.218814e-07
1.029000e+03 1.858643e-08
1.030000e+03 7.445698e-06
1.031000e+03 2.344875e-05
1.032000e+03 1.922391e-04
1.033000e+03 1.367953e-06
1.034000e+03 2.884240e-05
1.035000e+03 7.818744e-08
1.036000e+03 3.215973e-08
1.037000e+03 3.151420e-04
1.038000e+03 1.084496e-03
1.039000e+03 3.776655e-04
1.040000e+03 2.865172e-04
1.041000e+03 1.254469e-03
1.042000e+03 1.068445e-03
1.043000e+03 8.862233e-04
1.044000e+03 2.198786e-03
1.045000e+03 7.979904e-08
1.046000e+03 2.935015e-04
1.047000e+03 1.099611e-04
1.048000e+03 1.021574e-06
1.049000e+03 9.628572e-05
1.050000e+03 1.653394e-05
1.051000e+03 7.802504e-06
1.052000e+03 1.632368e-03
1.053000e+03 2.332002e-03
1.054000e+03 7.869676e-08
1.055000e+03 2.467956e-03
1.056000e+03 2.874436e-03
1.057000e+03 3.699994e-04
1.058000e+03 7.405481e-06
1.059000e+03 5.380018e-06
1.060000e+03 1.525390e-06
1.061000e+03 8.390853e-04
1.062000e+03 3.721247e-06
1.063000e+03 1.481260e-04
1.064000e+03 1.941808e-07
1.065000e+03 1.415610e-07
1.066000e+03 1.122070e-03
1.067000e+03 6.390528e-06
1.068000e+03 5.858238e-03
1.069000e+03 1.240746e-06
1.070000e+03 1.052232e-04
1.071000e+03 2.823536e-03
1.072000e+03 6.925435e-03
1.073000e+03 2.761371e-07
1.074000e+03 4.429192e-04
1.075000e+03 2.231086e-04
1.076000e+03 7.050431e-03
1.077000e+03 3.472611e-06
1.078000e+03 1.110975e-05
1.079000e+03 6.911785e-05
1.080000e+03 4.267469e-04
1.081000e+03 3.285783e-03
1.082000e+03 1.629297e-03
1.083000e+03 7.313695e-04
1.084000e+03 1.346278e-02
1.085000e+03 1.144363e-04
1.086000e+03 1.177720e-02
1.087000e+03 1.751166e-05
1.088000e+03 1.545542e-02
1.089000e+03 1.635301e-02
1.090000e+03 8.678992e-05
1.091000e+03 1.534615e-04
1.092000e+03 1.623426e-02
1.093000e+03 1.892477e-02
1.094000e+03 1.705216e-03
1.095000e+03 2.158503e-02
1.096000e+03 6.262672e-04
1.097000e+03 1.178833e-02
1.098000e+03 2.137146e-02
1.099000e+03 3.654100e-04
1.100000e+03 3.367430e-06
1.101000e+03 1.177723e-05
1.102000e+03 2.611740e-04
1.103000e+03 2.757303e-02
1.104000e+03 2.893166e-02
1.105000e+03 3.008487e-02
1.106000e+03 1.769001e-03
1.107000e+03 7.918105e-06
1.108000e+03 1.528769e-02
1.109000e+03 1.334473e-04
1.110000e+03 3.446204e-02
1.111000e+03 2.889835e-02
1.112000e+03 6.871883e-03
1.113000e+03 2.514023e-02
1.114000e+03 3.321572e-03
1.115000e+03 1.416223e-04
1.116000e+03 3.905494e-05
1.117000e+03 3.850404e-02
1.118000e+03 2.390966e-04
1.119000e+03 6.980881e-03
1.120000e+03 7.139146e-05
1.121000e+03 3.201859e-02
1.122000e+03 6.601782e-02
1.123000e+03 6.135340e-02
1.124000e+03 7.513618e-02
1.125000e+03 4.291964e-02
1.126000e+03 8.832549e-02
1.127000e+03 4.490940e-02
1.128000e+03 5.073308e-02
1.129000e+03 2.172630e-02
1.130000e+03 6.163626e-02
1.131000e+03 5.057378e-02
1.132000e+03 1.313728e-04
1.133000e+03 1.869671e-03
1.134000e+03 2.761073e-02
1.135000e+03 4.826288e-02
1.136000e+03 3.842209e-03
1.137000e+03 4.431687e-02
1.138000e+03 2.056882e-02
1.139000e+03 5.488420e-02
1.140000e+03 5.102261e-02
1.141000e+03 5.377488e-02
1.142000e+03 5.433968e-02
1.143000e+03 2.108635e-02
1.144000e+03 5.391897e-02
1.145000e+03 7.442757e-05
1.146000e+03 5.714380e-02
1.147000e+03 5.665700e-02
1.148000e+03 7.804893e-04
1.149000e+03 4.788729e-02
1.150000e+03 4.365596e-02
1.151000e+03 5.529891e-02
1.152000e+03 4.742737e-02
1.153000e+03 5.350284e-02
1.154000e+03 5.412486e-02
1.155000e+03 4.511839e-02
1.156000e+03 4.087177e-02
1.157000e+03 4.907450e-02
1.158000e+03 2.343712e-02
1.159000e+03 5.091993e-02
1.160000e+03 2.998654e-02
1.161000e+03 4.690091e-02
1.162000e+03 3.697518e-03
1.163000e+03 1.427242e-02
1.164000e+03 1.212861e-04
1.165000e+03 2.632738e-02
1.166000e+03 1.430326e-02
1.167000e+03 9.853353e-03
1.168000e+03 5.363705e-02
1.169000e+03 5.510872e-02
1.170000e+03 9.536869e-03
1.171000e+03 2.574102e-02
1.172000e+03 1.910105e-02
1.173000e+03 1.812726e-02
1.174000e+03 5.100556e-04
1.175000e+03 8.907914e-05
1.176000e+03 3.666524e-05
1.177000e+03 7.037833e-02
1.178000e+03 6.674497e-02
1.179000e+03 6.308603e-02
1.180000e+03 5.206174e-02
1.181000e+03 5.780765e-02
1.182000e+03 5.592745e-02
1.183000e+03 4.745203e-02
1.184000e+03 4.394939e-02
1.185000e+03 4.462867e-02
1.186000e+03 2.864679e-03
1.187000e+03 4.647679e-02
1.188000e+03 3.678657e-02
1.189000e+03 4.547469e-02
1.190000e+03 4.430114e-02
1.191000e+03 4.122577e-02
1.192000e+03 3.805032e-02
1.193000e+03 3.696810e-02
1.194000e+03 3.663609e-02
1.195000e+03 3.503993e-02
1.196000e+03 5.079810e-01
1.197000e+03 5.130945e-01
1.198000e+03 1.176515e-02
1.199000e+03 4.378828e-01
1.200000e+03 4.964480e-02
1.201000e+03 3.465094e-01
1.202000e+03 2.289814e-01
1.203000e+03 2.564338e-01
1.204000e+03 4.931655e-02
1.205000e+03 1.711990e-01
1.206000e+03 1.354259e-01
1.207000e+03 1.915727e-02
1.208000e+03 6.645798e-02
1.209000e+03 4.899236e-02
1.210000e+03 1.914743e-04
1.211000e+03 1.803965e-02
1.212000e+03 8.802046e-03
1.213000e+03 3.776567e-03
1.214000e+03 1.076452e-03
1.215000e+03 1.910608e-04
1.216000e+03 1.695551e-04
1.217000e+03 6.733062e-04
1.218000e+03 3.106363e-03
1.219000e+03 8.711920e-03
1.220000e+03 1.554588e-02
1.221000e+03 3.787927e-02
1.222000e+03 6.485266e-02
1.223000e+03 9.430686e-02
1.224000e+03 1.385724e-01
1.225000e+03 1.946473e-02
1.226000e+03 2.970054e-01
1.227000e+03 4.023116e-01
1.228000e+03 1.920201e-01
1.229000e+03 6.174345e-01
1.230000e+03 5.618913e-01
1.231000e+03 1.107444e-01
1.232000e+03 1.053620e+00
1.233000e+03 1.223253e+00
1.234000e+03 1.159928e+00
1.235000e+03 1.509387e+00
1.236000e+03 4.416270e-01
1.237000e+03 1.868024e+00
1.238000e+03 2.013257e+00
1.239000e+03 1.705478e+00
1.240000e+03 5.509353e-01
1.241000e+03 1.918323e+00
1.242000e+03 2.566438e+00
1.243000e+03 2.855920e+00
1.244000e+03 3.039985e+00
1.245000e+03 3.160210e+00
1.246000e+03 2.997032e+00
1.247000e+03 3.337255e+00
1.248000e+03 2.886488e+00
1.249000e+03 3.859058e+00
1.250000e+03 2.963818e+00
1.251000e+03 4.152318e+00
1.252000e+03 4.013929e+00
1.253000e+03 4.388942e+00
1.254000e+03 4.282061e+00
1.255000e+03 1.165224e+00
1.256000e+03 3.643015e+00
1.257000e+03 2.771499e+00
1.258000e+03 3.682653e+00
1.259000e+03 4.223600e+00
1.260000e+03 5.071273e+00
1.261000e+03 1.059222e-01
1.262000e+03 5.277208e+00
1.263000e+03 5.131903e+00
1.264000e+03 4.196350e+00
1.265000e+03 3.212326e+00
1.266000e+03 6.247569e+00
1.267000e+03 5.961152e+00
