# wavelength_A flux
5.000000e+02 0.000000e+00
5.010000e+02 0.000000e+00
5.020000e+02 0.000000e+00
5.030000e+02 0.000000e+00
5.040000e+02 0.000000e+00
5.050000e+02 0.000000e+00
5.060000e+02 0.000000e+00
5.070000e+02 0.000000e+00
5.080000e+02 0.000000e+00
5.090000e+02 1.401298e-45
5.100000e+02 1.401298e-45
5.110000e+02 1.401298e-45
5.120000e+02 1.401298e-45
5.130000e+02 2.802597e-45
5.140000e+02 2.802597e-45
5.150000e+02 4.203895e-45
5.160000e+02 5.605194e-45
5.170000e+02 7.006492e-45
5.180000e+02 9.809089e-45
5.190000e+02 1.261169e-44
5.200000e+02 1.681558e-44
5.210000e+02 2.242078e-44
5.220000e+02 2.942727e-44
5.230000e+02 3.923636e-44
5.240000e+02 5.184804e-44
5.250000e+02 6.866362e-44
5.260000e+02 8.968310e-44
5.270000e+02 1.177091e-43
5.280000e+02 1.555441e-43
5.290000e+02 2.031883e-43
5.300000e+02 2.662467e-43
5.310000e+02 3.489233e-43
5.320000e+02 4.554220e-43
5.330000e+02 5.955518e-43
5.340000e+02 7.763193e-43
5.350000e+02 1.011737e-42
5.360000e+02 1.318622e-42
5.370000e+02 1.647927e-42
5.380000e+02 2.228065e-42
5.390000e+02 2.893681e-42
5.400000e+02 3.754079e-42
5.410000e+02 4.863907e-42
5.420000e+02 6.297435e-42
5.430000e+02 8.144347e-42
5.440000e+02 1.052375e-41
5.450000e+02 1.358559e-41
5.460000e+02 1.752184e-41
5.470000e+02 2.257772e-41
5.480000e+02 2.906433e-41
5.490000e+02 3.738104e-41
5.500000e+02 4.803371e-41
5.510000e+02 6.166554e-41
5.520000e+02 7.909209e-41
5.530000e+02 1.013545e-40
5.540000e+02 1.297644e-40
5.550000e+02 1.659908e-40
5.560000e+02 2.121412e-40
5.570000e+02 2.708836e-40
5.580000e+02 3.455868e-40
5.590000e+02 4.405052e-40
5.600000e+02 5.610056e-40
5.610000e+02 7.138509e-40
5.620000e+02 9.075552e-40
5.630000e+02 1.152831e-39
5.640000e+02 1.463150e-39
5.650000e+02 1.855424e-39
5.660000e+02 2.350881e-39
5.670000e+02 2.976142e-39
5.680000e+02 3.764556e-39
5.690000e+02 4.757875e-39
5.700000e+02 6.008319e-39
5.710000e+02 7.581163e-39
5.720000e+02 9.557915e-39
5.730000e+02 1.204029e-38
5.740000e+02 1.515510e-38
5.750000e+02 1.906034e-38
5.760000e+02 2.395309e-38
5.770000e+02 3.007850e-38
5.780000e+02 3.773880e-38
5.790000e+02 4.731261e-38
5.800000e+02 5.926852e-38
5.810000e+02 7.418757e-38
5.820000e+02 9.278935e-38
5.830000e+02 1.159626e-37
5.840000e+02 1.447102e-37
5.850000e+02 1.806854e-37
5.860000e+02 2.253362e-37
5.870000e+02 2.807671e-37
5.880000e+02 3.495651e-37
5.890000e+02 4.348929e-37
5.900000e+02 5.406443e-37
5.910000e+02 6.716110e-37
5.920000e+02 8.336862e-37
5.930000e+02 1.034112e-36
5.940000e+02 1.281784e-36
5.950000e+02 1.587615e-36
5.960000e+02 1.964991e-36
5.970000e+02 2.430316e-36
5.980000e+02 3.003675e-36
5.990000e+02 3.709649e-36
6.000000e+02 4.578296e-36
6.010000e+02 5.646349e-36
6.020000e+02 6.958663e-36
6.030000e+02 8.569975e-36
6.040000e+02 1.054704e-35
6.050000e+02 1.297120e-35
6.060000e+02 1.594153e-35
6.070000e+02 1.957859e-35
6.080000e+02 2.402901e-35
6.090000e+02 2.947100e-35
6.100000e+02 3.612101e-35
6.110000e+02 4.424173e-35
6.120000e+02 5.415183e-35
6.130000e+02 6.623755e-35
6.140000e+02 8.096681e-35
6.150000e+02 9.890600e-35
6.160000e+02 1.207404e-34
6.170000e+02 1.472985e-34
6.180000e+02 1.795813e-34
6.190000e+02 2.187974e-34
6.200000e+02 2.664054e-34
6.210000e+02 3.241642e-34
6.220000e+02 3.941934e-34
6.230000e+02 4.790463e-34
6.240000e+02 5.817958e-34
6.250000e+02 7.061387e-34
6.260000e+02 8.565194e-34
6.270000e+02 1.038277e-33
6.280000e+02 1.257823e-33
6.290000e+02 1.522851e-33
6.300000e+02 1.842584e-33
6.310000e+02 2.225812e-33
6.320000e+02 2.692600e-33
6.330000e+02 3.251978e-33
6.340000e+02 3.925200e-33
6.350000e+02 4.734803e-33
6.360000e+02 5.708310e-33
6.370000e+02 6.877677e-33
6.380000e+02 8.281683e-33
6.390000e+02 9.966419e-33
6.400000e+02 1.198684e-32
6.410000e+02 1.440842e-32
6.420000e+02 1.730913e-32
6.430000e+02 2.078177e-32
6.440000e+02 2.493673e-32
6.450000e+02 2.990524e-32
6.460000e+02 3.584322e-32
6.470000e+02 4.293582e-32
6.480000e+02 5.140279e-32
6.490000e+02 6.150479e-32
6.500000e+02 7.355083e-32
6.510000e+02 8.790709e-32
6.520000e+02 1.050071e-31
6.530000e+02 1.253642e-31
6.540000e+02 1.495853e-31
6.550000e+02 1.783883e-31
6.560000e+02 2.126214e-31
6.570000e+02 2.532862e-31
6.580000e+02 3.015652e-31
6.590000e+02 3.588534e-31
6.600000e+02 4.267959e-31
6.610000e+02 5.073313e-31
6.620000e+02 6.027434e-31
6.630000e+02 7.157208e-31
6.640000e+02 8.494274e-31
6.650000e+02 1.007584e-30
6.660000e+02 1.194573e-30
6.670000e+02 1.415519e-30
6.680000e+02 1.676463e-30
6.690000e+02 1.984490e-30
6.700000e+02 2.347908e-30
6.710000e+02 2.776463e-30
6.720000e+02 3.281573e-30
6.730000e+02 3.876616e-30
6.740000e+02 4.577251e-30
6.750000e+02 5.401808e-30
6.760000e+02 6.371722e-30
6.770000e+02 7.512055e-30
6.780000e+02 8.852093e-30
6.790000e+02 1.042604e-29
6.800000e+02 1.227382e-29
6.810000e+02 1.444203e-29
6.820000e+02 1.698501e-29
6.830000e+02 1.996609e-29
6.840000e+02 2.345909e-29
6.850000e+02 2.754997e-29
6.860000e+02 3.233878e-29
6.870000e+02 3.794195e-29
6.880000e+02 4.449488e-29
6.890000e+02 5.215498e-29
6.900000e+02 6.110514e-29
6.910000e+02 7.155776e-29
6.920000e+02 8.375943e-29
6.930000e+02 9.799625e-29
6.940000e+02 1.146001e-28
6.950000e+02 1.339557e-28
6.960000e+02 1.565087e-28
6.970000e+02 1.827756e-28
6.980000e+02 2.133542e-28
6.990000e+02 2.489361e-28
7.000000e+02 2.903217e-28
7.010000e+02 3.384361e-28
7.020000e+02 3.943486e-28
7.030000e+02 4.592945e-28
7.040000e+02 5.347001e-28
7.050000e+02 6.222118e-28
7.060000e+02 7.237221e-28
7.070000e+02 8.414417e-28
7.080000e+02 9.778754e-28
7.090000e+02 1.135939e-27
7.100000e+02 1.318984e-27
7.110000e+02 1.530869e-27
7.120000e+02 1.776031e-27
7.130000e+02 2.059580e-27
7.140000e+02 2.387386e-27
7.150000e+02 2.766199e-27
7.160000e+02 3.203774e-27
7.170000e+02 3.709016e-27
7.180000e+02 4.292146e-27
7.190000e+02 4.964896e-27
7.200000e+02 5.740721e-27
7.210000e+02 6.635049e-27
7.220000e+02 7.665559e-27
7.230000e+02 8.852510e-27
7.240000e+02 1.021910e-26
7.250000e+02 1.179188e-26
7.260000e+02 1.360123e-26
7.270000e+02 1.568193e-26
7.280000e+02 1.807370e-26
7.290000e+02 2.082197e-26
7.300000e+02 2.397864e-26
7.310000e+02 2.760297e-26
7.320000e+02 3.176262e-26
7.330000e+02 3.653488e-26
7.340000e+02 4.200770e-26
7.350000e+02 4.828158e-26
7.360000e+02 5.547099e-26
7.370000e+02 6.370645e-26
7.380000e+02 7.313650e-26
7.390000e+02 8.393036e-26
7.400000e+02 9.628058e-26
7.410000e+02 1.104063e-25
7.420000e+02 1.265567e-25
7.430000e+02 1.450150e-25
7.440000e+02 1.661034e-25
7.450000e+02 1.901875e-25
7.460000e+02 2.176828e-25
7.470000e+02 2.490610e-25
7.480000e+02 2.848573e-25
7.490000e+02 3.256790e-25
7.500000e+02 3.722146e-25
7.510000e+02 4.252447e-25
7.520000e+02 4.856541e-25
7.530000e+02 5.544449e-25
7.540000e+02 6.327521e-25
7.550000e+02 7.218605e-25
7.560000e+02 8.232239e-25
7.570000e+02 9.384870e-25
7.580000e+02 1.069511e-24
7.590000e+02 1.218397e-24
7.600000e+02 1.387522e-24
7.610000e+02 1.579571e-24
7.620000e+02 1.797575e-24
7.630000e+02 2.044957e-24
7.640000e+02 2.325581e-24
7.650000e+02 2.643800e-24
7.660000e+02 3.004538e-24
7.670000e+02 3.413329e-24
7.680000e+02 3.876420e-24
7.690000e+02 4.400803e-24
7.700000e+02 4.994537e-24
7.710000e+02 5.666411e-24
7.720000e+02 6.426514e-24
7.730000e+02 7.286147e-24
7.740000e+02 8.258024e-24
7.750000e+02 9.356438e-24
7.760000e+02 1.059746e-23
7.770000e+02 1.199914e-23
7.780000e+02 1.358178e-23
7.790000e+02 1.536815e-23
7.800000e+02 1.738383e-23
7.810000e+02 1.965752e-23
7.820000e+02 2.222144e-23
7.830000e+02 2.511171e-23
7.840000e+02 2.836884e-23
7.850000e+02 3.203823e-23
7.860000e+02 3.617076e-23
7.870000e+02 4.082345e-23
7.880000e+02 4.606010e-23
7.890000e+02 5.195218e-23
7.900000e+02 5.857968e-23
7.910000e+02 6.603209e-23
7.920000e+02 7.440912e-23
7.930000e+02 8.382376e-23
7.940000e+02 9.440026e-23
7.950000e+02 1.062786e-22
7.960000e+02 1.196150e-22
7.970000e+02 1.345839e-22
7.980000e+02 1.513802e-22
7.990000e+02 1.702214e-22
8.000000e+02 1.913500e-22
8.010000e+02 2.150367e-22
8.020000e+02 2.415834e-22
8.030000e+02 2.713266e-22
8.040000e+02 3.046414e-22
8.050000e+02 3.418378e-22
8.060000e+02 3.837053e-22
8.070000e+02 4.304388e-22
8.080000e+02 4.827231e-22
8.090000e+02 5.412008e-22
8.100000e+02 6.065868e-22
8.110000e+02 6.796762e-22
8.120000e+02 7.613535e-22
8.130000e+02 8.526016e-22
8.140000e+02 9.545130e-22
8.150000e+02 1.068303e-21
8.160000e+02 1.195318e-21
8.170000e+02 1.337058e-21
8.180000e+02 1.495184e-21
8.190000e+02 1.671543e-21
8.200000e+02 1.868182e-21
8.210000e+02 2.087372e-21
8.220000e+02 2.331633e-21
8.230000e+02 2.603758e-21
8.240000e+02 2.906844e-21
8.250000e+02 3.244319e-21
8.260000e+02 3.619986e-21
8.270000e+02 4.038053e-21
8.280000e+02 4.503181e-21
8.290000e+02 5.020529e-21
8.300000e+02 5.595806e-21
8.310000e+02 6.235328e-21
8.320000e+02 6.946084e-21
8.330000e+02 7.735796e-21
8.340000e+02 8.613008e-21
8.350000e+02 9.587044e-21
8.360000e+02 1.066868e-20
8.370000e+02 1.186908e-20
8.380000e+02 1.320111e-20
8.390000e+02 1.467879e-20
8.400000e+02 1.631765e-20
8.410000e+02 1.813479e-20
8.420000e+02 2.014910e-20
8.430000e+02 2.238138e-20
8.440000e+02 2.485463e-20
8.450000e+02 2.759413e-20
8.460000e+02 3.062783e-20
8.470000e+02 3.398598e-20
8.480000e+02 3.770349e-20
8.490000e+02 4.181730e-20
8.500000e+02 4.636656e-20
8.510000e+02 5.140096e-20
8.520000e+02 5.696393e-20
8.530000e+02 6.311819e-20
8.540000e+02 6.991738e-20
8.550000e+02 7.742992e-20
8.560000e+02 8.572868e-20
8.570000e+02 9.489368e-20
8.580000e+02 1.050115e-19
8.590000e+02 1.161830e-19
8.600000e+02 1.285100e-19
8.610000e+02 1.421111e-19
8.620000e+02 1.571138e-19
8.630000e+02 1.736587e-19
8.640000e+02 1.918940e-19
8.650000e+02 2.120074e-19
8.660000e+02 2.341658e-19
8.670000e+02 2.585795e-19
8.680000e+02 2.854712e-19
8.690000e+02 3.150858e-19
8.700000e+02 3.476540e-19
8.710000e+02 3.835818e-19
8.720000e+02 4.230705e-19
8.730000e+02 4.665353e-19
8.740000e+02 5.143368e-19
8.750000e+02 5.669061e-19
8.760000e+02 6.247045e-19
8.770000e+02 6.882408e-19
8.780000e+02 7.579958e-19
8.790000e+02 8.347811e-19
8.800000e+02 9.190509e-19
8.810000e+02 1.011597e-18
8.820000e+02 1.113254e-18
8.830000e+02 1.224813e-18
8.840000e+02 1.347200e-18
8.850000e+02 1.481632e-18
8.860000e+02 1.629034e-18
8.870000e+02 1.790706e-18
8.880000e+02 1.967968e-18
8.890000e+02 2.162339e-18
8.900000e+02 2.375399e-18
8.910000e+02 2.608863e-18
8.920000e+02 2.864656e-18
8.930000e+02 3.144848e-18
8.940000e+02 3.451680e-18
8.950000e+02 3.787691e-18
8.960000e+02 4.155494e-18
8.970000e+02 4.558043e-18
8.980000e+02 4.998490e-18
8.990000e+02 5.480419e-18
9.000000e+02 6.007491e-18
9.010000e+02 6.583900e-18
9.020000e+02 7.213963e-18
9.030000e+02 7.902142e-18
9.040000e+02 8.655502e-18
9.050000e+02 9.478357e-18
9.060000e+02 1.037700e-17
9.070000e+02 1.135848e-17
9.080000e+02 1.243024e-17
9.090000e+02 1.360035e-17
9.100000e+02 1.487758e-17
9.110000e+02 1.627122e-17
9.120000e+02 1.779232e-17
9.130000e+02 1.944979e-17
9.140000e+02 3.768814e-17
9.150000e+02 7.293437e-16
9.160000e+02 5.169715e-15
9.170000e+02 6.338596e-17
9.180000e+02 9.864708e-16
9.190000e+02 2.119635e-14
9.200000e+02 5.726211e-14
9.210000e+02 3.947549e-17
9.220000e+02 1.149804e-15
9.230000e+02 1.064878e-16
9.240000e+02 9.118818e-17
9.250000e+02 2.095497e-16
9.260000e+02 1.255009e-15
9.270000e+02 1.291690e-16
9.280000e+02 3.824779e-13
9.290000e+02 4.021530e-13
9.300000e+02 1.010019e-13
9.310000e+02 2.436667e-16
9.320000e+02 6.244212e-15
9.330000e+02 6.680718e-16
9.340000e+02 4.444314e-16
9.350000e+02 4.765948e-16
9.360000e+02 3.840244e-16
9.370000e+02 2.572642e-16
9.380000e+02 5.514330e-16
9.390000e+02 6.470255e-16
9.400000e+02 2.673402e-14
9.410000e+02 1.489605e-15
9.420000e+02 1.453266e-12
9.430000e+02 9.171808e-16
9.440000e+02 1.298330e-12
9.450000e+02 6.224197e-13
9.460000e+02 2.247779e-15
9.470000e+02 3.696583e-16
9.480000e+02 1.476257e-14
9.490000e+02 1.660632e-14
9.500000e+02 1.552004e-15
9.510000e+02 4.804669e-15
9.520000e+02 1.190952e-14
9.530000e+02 1.323890e-15
9.540000e+02 6.422831e-16
9.550000e+02 2.357137e-15
9.560000e+02 3.728035e-14
9.570000e+02 2.549435e-15
9.580000e+02 8.812425e-16
9.590000e+02 4.235850e-15
9.600000e+02 3.439795e-15
9.610000e+02 7.399300e-15
9.620000e+02 4.570802e-15
9.630000e+02 3.104310e-15
9.640000e+02 2.660390e-15
9.650000e+02 1.616434e-15
9.660000e+02 5.118507e-15
9.670000e+02 2.958589e-15
9.680000e+02 2.814026e-15
9.690000e+02 7.163135e-15
9.700000e+02 1.410793e-14
9.710000e+02 4.993331e-15
9.720000e+02 3.217256e-15
9.730000e+02 1.280536e-14
9.740000e+02 1.162723e-14
9.750000e+02 1.117615e-14
9.760000e+02 2.866183e-13
9.770000e+02 3.919263e-14
9.780000e+02 2.253510e-14
9.790000e+02 4.824747e-12
9.800000e+02 4.021917e-13
9.810000e+02 1.909887e-14
9.820000e+02 1.741921e-14
9.830000e+02 4.221668e-13
9.840000e+02 5.712770e-14
9.850000e+02 2.376514e-14
9.860000e+02 2.626888e-14
9.870000e+02 8.924871e-14
9.880000e+02 9.653946e-15
9.890000e+02 5.054329e-14
9.900000e+02 1.718485e-13
9.910000e+02 3.444881e-14
9.920000e+02 1.240766e-14
9.930000e+02 1.288334e-12
9.940000e+02 2.952993e-14
9.950000e+02 5.480464e-14
9.960000e+02 2.329036e-14
9.970000e+02 5.932715e-13
9.980000e+02 2.164085e-13
9.990000e+02 5.727755e-14
1.000000e+03 1.907013e-11
1.001000e+03 8.416251e-12
1.002000e+03 1.136020e-12
1.003000e+03 6.745364e-14
1.004000e+03 3.038108e-14
1.005000e+03 1.061738e-13
1.006000e+03 8.509901e-13
1.007000e+03 3.517847e-12
1.008000e+03 6.025388e-13
1.009000e+03 1.035357e-13
1.010000e+03 2.626046e-13
1.011000e+03 2.049803e-13
1.012000e+03 7.983949e-13
1.013000e+03 9.556885e-13
1.014000e+03 6.230731e-14
1.015000e+03 6.848740e-14
1.016000e+03 2.329257e-13
1.017000e+03 7.720593e-14
1.018000e+03 1.629010e-13
1.019000e+03 8.932048e-14
1.020000e+03 9.809653e-13
1.021000e+03 3.088602e-13
1.022000e+03 3.372207e-13
1.023000e+03 1.319097e-13
1.024000e+03 2.455868e-12
1.025000e+03 1.359140e-13
1.026000e+03 2.528727e-13
1.027000e+03 5.250183e-13
1.028000e+03 4.663366e-13
1.029000e+03 1.797170e-13
1.030000e+03 6.022249e-13
1.031000e+03 8.522384e-13
1.032000e+03 1.869104e-11
1.033000e+03 1.013115e-12
1.034000e+03 8.873980e-13
1.035000e+03 6.798761e-13
1.036000e+03 2.914829e-13
1.037000e+03 2.195501e-12
1.038000e+03 1.939934e-11
1.039000e+03 8.200208e-12
1.040000e+03 1.427179e-12
1.041000e+03 5.840348e-12
1.042000e+03 2.497549e-11
1.043000e+03 8.975596e-11
1.044000e+03 2.607966e-10
1.045000e+03 1.024566e-12
1.046000e+03 2.604361e-12
1.047000e+03 3.802153e-12
1.048000e+03 1.110418e-12
1.049000e+03 2.589020e-12
1.050000e+03 2.185582e-12
1.051000e+03 2.099262e-12
1.052000e+03 4.417541e-11
1.053000e+03 2.877358e-11
1.054000e+03 9.801389e-13
1.055000e+03 5.073342e-11
1.056000e+03 6.464337e-11
1.057000e+03 1.082823e-11
1.058000e+03 2.762223e-12
1.059000e+03 4.003207e-12
1.060000e+03 2.212654e-12
1.061000e+03 5.831013e-11
1.062000e+03 2.762180e-12
1.063000e+03 2.039346e-11
1.064000e+03 3.494760e-12
1.065000e+03 2.014147e-12
1.066000e+03 1.005881e-10
1.067000e+03 5.360993e-12
1.068000e+03 2.257852e-10
1.069000e+03 3.279235e-12
1.070000e+03 8.512718e-12
1.071000e+03 2.643073e-11
1.072000e+03 3.028455e-09
1.073000e+03 3.369482e-12
1.074000e+03 2.218224e-11
1.075000e+03 1.569656e-11
1.076000e+03 2.998922e-09
1.077000e+03 7.435497e-12
1.078000e+03 8.568507e-12
1.079000e+03 1.406061e-11
1.080000e+03 1.960090e-11
1.081000e+03 1.949706e-10
1.082000e+03 7.717177e-11
1.083000e+03 3.617640e-11
1.084000e+03 6.123485e-09
1.085000e+03 2.193051e-11
1.086000e+03 6.680242e-10
1.087000e+03 1.845402e-11
1.088000e+03 3.086707e-09
1.089000e+03 4.454722e-09
1.090000e+03 2.883942e-11
1.091000e+03 3.205969e-11
1.092000e+03 3.367085e-09
1.093000e+03 8.299497e-09
1.094000e+03 4.223369e-11
1.095000e+03 1.335719e-08
1.096000e+03 1.998780e-09
1.097000e+03 3.864700e-09
1.098000e+03 8.037320e-09
1.099000e+03 5.168665e-11
1.100000e+03 1.893459e-11
1.101000e+03 2.720536e-11
1.102000e+03 6.165110e-11
1.103000e+03 7.006160e-08
1.104000e+03 3.261389e-09
1.105000e+03 2.848486e-08
1.106000e+03 1.229736e-10
1.107000e+03 3.464715e-11
1.108000e+03 2.224456e-09
1.109000e+03 8.814149e-11
1.110000e+03 2.725904e-09
1.111000e+03 3.658151e-08
1.112000e+03 6.321265e-10
1.113000e+03 4.962466e-08
1.114000e+03 2.214369e-10
1.115000e+03 1.144181e-10
1.116000e+03 6.424034e-11
1.117000e+03 5.360706e-08
1.118000e+03 1.513509e-10
1.119000e+03 3.248231e-10
1.120000e+03 1.128830e-10
1.121000e+03 1.381407e-08
1.122000e+03 2.722707e-07
1.123000e+03 7.399632e-08
1.124000e+03 7.746620e-08
1.125000e+03 3.010147e-08
1.126000e+03 4.876101e-07
1.127000e+03 1.018157e-08
1.128000e+03 1.048856e-07
1.129000e+03 1.645866e-09
1.130000e+03 1.427186e-07
1.131000e+03 2.257233e-07
1.132000e+03 2.237377e-10
1.133000e+03 4.497309e-10
1.134000e+03 2.062399e-08
1.135000e+03 1.848466e-07
1.136000e+03 5.726246e-10
1.137000e+03 1.011190e-07
1.138000e+03 7.066525e-09
1.139000e+03 1.287259e-07
1.140000e+03 3.899047e-08
1.141000e+03 3.512180e-07
1.142000e+03 2.223272e-07
1.143000e+03 2.135749e-09
1.144000e+03 2.964374e-07
1.145000e+03 3.462333e-10
1.146000e+03 1.713812e-07
1.147000e+03 2.371981e-07
1.148000e+03 7.953460e-10
1.149000e+03 7.929482e-08
1.150000e+03 5.884087e-08
1.151000e+03 1.711029e-07
1.152000e+03 1.497867e-08
1.153000e+03 3.285418e-07
1.154000e+03 4.150044e-07
1.155000e+03 1.519891e-07
1.156000e+03 2.350304e-07
1.157000e+03 3.088488e-07
1.158000e+03 5.442587e-09
1.159000e+03 2.492723e-07
1.160000e+03 2.244357e-08
1.161000e+03 2.793239e-07
1.162000e+03 1.813387e-09
1.163000e+03 5.728410e-09
1.164000e+03 1.828131e-09
1.165000e+03 6.157888e-08
1.166000e+03 3.216294e-08
1.167000e+03 2.815887e-08
1.168000e+03 2.588028e-07
1.169000e+03 4.321937e-07
1.170000e+03 9.768822e-09
1.171000e+03 1.554454e-07
1.172000e+03 6.564750e-08
1.173000e+03 1.023769e-07
1.174000e+03 1.980557e-09
1.175000e+03 2.761674e-09
1.176000e+03 2.051988e-09
1.177000e+03 6.098251e-07
1.178000e+03 5.831923e-07
1.179000e+03 5.052407e-07
1.180000e+03 2.064614e-07
1.181000e+03 4.777567e-07
1.182000e+03 3.643420e-07
1.183000e+03 1.300733e-07
1.184000e+03 1.069481e-07
1.185000e+03 1.020410e-07
1.186000e+03 5.308563e-09
1.187000e+03 3.186757e-07
1.188000e+03 9.206605e-08
1.189000e+03 3.570654e-07
1.190000e+03 3.377457e-07
1.191000e+03 2.850324e-07
1.192000e+03 2.738987e-07
1.193000e+03 1.986347e-07
1.194000e+03 2.668949e-07
1.195000e+03 2.480598e-07
1.196000e+03 8.925634e-06
1.197000e+03 2.874026e-05
1.198000e+03 1.104360e-08
1.199000e+03 2.166292e-05
1.200000e+03 1.633168e-08
1.201000e+03 9.583932e-06
1.202000e+03 1.127497e-06
1.203000e+03 7.515950e-06
1.204000e+03 2.739506e-08
1.205000e+03 4.029329e-06
1.206000e+03 2.441131e-06
1.207000e+03 1.629883e-07
1.208000e+03 1.377026e-06
1.209000e+03 1.198891e-06
1.210000e+03 1.314342e-08
1.211000e+03 3.095953e-07
1.212000e+03 6.166944e-08
1.213000e+03 4.812923e-08
1.214000e+03 2.446738e-08
1.215000e+03 1.540472e-08
1.216000e+03 1.100426e-08
1.217000e+03 2.487637e-08
1.218000e+03 4.477652e-08
1.219000e+03 1.179636e-07
1.220000e+03 4.075846e-08
1.221000e+03 7.826933e-07
1.222000e+03 7.853588e-07
1.223000e+03 3.253946e-07
1.224000e+03 3.661536e-06
1.225000e+03 4.079857e-08
1.226000e+03 1.072955e-05
1.227000e+03 1.546900e-05
1.228000e+03 1.469398e-07
1.229000e+03 1.902488e-05
1.230000e+03 1.027160e-05
1.231000e+03 6.387199e-08
1.232000e+03 5.406041e-05
1.233000e+03 6.951363e-05
1.234000e+03 7.896529e-05
1.235000e+03 5.822762e-05
1.236000e+03 3.447312e-07
1.237000e+03 1.120755e-04
1.238000e+03 9.501422e-05
1.239000e+03 5.905786e-06
1.240000e+03 2.321019e-05
1.241000e+03 2.408298e-05
1.242000e+03 6.492576e-05
1.243000e+03 1.871230e-04
1.244000e+03 2.095494e-04
1.245000e+03 2.171476e-04
1.246000e+03 5.139849e-05
1.247000e+03 8.715791e-05
1.248000e+03 2.047547e-04
1.249000e+03 2.893053e-04
1.250000e+03 1.838153e-04
1.251000e+03 2.914416e-04
1.252000e+03 1.931308e-04
1.253000e+03 3.196511e-04
1.254000e+03 1.723606e-04
1.255000e+03 2.321722e-05
1.256000e+03 1.071102e-04
1.257000e+03 9.178681e-05
1.258000e+03 3.635374e-05
1.259000e+03 5.367852e-05
1.260000e+03 2.971693e-04
1.261000e+03 1.188368e-06
1.262000e+03 2.964025e-04
1.263000e+03 2.357984e-04
1.264000e+03 4.574467e-05
1.265000e+03 1.330224e-04
1.266000e+03 3.325870e-04
1.267000e+03 1.359657e-04
