# wavelength_A flux
5.000000e+02 1.658899e-01
5.010000e+02 1.824036e-01
5.020000e+02 2.004799e-01
5.030000e+02 2.202623e-01
5.040000e+02 2.419018e-01
5.050000e+02 2.698869e-01
5.060000e+02 2.961319e-01
5.070000e+02 3.248042e-01
5.080000e+02 3.561167e-01
5.090000e+02 3.903144e-01
5.100000e+02 4.276152e-01
5.110000e+02 4.683094e-01
5.120000e+02 5.126812e-01
5.130000e+02 5.610530e-01
5.140000e+02 6.137626e-01
5.150000e+02 6.711690e-01
5.160000e+02 7.336927e-01
5.170000e+02 8.017253e-01
5.180000e+02 8.757952e-01
5.190000e+02 9.563417e-01
5.200000e+02 1.043921e+00
5.210000e+02 1.139120e+00
5.220000e+02 1.242473e+00
5.230000e+02 1.354930e+00
5.240000e+02 1.476938e+00
5.250000e+02 1.609402e+00
5.260000e+02 1.753127e+00
5.270000e+02 1.909034e+00
5.280000e+02 2.078101e+00
5.290000e+02 2.261042e+00
5.300000e+02 2.459992e+00
5.310000e+02 2.675121e+00
5.320000e+02 2.908147e+00
5.330000e+02 3.160420e+00
5.340000e+02 3.433451e+00
5.350000e+02 3.728850e+00
5.360000e+02 4.048334e+00
5.370000e+02 4.355610e+00
5.380000e+02 4.767174e+00
5.390000e+02 5.170706e+00
5.400000e+02 5.606631e+00
5.410000e+02 6.077092e+00
5.420000e+02 6.585429e+00
5.430000e+02 7.133888e+00
5.440000e+02 7.725594e+00
5.450000e+02 8.363798e+00
5.460000e+02 9.051020e+00
5.470000e+02 9.793657e+00
5.480000e+02 1.059299e+01
5.490000e+02 1.145416e+01
5.500000e+02 1.238159e+01
5.510000e+02 1.338016e+01
5.520000e+02 1.445495e+01
5.530000e+02 1.561148e+01
5.540000e+02 1.685549e+01
5.550000e+02 1.819344e+01
5.560000e+02 1.963190e+01
5.570000e+02 2.117798e+01
5.580000e+02 2.283927e+01
5.590000e+02 2.462386e+01
5.600000e+02 2.654035e+01
5.610000e+02 2.859794e+01
5.620000e+02 3.080612e+01
5.630000e+02 3.317585e+01
5.640000e+02 3.571795e+01
5.650000e+02 3.844411e+01
5.660000e+02 4.136696e+01
5.670000e+02 4.450001e+01
5.680000e+02 4.785736e+01
5.690000e+02 5.145411e+01
5.700000e+02 5.530574e+01
5.710000e+02 5.943051e+01
5.720000e+02 6.384577e+01
5.730000e+02 6.857099e+01
5.740000e+02 7.362650e+01
5.750000e+02 7.903482e+01
5.760000e+02 8.480891e+01
5.770000e+02 9.099819e+01
5.780000e+02 9.760574e+01
5.790000e+02 1.046662e+02
5.800000e+02 1.122089e+02
5.810000e+02 1.202645e+02
5.820000e+02 1.288650e+02
5.830000e+02 1.380459e+02
5.840000e+02 1.478196e+02
5.850000e+02 1.582952e+02
5.860000e+02 1.694545e+02
5.870000e+02 1.813495e+02
5.880000e+02 1.940318e+02
5.890000e+02 2.075480e+02
5.900000e+02 2.219554e+02
5.910000e+02 2.373044e+02
5.920000e+02 2.536544e+02
5.930000e+02 2.710662e+02
5.940000e+02 2.896044e+02
5.950000e+02 3.093270e+02
5.960000e+02 3.303356e+02
5.970000e+02 3.526764e+02
5.980000e+02 3.764435e+02
5.990000e+02 4.017195e+02
6.000000e+02 4.285941e+02
6.010000e+02 4.571326e+02
6.020000e+02 4.875230e+02
6.030000e+02 5.197823e+02
6.040000e+02 5.540527e+02
6.050000e+02 5.904495e+02
6.060000e+02 6.290958e+02
6.070000e+02 6.701254e+02
6.080000e+02 7.136720e+02
6.090000e+02 7.598815e+02
6.100000e+02 8.089056e+02
6.110000e+02 8.609066e+02
6.120000e+02 9.160516e+02
6.130000e+02 9.745191e+02
6.140000e+02 1.036495e+03
6.150000e+02 1.102180e+03
6.160000e+02 1.171768e+03
6.170000e+02 1.245497e+03
6.180000e+02 1.323580e+03
6.190000e+02 1.406259e+03
6.200000e+02 1.493805e+03
6.210000e+02 1.586474e+03
6.220000e+02 1.684544e+03
6.230000e+02 1.788311e+03
6.240000e+02 1.898082e+03
6.250000e+02 2.014183e+03
6.260000e+02 2.136953e+03
6.270000e+02 2.266751e+03
6.280000e+02 2.403953e+03
6.290000e+02 2.548952e+03
6.300000e+02 2.702161e+03
6.310000e+02 2.863994e+03
6.320000e+02 3.034969e+03
6.330000e+02 3.215498e+03
6.340000e+02 3.406083e+03
6.350000e+02 3.607260e+03
6.360000e+02 3.816505e+03
6.370000e+02 4.043700e+03
6.380000e+02 4.280114e+03
6.390000e+02 4.529491e+03
6.400000e+02 4.792493e+03
6.410000e+02 5.069730e+03
6.420000e+02 5.362090e+03
6.430000e+02 5.670259e+03
6.440000e+02 5.995027e+03
6.450000e+02 6.337224e+03
6.460000e+02 6.697734e+03
6.470000e+02 7.077442e+03
6.480000e+02 7.477347e+03
6.490000e+02 7.898405e+03
6.500000e+02 8.341672e+03
6.510000e+02 8.808238e+03
6.520000e+02 9.299242e+03
6.530000e+02 9.815789e+03
6.540000e+02 1.035929e+04
6.550000e+02 1.093096e+04
6.560000e+02 1.153216e+04
6.570000e+02 1.216420e+04
6.580000e+02 1.282888e+04
6.590000e+02 1.352744e+04
6.600000e+02 1.426155e+04
6.610000e+02 1.503298e+04
6.620000e+02 1.584315e+04
6.630000e+02 1.669444e+04
6.640000e+02 1.758851e+04
6.650000e+02 1.852733e+04
6.660000e+02 1.951304e+04
6.670000e+02 2.054776e+04
6.680000e+02 2.163377e+04
6.690000e+02 2.277321e+04
6.700000e+02 2.396895e+04
6.710000e+02 2.522336e+04
6.720000e+02 2.654562e+04
6.730000e+02 2.791891e+04
6.740000e+02 2.936579e+04
6.750000e+02 3.088270e+04
6.760000e+02 3.247278e+04
6.770000e+02 3.413930e+04
6.780000e+02 3.588568e+04
6.790000e+02 3.771517e+04
6.800000e+02 3.963201e+04
6.810000e+02 4.163978e+04
6.820000e+02 4.374196e+04
6.830000e+02 4.594370e+04
6.840000e+02 4.824884e+04
6.850000e+02 5.066178e+04
6.860000e+02 5.318722e+04
6.870000e+02 5.583005e+04
6.880000e+02 5.859571e+04
6.890000e+02 6.148893e+04
6.900000e+02 6.451524e+04
6.910000e+02 6.768058e+04
6.920000e+02 7.099058e+04
6.930000e+02 7.445145e+04
6.940000e+02 7.806955e+04
6.950000e+02 8.185147e+04
6.960000e+02 8.580408e+04
6.970000e+02 8.993362e+04
6.980000e+02 9.424978e+04
6.990000e+02 9.875823e+04
7.000000e+02 1.034675e+05
7.010000e+02 1.083846e+05
7.020000e+02 1.135198e+05
7.030000e+02 1.188823e+05
7.040000e+02 1.244805e+05
7.050000e+02 1.303241e+05
7.060000e+02 1.364230e+05
7.070000e+02 1.427875e+05
7.080000e+02 1.494281e+05
7.090000e+02 1.563557e+05
7.100000e+02 1.635827e+05
7.110000e+02 1.711200e+05
7.120000e+02 1.789801e+05
7.130000e+02 1.871760e+05
7.140000e+02 1.957208e+05
7.150000e+02 2.046281e+05
7.160000e+02 2.139122e+05
7.170000e+02 2.235874e+05
7.180000e+02 2.336686e+05
7.190000e+02 2.441744e+05
7.200000e+02 2.551123e+05
7.210000e+02 2.665108e+05
7.220000e+02 2.783824e+05
7.230000e+02 2.907450e+05
7.240000e+02 3.036173e+05
7.250000e+02 3.170187e+05
7.260000e+02 3.309691e+05
7.270000e+02 3.454895e+05
7.280000e+02 3.606010e+05
7.290000e+02 3.763258e+05
7.300000e+02 3.926888e+05
7.310000e+02 4.097076e+05
7.320000e+02 4.274134e+05
7.330000e+02 4.458275e+05
7.340000e+02 4.649781e+05
7.350000e+02 4.848914e+05
7.360000e+02 5.055951e+05
7.370000e+02 5.271151e+05
7.380000e+02 5.494878e+05
7.390000e+02 5.727361e+05
7.400000e+02 5.968994e+05
7.410000e+02 6.220091e+05
7.420000e+02 6.480953e+05
7.430000e+02 6.751972e+05
7.440000e+02 7.033475e+05
7.450000e+02 7.325848e+05
7.460000e+02 7.629474e+05
7.470000e+02 7.944754e+05
7.480000e+02 8.272087e+05
7.490000e+02 8.611908e+05
7.500000e+02 8.964649e+05
7.510000e+02 9.330759e+05
7.520000e+02 9.710703e+05
7.530000e+02 1.010496e+06
7.540000e+02 1.051400e+06
7.550000e+02 1.093837e+06
7.560000e+02 1.137860e+06
7.570000e+02 1.183499e+06
7.580000e+02 1.230863e+06
7.590000e+02 1.279957e+06
7.600000e+02 1.330874e+06
7.610000e+02 1.383662e+06
7.620000e+02 1.438385e+06
7.630000e+02 1.495107e+06
7.640000e+02 1.553895e+06
7.650000e+02 1.614819e+06
7.660000e+02 1.677949e+06
7.670000e+02 1.743358e+06
7.680000e+02 1.811119e+06
7.690000e+02 1.881317e+06
7.700000e+02 1.954024e+06
7.710000e+02 2.029325e+06
7.720000e+02 2.107303e+06
7.730000e+02 2.188030e+06
7.740000e+02 2.271627e+06
7.750000e+02 2.358171e+06
7.760000e+02 2.447688e+06
7.770000e+02 2.540481e+06
7.780000e+02 2.636445e+06
7.790000e+02 2.735751e+06
7.800000e+02 2.838506e+06
7.810000e+02 2.944818e+06
7.820000e+02 3.054801e+06
7.830000e+02 3.168567e+06
7.840000e+02 3.286241e+06
7.850000e+02 3.407940e+06
7.860000e+02 3.533790e+06
7.870000e+02 3.663926e+06
7.880000e+02 3.798471e+06
7.890000e+02 3.937566e+06
7.900000e+02 4.081350e+06
7.910000e+02 4.229969e+06
7.920000e+02 4.383569e+06
7.930000e+02 4.542260e+06
7.940000e+02 4.706282e+06
7.950000e+02 4.875754e+06
7.960000e+02 5.050840e+06
7.970000e+02 5.231710e+06
7.980000e+02 5.418538e+06
7.990000e+02 5.611501e+06
8.000000e+02 5.810784e+06
8.010000e+02 6.016568e+06
8.020000e+02 6.229062e+06
8.030000e+02 6.448449e+06
8.040000e+02 6.674938e+06
8.050000e+02 6.908679e+06
8.060000e+02 7.150001e+06
8.070000e+02 7.399067e+06
8.080000e+02 7.656102e+06
8.090000e+02 7.921340e+06
8.100000e+02 8.195015e+06
8.110000e+02 8.477372e+06
8.120000e+02 8.768661e+06
8.130000e+02 9.069138e+06
8.140000e+02 9.379066e+06
8.150000e+02 9.698708e+06
8.160000e+02 1.002836e+07
8.170000e+02 1.036828e+07
8.180000e+02 1.071877e+07
8.190000e+02 1.108014e+07
8.200000e+02 1.145267e+07
8.210000e+02 1.183669e+07
8.220000e+02 1.223251e+07
8.230000e+02 1.264047e+07
8.240000e+02 1.306087e+07
8.250000e+02 1.349398e+07
8.260000e+02 1.394039e+07
8.270000e+02 1.440033e+07
8.280000e+02 1.487422e+07
8.290000e+02 1.536235e+07
8.300000e+02 1.586515e+07
8.310000e+02 1.638302e+07
8.320000e+02 1.691637e+07
8.330000e+02 1.746562e+07
8.340000e+02 1.803118e+07
8.350000e+02 1.861289e+07
8.360000e+02 1.921287e+07
8.370000e+02 1.983010e+07
8.380000e+02 2.046540e+07
8.390000e+02 2.111942e+07
8.400000e+02 2.179250e+07
8.410000e+02 2.248520e+07
8.420000e+02 2.319797e+07
8.430000e+02 2.393154e+07
8.440000e+02 2.468623e+07
8.450000e+02 2.546269e+07
8.460000e+02 2.626146e+07
8.470000e+02 2.708313e+07
8.480000e+02 2.792828e+07
8.490000e+02 2.879753e+07
8.500000e+02 2.969149e+07
8.510000e+02 3.061080e+07
8.520000e+02 3.155581e+07
8.530000e+02 3.252775e+07
8.540000e+02 3.352708e+07
8.550000e+02 3.455436e+07
8.560000e+02 3.561000e+07
8.570000e+02 3.669546e+07
8.580000e+02 3.781110e+07
8.590000e+02 3.895768e+07
8.600000e+02 4.013598e+07
8.610000e+02 4.134678e+07
8.620000e+02 4.259088e+07
8.630000e+02 4.386868e+07
8.640000e+02 4.518190e+07
8.650000e+02 4.653092e+07
8.660000e+02 4.791668e+07
8.670000e+02 4.934002e+07
8.680000e+02 5.080190e+07
8.690000e+02 5.230322e+07
8.700000e+02 5.384496e+07
8.710000e+02 5.542809e+07
8.720000e+02 5.705361e+07
8.730000e+02 5.872253e+07
8.740000e+02 6.043589e+07
8.750000e+02 6.219475e+07
8.760000e+02 6.400020e+07
8.770000e+02 6.585327e+07
8.780000e+02 6.775530e+07
8.790000e+02 6.970724e+07
8.800000e+02 7.171033e+07
8.810000e+02 7.376575e+07
8.820000e+02 7.587476e+07
8.830000e+02 7.803858e+07
8.840000e+02 8.025850e+07
8.850000e+02 8.253492e+07
8.860000e+02 8.487065e+07
8.870000e+02 8.726674e+07
8.880000e+02 8.972429e+07
8.890000e+02 9.224472e+07
8.900000e+02 9.482850e+07
8.910000e+02 9.747898e+07
8.920000e+02 1.001834e+08
8.930000e+02 1.029833e+08
8.940000e+02 1.058402e+08
8.950000e+02 1.087690e+08
8.960000e+02 1.117714e+08
8.970000e+02 1.148490e+08
8.980000e+02 1.180035e+08
8.990000e+02 1.212365e+08
9.000000e+02 1.245500e+08
9.010000e+02 1.279455e+08
9.020000e+02 1.314249e+08
9.030000e+02 1.349902e+08
9.040000e+02 1.386430e+08
9.050000e+02 1.423856e+08
9.060000e+02 1.462197e+08
9.070000e+02 1.501471e+08
9.080000e+02 1.541705e+08
9.090000e+02 1.582913e+08
9.100000e+02 1.625119e+08
9.110000e+02 1.668346e+08
9.120000e+02 1.712624e+08
9.130000e+02 1.753150e+08
9.140000e+02 1.808184e+08
9.150000e+02 2.621100e+08
9.160000e+02 5.012591e+08
9.170000e+02 5.465127e+08
9.180000e+02 4.402297e+08
9.190000e+02 1.014774e+09
9.200000e+02 1.602463e+09
9.210000e+02 2.169306e+08
9.220000e+02 2.154752e+09
9.230000e+02 5.536134e+08
9.240000e+02 1.985095e+09
9.250000e+02 2.641089e+09
9.260000e+02 8.277199e+08
9.270000e+02 2.330600e+09
9.280000e+02 3.246363e+09
9.290000e+02 2.828212e+09
9.300000e+02 2.413371e+09
9.310000e+02 1.013621e+09
9.320000e+02 3.281831e+09
9.330000e+02 3.812954e+09
9.340000e+02 4.010259e+09
9.350000e+02 1.427005e+09
9.360000e+02 3.914388e+09
9.370000e+02 9.166796e+08
9.380000e+02 8.422573e+08
9.390000e+02 3.707716e+09
9.400000e+02 4.410052e+09
9.410000e+02 2.386730e+09
9.420000e+02 4.809782e+09
9.430000e+02 4.921625e+09
9.440000e+02 2.740316e+09
9.450000e+02 5.103199e+09
9.460000e+02 5.162633e+09
9.470000e+02 3.362302e+09
9.480000e+02 4.314992e+09
9.490000e+02 3.486301e+09
9.500000e+02 9.766762e+08
9.510000e+02 4.541731e+09
9.520000e+02 5.546136e+09
9.530000e+02 5.802022e+09
9.540000e+02 4.812225e+09
9.550000e+02 6.179858e+09
9.560000e+02 4.942257e+09
9.570000e+02 5.116290e+09
9.580000e+02 6.541791e+09
9.590000e+02 6.704841e+09
9.600000e+02 1.532362e+09
9.610000e+02 6.909708e+09
9.620000e+02 7.035245e+09
9.630000e+02 7.216316e+09
9.640000e+02 6.340260e+08
9.650000e+02 6.795285e+09
9.660000e+02 7.591473e+09
9.670000e+02 7.642296e+09
9.680000e+02 7.724913e+09
9.690000e+02 7.818559e+09
9.700000e+02 7.771802e+09
9.710000e+02 7.201666e+09
9.720000e+02 4.125282e+09
9.730000e+02 3.749480e+09
9.740000e+02 7.466446e+09
9.750000e+02 8.472441e+09
9.760000e+02 8.883407e+09
9.770000e+02 9.137166e+09
9.780000e+02 9.325950e+09
9.790000e+02 9.539247e+09
9.800000e+02 9.719245e+09
9.810000e+02 9.901442e+09
9.820000e+02 9.981727e+09
9.830000e+02 1.024926e+10
9.840000e+02 4.046655e+09
9.850000e+02 1.061918e+10
9.860000e+02 1.080104e+10
9.870000e+02 1.096821e+10
9.880000e+02 1.102770e+10
9.890000e+02 7.864571e+09
9.900000e+02 1.361005e+09
9.910000e+02 1.165482e+10
9.920000e+02 1.011663e+10
9.930000e+02 1.137217e+10
9.940000e+02 1.897994e+09
9.950000e+02 3.113411e+09
9.960000e+02 2.564342e+09
9.970000e+02 2.580826e+09
9.980000e+02 1.318665e+10
9.990000e+02 1.300702e+10
1.000000e+03 1.364283e+10
1.001000e+03 1.388868e+10
1.002000e+03 1.410526e+10
1.003000e+03 1.213824e+10
1.004000e+03 1.458312e+10
1.005000e+03 1.243552e+10
1.006000e+03 1.506465e+10
1.007000e+03 1.513512e+10
1.008000e+03 1.552438e+10
1.009000e+03 1.503157e+10
1.010000e+03 1.605775e+10
1.011000e+03 1.631498e+10
1.012000e+03 1.656263e+10
1.013000e+03 1.683060e+10
1.014000e+03 1.709951e+10
1.015000e+03 1.704736e+10
1.016000e+03 1.758150e+10
1.017000e+03 1.788296e+10
1.018000e+03 1.811874e+10
1.019000e+03 1.837502e+10
1.020000e+03 1.857735e+10
1.021000e+03 1.240279e+10
1.022000e+03 1.793977e+10
1.023000e+03 1.848324e+10
1.024000e+03 1.618923e+10
1.025000e+03 1.041457e+10
1.026000e+03 4.776567e+09
1.027000e+03 1.535097e+10
1.028000e+03 6.139587e+09
1.029000e+03 2.082345e+10
1.030000e+03 2.107183e+10
1.031000e+03 2.214576e+10
1.032000e+03 2.220343e+10
1.033000e+03 1.302096e+10
1.034000e+03 2.348428e+10
1.035000e+03 5.278460e+09
1.036000e+03 2.303290e+10
1.037000e+03 3.074832e+09
1.038000e+03 2.505187e+10
1.039000e+03 2.495403e+10
1.040000e+03 2.584939e+10
1.041000e+03 2.601660e+10
1.042000e+03 2.521838e+10
1.043000e+03 2.647686e+10
1.044000e+03 2.716030e+10
1.045000e+03 2.780928e+10
1.046000e+03 2.832029e+10
1.047000e+03 2.865244e+10
1.048000e+03 2.851629e+10
1.049000e+03 2.846329e+10
1.050000e+03 3.008665e+10
1.051000e+03 3.054425e+10
1.052000e+03 3.099896e+10
1.053000e+03 3.020309e+10
1.054000e+03 3.178718e+10
1.055000e+03 3.182890e+10
1.056000e+03 3.288585e+10
1.057000e+03 3.332034e+10
1.058000e+03 3.379660e+10
1.059000e+03 3.433452e+10
1.060000e+03 3.486206e+10
1.061000e+03 3.537457e+10
1.062000e+03 3.589077e+10
1.063000e+03 1.404069e+10
1.064000e+03 7.353049e+09
1.065000e+03 3.830416e+10
1.066000e+03 3.084312e+10
1.067000e+03 3.541434e+10
1.068000e+03 4.004462e+10
1.069000e+03 3.999625e+10
1.070000e+03 3.922791e+10
1.071000e+03 4.183886e+10
1.072000e+03 4.242178e+10
1.073000e+03 4.304335e+10
1.074000e+03 4.364113e+10
1.075000e+03 4.421535e+10
1.076000e+03 4.487506e+10
1.077000e+03 4.527664e+10
1.078000e+03 4.605471e+10
1.079000e+03 4.643057e+10
1.080000e+03 4.735930e+10
1.081000e+03 4.812975e+10
1.082000e+03 4.879217e+10
1.083000e+03 4.904908e+10
1.084000e+03 4.279350e+10
1.085000e+03 3.574529e+10
1.086000e+03 5.158774e+10
1.087000e+03 5.223243e+10
1.088000e+03 5.284245e+10
1.089000e+03 5.367026e+10
1.090000e+03 5.420272e+10
1.091000e+03 5.507166e+10
1.092000e+03 5.596253e+10
1.093000e+03 5.668183e+10
1.094000e+03 5.750193e+10
1.095000e+03 5.814153e+10
1.096000e+03 5.899989e+10
1.097000e+03 5.868845e+10
1.098000e+03 5.748045e+10
1.099000e+03 6.124394e+10
1.100000e+03 6.014736e+10
1.101000e+03 5.817476e+10
1.102000e+03 1.132964e+11
1.103000e+03 2.584921e+11
1.104000e+03 1.403961e+11
1.105000e+03 6.113775e+10
1.106000e+03 4.917876e+11
1.107000e+03 4.913409e+11
1.108000e+03 4.977120e+11
1.109000e+03 2.651492e+11
1.110000e+03 9.691671e+10
1.111000e+03 1.248953e+11
1.112000e+03 4.367068e+11
1.113000e+03 5.328884e+11
1.114000e+03 4.677304e+10
1.115000e+03 5.266850e+11
1.116000e+03 5.451112e+11
1.117000e+03 5.575714e+10
1.118000e+03 3.878800e+11
1.119000e+03 5.602093e+11
1.120000e+03 5.682226e+11
1.121000e+03 4.647852e+11
1.122000e+03 1.484833e+10
1.123000e+03 8.196981e+10
1.124000e+03 5.864456e+11
1.125000e+03 2.336313e+11
1.126000e+03 6.014868e+11
1.127000e+03 5.814487e+11
1.128000e+03 2.931260e+11
1.129000e+03 6.063015e+11
1.130000e+03 4.534775e+11
1.131000e+03 6.371918e+11
1.132000e+03 4.060833e+10
1.133000e+03 5.087196e+11
1.134000e+03 6.316151e+11
1.135000e+03 2.037488e+10
1.136000e+03 6.450233e+11
1.137000e+03 6.773119e+11
1.138000e+03 6.868075e+11
1.139000e+03 6.762145e+11
1.140000e+03 2.664962e+10
1.141000e+03 7.074502e+11
1.142000e+03 6.429151e+11
1.143000e+03 7.170193e+11
1.144000e+03 7.278347e+11
1.145000e+03 6.458003e+11
1.146000e+03 7.374518e+11
1.147000e+03 7.419563e+11
1.148000e+03 7.511739e+11
1.149000e+03 7.639979e+11
1.150000e+03 7.407297e+11
1.151000e+03 7.751075e+11
1.152000e+03 7.725127e+11
1.153000e+03 1.980870e+11
1.154000e+03 6.365656e+10
1.155000e+03 5.631248e+11
1.156000e+03 2.019534e+11
1.157000e+03 8.207489e+11
1.158000e+03 3.328596e+10
1.159000e+03 6.443401e+11
1.160000e+03 7.594527e+11
1.161000e+03 8.578063e+11
1.162000e+03 1.760297e+11
1.163000e+03 8.292458e+11
1.164000e+03 5.898532e+10
1.165000e+03 8.898738e+11
1.166000e+03 8.774932e+11
1.167000e+03 8.305162e+11
1.168000e+03 9.150630e+11
1.169000e+03 8.985144e+11
1.170000e+03 9.351178e+11
1.171000e+03 9.438761e+11
1.172000e+03 8.996503e+11
1.173000e+03 9.496027e+11
1.174000e+03 9.145508e+11
1.175000e+03 6.292518e+10
1.176000e+03 4.718697e+10
1.177000e+03 9.721893e+11
1.178000e+03 8.519491e+11
1.179000e+03 1.004230e+12
1.180000e+03 7.562254e+11
1.181000e+03 1.005705e+12
1.182000e+03 1.034921e+12
1.183000e+03 1.041546e+12
1.184000e+03 1.049380e+12
1.185000e+03 9.756194e+11
1.186000e+03 1.060701e+12
1.187000e+03 1.066390e+12
1.188000e+03 1.008180e+12
1.189000e+03 5.072840e+10
1.190000e+03 1.732929e+11
1.191000e+03 1.051957e+12
1.192000e+03 1.063589e+12
1.193000e+03 4.235624e+10
1.194000e+03 5.803901e+10
1.195000e+03 6.335903e+11
1.196000e+03 1.055884e+12
1.197000e+03 1.163063e+12
1.198000e+03 1.171658e+12
1.199000e+03 1.149042e+12
1.200000e+03 1.067160e+12
1.201000e+03 1.088378e+12
1.202000e+03 1.070398e+12
1.203000e+03 1.102911e+12
1.204000e+03 1.023150e+12
1.205000e+03 9.747516e+11
1.206000e+03 7.525945e+11
1.207000e+03 3.763736e+11
1.208000e+03 7.228957e+11
1.209000e+03 5.649766e+11
1.210000e+03 8.123256e+10
1.211000e+03 3.867018e+11
1.212000e+03 2.645228e+11
1.213000e+03 1.806051e+11
1.214000e+03 1.083868e+11
1.215000e+03 6.638467e+10
1.216000e+03 5.923190e+10
1.217000e+03 9.373604e+10
1.218000e+03 1.619612e+11
1.219000e+03 2.622680e+11
1.220000e+03 3.858802e+11
1.221000e+03 5.225647e+11
1.222000e+03 6.653938e+11
1.223000e+03 8.076332e+11
1.224000e+03 9.459116e+11
1.225000e+03 1.073673e+12
1.226000e+03 1.186876e+12
1.227000e+03 1.306371e+12
1.228000e+03 1.433633e+12
1.229000e+03 1.515971e+12
1.230000e+03 1.619121e+12
1.231000e+03 1.722208e+12
1.232000e+03 1.810120e+12
1.233000e+03 1.890696e+12
1.234000e+03 1.488167e+12
1.235000e+03 2.023636e+12
1.236000e+03 2.104029e+12
1.237000e+03 2.161327e+12
1.238000e+03 2.227056e+12
1.239000e+03 2.286257e+12
1.240000e+03 2.153953e+12
1.241000e+03 3.437959e+12
1.242000e+03 2.147808e+12
1.243000e+03 2.836416e+12
1.244000e+03 1.364504e+12
1.245000e+03 1.955191e+12
1.246000e+03 4.432759e+12
1.247000e+03 4.574252e+12
1.248000e+03 1.457863e+12
1.249000e+03 1.732066e+12
1.250000e+03 5.114361e+12
1.251000e+03 5.205900e+12
1.252000e+03 5.133301e+12
1.253000e+03 5.588482e+12
1.254000e+03 5.695387e+12
1.255000e+03 5.716985e+12
1.256000e+03 5.734250e+12
1.257000e+03 6.081415e+12
1.258000e+03 6.136356e+12
1.259000e+03 6.093215e+12
1.260000e+03 5.604595e+12
1.261000e+03 1.120071e+11
1.262000e+03 8.934067e+11
1.263000e+03 6.633780e+12
1.264000e+03 6.378690e+12
1.265000e+03 1.067888e+11
1.266000e+03 6.996137e+12
1.267000e+03 7.271963e+12
