# wavelength_A flux
5.000000e+02 1.956971e-09
5.010000e+02 2.231038e-09
5.020000e+02 2.542110e-09
5.030000e+02 2.894996e-09
5.040000e+02 3.295106e-09
5.050000e+02 3.892241e-09
5.060000e+02 4.424654e-09
5.070000e+02 5.027197e-09
5.080000e+02 5.708898e-09
5.090000e+02 6.480044e-09
5.100000e+02 7.351138e-09
5.110000e+02 8.335134e-09
5.120000e+02 9.446015e-09
5.130000e+02 1.069953e-08
5.140000e+02 1.211331e-08
5.150000e+02 1.370680e-08
5.160000e+02 1.550277e-08
5.170000e+02 1.752413e-08
5.180000e+02 1.980152e-08
5.190000e+02 2.236271e-08
5.200000e+02 2.524295e-08
5.210000e+02 2.848033e-08
5.220000e+02 3.211235e-08
5.230000e+02 3.620143e-08
5.240000e+02 4.078608e-08
5.250000e+02 4.593015e-08
5.260000e+02 5.169827e-08
5.270000e+02 5.816369e-08
5.280000e+02 6.540736e-08
5.290000e+02 7.349429e-08
5.300000e+02 8.259951e-08
5.310000e+02 9.275903e-08
5.320000e+02 1.041215e-07
5.330000e+02 1.168226e-07
5.340000e+02 1.310143e-07
5.350000e+02 1.468647e-07
5.360000e+02 1.645580e-07
5.370000e+02 1.804990e-07
5.380000e+02 2.063234e-07
5.390000e+02 2.308713e-07
5.400000e+02 2.582536e-07
5.410000e+02 2.887172e-07
5.420000e+02 3.226915e-07
5.430000e+02 3.604795e-07
5.440000e+02 4.025222e-07
5.450000e+02 4.492797e-07
5.460000e+02 5.011555e-07
5.470000e+02 5.590193e-07
5.480000e+02 6.231749e-07
5.490000e+02 6.944138e-07
5.500000e+02 7.734748e-07
5.510000e+02 8.611916e-07
5.520000e+02 9.584471e-07
5.530000e+02 1.066278e-06
5.540000e+02 1.185763e-06
5.550000e+02 1.318116e-06
5.560000e+02 1.464662e-06
5.570000e+02 1.626861e-06
5.580000e+02 1.806315e-06
5.590000e+02 2.004783e-06
5.600000e+02 2.224196e-06
5.610000e+02 2.466674e-06
5.620000e+02 2.734538e-06
5.630000e+02 3.030336e-06
5.640000e+02 3.356858e-06
5.650000e+02 3.717163e-06
5.660000e+02 4.114532e-06
5.670000e+02 4.552711e-06
5.680000e+02 5.035748e-06
5.690000e+02 5.567971e-06
5.700000e+02 6.154170e-06
5.710000e+02 6.799636e-06
5.720000e+02 7.510047e-06
5.730000e+02 8.291701e-06
5.740000e+02 9.151416e-06
5.750000e+02 1.009691e-05
5.760000e+02 1.113310e-05
5.770000e+02 1.227736e-05
5.780000e+02 1.353112e-05
5.790000e+02 1.490770e-05
5.800000e+02 1.641832e-05
5.810000e+02 1.807604e-05
5.820000e+02 1.989423e-05
5.830000e+02 2.188747e-05
5.840000e+02 2.406166e-05
5.850000e+02 2.646472e-05
5.860000e+02 2.909024e-05
5.870000e+02 3.196255e-05
5.880000e+02 3.510661e-05
5.890000e+02 3.854585e-05
5.900000e+02 4.231048e-05
5.910000e+02 4.642558e-05
5.920000e+02 5.092415e-05
5.930000e+02 5.584127e-05
5.940000e+02 6.121336e-05
5.950000e+02 6.707521e-05
5.960000e+02 7.348681e-05
5.970000e+02 8.047907e-05
5.980000e+02 8.810870e-05
5.990000e+02 9.643108e-05
6.000000e+02 1.055066e-04
6.010000e+02 1.153392e-04
6.020000e+02 1.261822e-04
6.030000e+02 1.379283e-04
6.040000e+02 1.507232e-04
6.050000e+02 1.646495e-04
6.060000e+02 1.798119e-04
6.070000e+02 1.963120e-04
6.080000e+02 2.142611e-04
6.090000e+02 2.337812e-04
6.100000e+02 2.550026e-04
6.110000e+02 2.780697e-04
6.120000e+02 3.031328e-04
6.130000e+02 3.303578e-04
6.140000e+02 3.599224e-04
6.150000e+02 3.920188e-04
6.160000e+02 4.268456e-04
6.170000e+02 4.646414e-04
6.180000e+02 5.056387e-04
6.190000e+02 5.500963e-04
6.200000e+02 5.982930e-04
6.210000e+02 6.505282e-04
6.220000e+02 7.071251e-04
6.230000e+02 7.684309e-04
6.240000e+02 8.348191e-04
6.250000e+02 9.066915e-04
6.260000e+02 9.844797e-04
6.270000e+02 1.068640e-03
6.280000e+02 1.159688e-03
6.290000e+02 1.258149e-03
6.300000e+02 1.364602e-03
6.310000e+02 1.479652e-03
6.320000e+02 1.603997e-03
6.330000e+02 1.738311e-03
6.340000e+02 1.883376e-03
6.350000e+02 2.040007e-03
6.360000e+02 2.203105e-03
6.370000e+02 2.391520e-03
6.380000e+02 2.588378e-03
6.390000e+02 2.800716e-03
6.400000e+02 3.029691e-03
6.410000e+02 3.276544e-03
6.420000e+02 3.542605e-03
6.430000e+02 3.829299e-03
6.440000e+02 4.138146e-03
6.450000e+02 4.470772e-03
6.460000e+02 4.828931e-03
6.470000e+02 5.214475e-03
6.480000e+02 5.629409e-03
6.490000e+02 6.075857e-03
6.500000e+02 6.556048e-03
6.510000e+02 7.072512e-03
6.520000e+02 7.627799e-03
6.530000e+02 8.224687e-03
6.540000e+02 8.866149e-03
6.550000e+02 9.555337e-03
6.560000e+02 1.029564e-02
6.570000e+02 1.109030e-02
6.580000e+02 1.194409e-02
6.590000e+02 1.286031e-02
6.600000e+02 1.384342e-02
6.610000e+02 1.489850e-02
6.620000e+02 1.603010e-02
6.630000e+02 1.724366e-02
6.640000e+02 1.854482e-02
6.650000e+02 1.993948e-02
6.660000e+02 2.143435e-02
6.670000e+02 2.303592e-02
6.680000e+02 2.475158e-02
6.690000e+02 2.658902e-02
6.700000e+02 2.855645e-02
6.710000e+02 3.066260e-02
6.720000e+02 3.291615e-02
6.730000e+02 3.532887e-02
6.740000e+02 3.790936e-02
6.750000e+02 4.066940e-02
6.760000e+02 4.362087e-02
6.770000e+02 4.677585e-02
6.780000e+02 5.014873e-02
6.790000e+02 5.375324e-02
6.800000e+02 5.760448e-02
6.810000e+02 6.171847e-02
6.820000e+02 6.611218e-02
6.830000e+02 7.080376e-02
6.840000e+02 7.581227e-02
6.850000e+02 8.115685e-02
6.860000e+02 8.686268e-02
6.870000e+02 9.294772e-02
6.880000e+02 9.944107e-02
6.890000e+02 1.063639e-01
6.900000e+02 1.137462e-01
6.910000e+02 1.216162e-01
6.920000e+02 1.300042e-01
6.930000e+02 1.389426e-01
6.940000e+02 1.484656e-01
6.950000e+02 1.586096e-01
6.960000e+02 1.694108e-01
6.970000e+02 1.809097e-01
6.980000e+02 1.931593e-01
6.990000e+02 2.061932e-01
7.000000e+02 2.200633e-01
7.010000e+02 2.348206e-01
7.020000e+02 2.505188e-01
7.030000e+02 2.672147e-01
7.040000e+02 2.849683e-01
7.050000e+02 3.038428e-01
7.060000e+02 3.239043e-01
7.070000e+02 3.452277e-01
7.080000e+02 3.678835e-01
7.090000e+02 3.919469e-01
7.100000e+02 4.175169e-01
7.110000e+02 4.446658e-01
7.120000e+02 4.734919e-01
7.130000e+02 5.040931e-01
7.140000e+02 5.365663e-01
7.150000e+02 5.710322e-01
7.160000e+02 6.076031e-01
7.170000e+02 6.463912e-01
7.180000e+02 6.875279e-01
7.190000e+02 7.311731e-01
7.200000e+02 7.774348e-01
7.210000e+02 8.264753e-01
7.220000e+02 8.784509e-01
7.230000e+02 9.335320e-01
7.240000e+02 9.918811e-01
7.250000e+02 1.053697e+00
7.260000e+02 1.119154e+00
7.270000e+02 1.188513e+00
7.280000e+02 1.261925e+00
7.290000e+02 1.339640e+00
7.300000e+02 1.421894e+00
7.310000e+02 1.508919e+00
7.320000e+02 1.601019e+00
7.330000e+02 1.698450e+00
7.340000e+02 1.801504e+00
7.350000e+02 1.910488e+00
7.360000e+02 2.025721e+00
7.370000e+02 2.147550e+00
7.380000e+02 2.276323e+00
7.390000e+02 2.412416e+00
7.400000e+02 2.556199e+00
7.410000e+02 2.708153e+00
7.420000e+02 2.868611e+00
7.430000e+02 3.038145e+00
7.440000e+02 3.217140e+00
7.450000e+02 3.406127e+00
7.460000e+02 3.605634e+00
7.470000e+02 3.816162e+00
7.480000e+02 4.038385e+00
7.490000e+02 4.272873e+00
7.500000e+02 4.520254e+00
7.510000e+02 4.781200e+00
7.520000e+02 5.056412e+00
7.530000e+02 5.346626e+00
7.540000e+02 5.652610e+00
7.550000e+02 5.975175e+00
7.560000e+02 6.315170e+00
7.570000e+02 6.672986e+00
7.580000e+02 7.050957e+00
7.590000e+02 7.448676e+00
7.600000e+02 7.867719e+00
7.610000e+02 8.309046e+00
7.620000e+02 8.773793e+00
7.630000e+02 9.262998e+00
7.640000e+02 9.778140e+00
7.650000e+02 1.032035e+01
7.660000e+02 1.089108e+01
7.670000e+02 1.149163e+01
7.680000e+02 1.212340e+01
7.690000e+02 1.278823e+01
7.700000e+02 1.348743e+01
7.710000e+02 1.422277e+01
7.720000e+02 1.499603e+01
7.730000e+02 1.580902e+01
7.740000e+02 1.666368e+01
7.750000e+02 1.756203e+01
7.760000e+02 1.850092e+01
7.770000e+02 1.949824e+01
7.780000e+02 2.054047e+01
7.790000e+02 2.163548e+01
7.800000e+02 2.278565e+01
7.810000e+02 2.399360e+01
7.820000e+02 2.526204e+01
7.830000e+02 2.659379e+01
7.840000e+02 2.799195e+01
7.850000e+02 2.945950e+01
7.860000e+02 3.099937e+01
7.870000e+02 3.261561e+01
7.880000e+02 3.431143e+01
7.890000e+02 3.609051e+01
7.900000e+02 3.795668e+01
7.910000e+02 3.991396e+01
7.920000e+02 4.196652e+01
7.930000e+02 4.411871e+01
7.940000e+02 4.637504e+01
7.950000e+02 4.874031e+01
7.960000e+02 5.121943e+01
7.970000e+02 5.381753e+01
7.980000e+02 5.653997e+01
7.990000e+02 5.939227e+01
8.000000e+02 6.238050e+01
8.010000e+02 6.550999e+01
8.020000e+02 6.878856e+01
8.030000e+02 7.222135e+01
8.040000e+02 7.581572e+01
8.050000e+02 7.957876e+01
8.060000e+02 8.351793e+01
8.070000e+02 8.764095e+01
8.080000e+02 9.195586e+01
8.090000e+02 9.647064e+01
8.100000e+02 1.011948e+02
8.110000e+02 1.061370e+02
8.120000e+02 1.113065e+02
8.130000e+02 1.167136e+02
8.140000e+02 1.223680e+02
8.150000e+02 1.282790e+02
8.160000e+02 1.344610e+02
8.170000e+02 1.409223e+02
8.180000e+02 1.476782e+02
8.190000e+02 1.547381e+02
8.200000e+02 1.621158e+02
8.210000e+02 1.698248e+02
8.220000e+02 1.778790e+02
8.230000e+02 1.862930e+02
8.240000e+02 1.950816e+02
8.250000e+02 2.042606e+02
8.260000e+02 2.138461e+02
8.270000e+02 2.238551e+02
8.280000e+02 2.343050e+02
8.290000e+02 2.452139e+02
8.300000e+02 2.566010e+02
8.310000e+02 2.684854e+02
8.320000e+02 2.808879e+02
8.330000e+02 2.938293e+02
8.340000e+02 3.073317e+02
8.350000e+02 3.213799e+02
8.360000e+02 3.361090e+02
8.370000e+02 3.514360e+02
8.380000e+02 3.673985e+02
8.390000e+02 3.840834e+02
8.400000e+02 4.014601e+02
8.410000e+02 4.195753e+02
8.420000e+02 4.384434e+02
8.430000e+02 4.581367e+02
8.440000e+02 4.786498e+02
8.450000e+02 5.000231e+02
8.460000e+02 5.222966e+02
8.470000e+02 5.455026e+02
8.480000e+02 5.696773e+02
8.490000e+02 5.948586e+02
8.500000e+02 6.210858e+02
8.510000e+02 6.483990e+02
8.520000e+02 6.768380e+02
8.530000e+02 7.064534e+02
8.540000e+02 7.372897e+02
8.550000e+02 7.693836e+02
8.560000e+02 8.027881e+02
8.570000e+02 8.375567e+02
8.580000e+02 8.737371e+02
8.590000e+02 9.113863e+02
8.600000e+02 9.505574e+02
8.610000e+02 9.913087e+02
8.620000e+02 1.033700e+03
8.630000e+02 1.077787e+03
8.640000e+02 1.123649e+03
8.650000e+02 1.171328e+03
8.660000e+02 1.220923e+03
8.670000e+02 1.272478e+03
8.680000e+02 1.326061e+03
8.690000e+02 1.381776e+03
8.700000e+02 1.439682e+03
8.710000e+02 1.499872e+03
8.720000e+02 1.562418e+03
8.730000e+02 1.627409e+03
8.740000e+02 1.694935e+03
8.750000e+02 1.765087e+03
8.760000e+02 1.837961e+03
8.770000e+02 1.913638e+03
8.780000e+02 1.992271e+03
8.790000e+02 2.073913e+03
8.800000e+02 2.158691e+03
8.810000e+02 2.246716e+03
8.820000e+02 2.338104e+03
8.830000e+02 2.432974e+03
8.840000e+02 2.531450e+03
8.850000e+02 2.633660e+03
8.860000e+02 2.739734e+03
8.870000e+02 2.849809e+03
8.880000e+02 2.964026e+03
8.890000e+02 3.082531e+03
8.900000e+02 3.205471e+03
8.910000e+02 3.333001e+03
8.920000e+02 3.458868e+03
8.930000e+02 3.602430e+03
8.940000e+02 3.744706e+03
8.950000e+02 3.892235e+03
8.960000e+02 4.045213e+03
8.970000e+02 4.203782e+03
8.980000e+02 4.368198e+03
8.990000e+02 4.538629e+03
9.000000e+02 4.715280e+03
9.010000e+02 4.898364e+03
9.020000e+02 5.088095e+03
9.030000e+02 5.284692e+03
9.040000e+02 5.488274e+03
9.050000e+02 5.699406e+03
9.060000e+02 5.918095e+03
9.070000e+02 6.144331e+03
9.080000e+02 6.379155e+03
9.090000e+02 6.622104e+03
9.100000e+02 6.873703e+03
9.110000e+02 7.134288e+03
9.120000e+02 7.404370e+03
9.130000e+02 7.478524e+03
9.140000e+02 8.179213e+03
9.150000e+02 2.903414e+04
9.160000e+02 9.753698e+04
9.170000e+02 1.022478e+05
9.180000e+02 1.044426e+05
9.190000e+02 1.094583e+05
9.200000e+02 1.130130e+05
9.210000e+02 9.626577e+03
9.220000e+02 1.196665e+05
9.230000e+02 1.220699e+05
9.240000e+02 1.197957e+05
9.250000e+02 1.295328e+05
9.260000e+02 1.346068e+05
9.270000e+02 1.394773e+05
9.280000e+02 1.439938e+05
9.290000e+02 1.310399e+05
9.300000e+02 1.478799e+05
9.310000e+02 1.558201e+05
9.320000e+02 1.623893e+05
9.330000e+02 1.665783e+05
9.340000e+02 1.712551e+05
9.350000e+02 7.747009e+04
9.360000e+02 1.817394e+05
9.370000e+02 5.502990e+04
9.380000e+02 5.112663e+04
9.390000e+02 1.995996e+05
9.400000e+02 2.056463e+05
9.410000e+02 1.153179e+05
9.420000e+02 2.181181e+05
9.430000e+02 2.197613e+05
9.440000e+02 1.623598e+05
9.450000e+02 2.376116e+05
9.460000e+02 2.448807e+05
9.470000e+02 7.913977e+04
9.480000e+02 2.078625e+05
9.490000e+02 2.643908e+05
9.500000e+02 6.898459e+04
9.510000e+02 2.760344e+05
9.520000e+02 2.909119e+05
9.530000e+02 2.956676e+05
9.540000e+02 2.138295e+05
9.550000e+02 3.171475e+05
9.560000e+02 2.131537e+05
9.570000e+02 2.839925e+05
9.580000e+02 3.442708e+05
9.590000e+02 3.565820e+05
9.600000e+02 1.155097e+05
9.610000e+02 3.685282e+05
9.620000e+02 3.860163e+05
9.630000e+02 3.992020e+05
9.640000e+02 4.936962e+04
9.650000e+02 3.843214e+05
9.660000e+02 4.338976e+05
9.670000e+02 4.400394e+05
9.680000e+02 4.567457e+05
9.690000e+02 4.684596e+05
9.700000e+02 4.825842e+05
9.710000e+02 4.923948e+05
9.720000e+02 4.660177e+05
9.730000e+02 4.666004e+05
9.740000e+02 5.297261e+05
9.750000e+02 5.537862e+05
9.760000e+02 5.697732e+05
9.770000e+02 5.868137e+05
9.780000e+02 6.011558e+05
9.790000e+02 6.200249e+05
9.800000e+02 6.368107e+05
9.810000e+02 6.546276e+05
9.820000e+02 6.708558e+05
9.830000e+02 6.903088e+05
9.840000e+02 3.387001e+05
9.850000e+02 7.285929e+05
9.860000e+02 7.482234e+05
9.870000e+02 7.683623e+05
9.880000e+02 7.864626e+05
9.890000e+02 6.871879e+05
9.900000e+02 1.429265e+05
9.910000e+02 8.466267e+05
9.920000e+02 7.288319e+05
9.930000e+02 8.408618e+05
9.940000e+02 2.093548e+05
9.950000e+02 3.240031e+05
9.960000e+02 4.107129e+05
9.970000e+02 2.608527e+05
9.980000e+02 1.024285e+06
9.990000e+02 1.025395e+06
1.000000e+03 1.081012e+06
1.001000e+03 1.109378e+06
1.002000e+03 1.138044e+06
1.003000e+03 1.117933e+06
1.004000e+03 1.197333e+06
1.005000e+03 1.144101e+06
1.006000e+03 1.261177e+06
1.007000e+03 1.267373e+06
1.008000e+03 1.320750e+06
1.009000e+03 1.334641e+06
1.010000e+03 1.395704e+06
1.011000e+03 1.431263e+06
1.012000e+03 1.467459e+06
1.013000e+03 1.504853e+06
1.014000e+03 1.535964e+06
1.015000e+03 1.568244e+06
1.016000e+03 1.618829e+06
1.017000e+03 1.654914e+06
1.018000e+03 1.700141e+06
1.019000e+03 1.740023e+06
1.020000e+03 1.781959e+06
1.021000e+03 1.242210e+06
1.022000e+03 1.781506e+06
1.023000e+03 1.870622e+06
1.024000e+03 1.620975e+06
1.025000e+03 1.401890e+06
1.026000e+03 6.995439e+05
1.027000e+03 1.757635e+06
1.028000e+03 8.534725e+05
1.029000e+03 2.186269e+06
1.030000e+03 2.223562e+06
1.031000e+03 2.329007e+06
1.032000e+03 2.370636e+06
1.033000e+03 1.656977e+06
1.034000e+03 2.524304e+06
1.035000e+03 8.046195e+05
1.036000e+03 2.487221e+06
1.037000e+03 4.633605e+05
1.038000e+03 2.784834e+06
1.039000e+03 2.825724e+06
1.040000e+03 2.923356e+06
1.041000e+03 2.964700e+06
1.042000e+03 3.050692e+06
1.043000e+03 3.088449e+06
1.044000e+03 3.210231e+06
1.045000e+03 3.286260e+06
1.046000e+03 3.374907e+06
1.047000e+03 3.453170e+06
1.048000e+03 3.525847e+06
1.049000e+03 3.401740e+06
1.050000e+03 3.707446e+06
1.051000e+03 3.796318e+06
1.052000e+03 3.886858e+06
1.053000e+03 3.942158e+06
1.054000e+03 4.015560e+06
1.055000e+03 3.837278e+06
1.056000e+03 4.266120e+06
1.057000e+03 4.365277e+06
1.058000e+03 4.464934e+06
1.059000e+03 4.570009e+06
1.060000e+03 4.675344e+06
1.061000e+03 4.787340e+06
1.062000e+03 4.898187e+06
1.063000e+03 2.032604e+06
1.064000e+03 1.403077e+06
1.065000e+03 5.253934e+06
1.066000e+03 3.874922e+06
1.067000e+03 5.420934e+06
1.068000e+03 5.641544e+06
1.069000e+03 5.394792e+06
1.070000e+03 5.857268e+06
1.071000e+03 6.039148e+06
1.072000e+03 6.176014e+06
1.073000e+03 6.303558e+06
1.074000e+03 6.458878e+06
1.075000e+03 6.603930e+06
1.076000e+03 6.753192e+06
1.077000e+03 6.898941e+06
1.078000e+03 7.058780e+06
1.079000e+03 7.203588e+06
1.080000e+03 7.379552e+06
1.081000e+03 7.544819e+06
1.082000e+03 7.709349e+06
1.083000e+03 7.867999e+06
1.084000e+03 7.986048e+06
1.085000e+03 5.515385e+06
1.086000e+03 8.420903e+06
1.087000e+03 8.600709e+06
1.088000e+03 8.767055e+06
1.089000e+03 8.987352e+06
1.090000e+03 9.176054e+06
1.091000e+03 9.269413e+06
1.092000e+03 9.588658e+06
1.093000e+03 9.790068e+06
1.094000e+03 1.001095e+07
1.095000e+03 1.022347e+07
1.096000e+03 1.044780e+07
1.097000e+03 9.328966e+06
1.098000e+03 1.044196e+07
1.099000e+03 1.112854e+07
1.100000e+03 8.762985e+06
1.101000e+03 1.073805e+07
1.102000e+03 2.138720e+07
1.103000e+03 5.539431e+07
1.104000e+03 3.062191e+07
1.105000e+03 1.162858e+07
1.106000e+03 1.787655e+08
1.107000e+03 1.625544e+08
1.108000e+03 1.615612e+08
1.109000e+03 6.090000e+07
1.110000e+03 4.059588e+07
1.111000e+03 2.575941e+07
1.112000e+03 1.235063e+08
1.113000e+03 2.028946e+08
1.114000e+03 9.901528e+06
1.115000e+03 1.952778e+08
1.116000e+03 2.060296e+08
1.117000e+03 1.258086e+07
1.118000e+03 9.550113e+07
1.119000e+03 2.210086e+08
1.120000e+03 2.216109e+08
1.121000e+03 2.052818e+08
1.122000e+03 4.465592e+06
1.123000e+03 1.611416e+07
1.124000e+03 2.387588e+08
1.125000e+03 1.058192e+08
1.126000e+03 2.477178e+08
1.127000e+03 2.373836e+08
1.128000e+03 1.478654e+08
1.129000e+03 2.441460e+08
1.130000e+03 1.365496e+08
1.131000e+03 2.693291e+08
1.132000e+03 1.109437e+07
1.133000e+03 1.839898e+08
1.134000e+03 2.012794e+08
1.135000e+03 6.288128e+06
1.136000e+03 2.864590e+08
1.137000e+03 2.958440e+08
1.138000e+03 3.004098e+08
1.139000e+03 2.961058e+08
1.140000e+03 8.575600e+06
1.141000e+03 3.157641e+08
1.142000e+03 3.133132e+08
1.143000e+03 3.246291e+08
1.144000e+03 3.307811e+08
1.145000e+03 2.550288e+08
1.146000e+03 3.403778e+08
1.147000e+03 3.392114e+08
1.148000e+03 3.420875e+08
1.149000e+03 3.566241e+08
1.150000e+03 3.567626e+08
1.151000e+03 3.648898e+08
1.152000e+03 3.725026e+08
1.153000e+03 9.571374e+07
1.154000e+03 2.138211e+07
1.155000e+03 1.613688e+08
1.156000e+03 4.086762e+07
1.157000e+03 3.953819e+08
1.158000e+03 1.172613e+07
1.159000e+03 2.009375e+08
1.160000e+03 3.946205e+08
1.161000e+03 4.298629e+08
1.162000e+03 8.832189e+07
1.163000e+03 4.366548e+08
1.164000e+03 2.454795e+07
1.165000e+03 4.562123e+08
1.166000e+03 4.570056e+08
1.167000e+03 4.615739e+08
1.168000e+03 4.783620e+08
1.169000e+03 4.190009e+08
1.170000e+03 4.922794e+08
1.171000e+03 5.019946e+08
1.172000e+03 5.037908e+08
1.173000e+03 5.147958e+08
1.174000e+03 5.045323e+08
1.175000e+03 2.868416e+07
1.176000e+03 2.168435e+07
1.177000e+03 5.459043e+08
1.178000e+03 5.226146e+08
1.179000e+03 5.627942e+08
1.180000e+03 4.794040e+08
1.181000e+03 5.747103e+08
1.182000e+03 5.857797e+08
1.183000e+03 5.926078e+08
1.184000e+03 5.988088e+08
1.185000e+03 5.885255e+08
1.186000e+03 6.090971e+08
1.187000e+03 6.166245e+08
1.188000e+03 6.159724e+08
1.189000e+03 2.312755e+07
1.190000e+03 5.153075e+07
1.191000e+03 6.164917e+08
1.192000e+03 6.168482e+08
1.193000e+03 2.058275e+07
1.194000e+03 2.706394e+07
1.195000e+03 4.611479e+08
1.196000e+03 6.202076e+08
1.197000e+03 7.428934e+08
1.198000e+03 7.444947e+08
1.199000e+03 7.212673e+08
1.200000e+03 6.377382e+08
1.201000e+03 6.669520e+08
1.202000e+03 6.562300e+08
1.203000e+03 6.942940e+08
1.204000e+03 6.314289e+08
1.205000e+03 5.828495e+08
1.206000e+03 5.164760e+08
1.207000e+03 1.611173e+08
1.208000e+03 3.922684e+08
1.209000e+03 3.043652e+08
1.210000e+03 4.593922e+07
1.211000e+03 1.858408e+08
1.212000e+03 1.205307e+08
1.213000e+03 8.491044e+07
1.214000e+03 5.433802e+07
1.215000e+03 3.671439e+07
1.216000e+03 3.330986e+07
1.217000e+03 4.946240e+07
1.218000e+03 7.957076e+07
1.219000e+03 1.274610e+08
1.220000e+03 1.933837e+08
1.221000e+03 2.751563e+08
1.222000e+03 3.693709e+08
1.223000e+03 4.725265e+08
1.224000e+03 5.832603e+08
1.225000e+03 6.952989e+08
1.226000e+03 8.118285e+08
1.227000e+03 9.064463e+08
1.228000e+03 1.051470e+09
1.229000e+03 1.168242e+09
1.230000e+03 1.273189e+09
1.231000e+03 1.398804e+09
1.232000e+03 1.512993e+09
1.233000e+03 1.626217e+09
1.234000e+03 1.092440e+09
1.235000e+03 1.836145e+09
1.236000e+03 1.934470e+09
1.237000e+03 2.039741e+09
1.238000e+03 2.137109e+09
1.239000e+03 2.232246e+09
1.240000e+03 2.136860e+09
1.241000e+03 3.734026e+09
1.242000e+03 2.211562e+09
1.243000e+03 3.001697e+09
1.244000e+03 1.400862e+09
1.245000e+03 2.040910e+09
1.246000e+03 5.776713e+09
1.247000e+03 5.664172e+09
1.248000e+03 1.534673e+09
1.249000e+03 1.829962e+09
1.250000e+03 7.234180e+09
1.251000e+03 7.482324e+09
1.252000e+03 7.714627e+09
1.253000e+03 8.292050e+09
1.254000e+03 8.488439e+09
1.255000e+03 8.886227e+09
1.256000e+03 9.117932e+09
1.257000e+03 9.610088e+09
1.258000e+03 9.655857e+09
1.259000e+03 9.541435e+09
1.260000e+03 7.044593e+09
1.261000e+03 8.206898e+07
1.262000e+03 9.997901e+08
1.263000e+03 1.080390e+10
1.264000e+03 9.347551e+09
1.265000e+03 7.924595e+07
1.266000e+03 1.163947e+10
1.267000e+03 1.266831e+10
