# wavelength_A flux
5.000000e+02 1.193844e-28
5.010000e+02 1.475577e-28
5.020000e+02 1.822267e-28
5.030000e+02 2.248540e-28
5.040000e+02 2.772263e-28
5.050000e+02 6.140404e-28
5.060000e+02 7.532065e-28
5.070000e+02 9.231857e-28
5.080000e+02 1.130640e-27
5.090000e+02 1.383635e-27
5.100000e+02 1.691929e-27
5.110000e+02 2.067333e-27
5.120000e+02 2.524097e-27
5.130000e+02 3.079471e-27
5.140000e+02 3.754162e-27
5.150000e+02 4.572940e-27
5.160000e+02 5.566855e-27
5.170000e+02 6.769796e-27
5.180000e+02 8.230306e-27
5.190000e+02 9.996317e-27
5.200000e+02 1.213228e-26
5.210000e+02 1.471330e-26
5.220000e+02 1.778571e-26
5.230000e+02 2.159286e-26
5.240000e+02 2.613557e-26
5.250000e+02 3.160829e-26
5.260000e+02 3.819867e-26
5.270000e+02 4.613061e-26
5.280000e+02 5.567073e-26
5.290000e+02 6.703792e-26
5.300000e+02 8.090951e-26
5.310000e+02 9.744018e-26
5.320000e+02 1.172682e-25
5.330000e+02 1.410350e-25
5.340000e+02 1.695031e-25
5.350000e+02 2.035766e-25
5.360000e+02 2.443003e-25
5.370000e+02 2.197459e-25
5.380000e+02 3.512089e-25
5.390000e+02 4.208374e-25
5.400000e+02 5.038113e-25
5.410000e+02 6.021033e-25
5.420000e+02 7.205667e-25
5.430000e+02 8.609962e-25
5.440000e+02 1.028066e-24
5.450000e+02 1.226777e-24
5.460000e+02 1.461062e-24
5.470000e+02 1.743550e-24
5.480000e+02 2.076638e-24
5.490000e+02 2.471838e-24
5.500000e+02 2.940427e-24
5.510000e+02 3.495703e-24
5.520000e+02 4.153304e-24
5.530000e+02 4.931619e-24
5.540000e+02 5.852274e-24
5.550000e+02 6.940613e-24
5.560000e+02 8.226436e-24
5.570000e+02 9.744684e-24
5.580000e+02 1.153632e-23
5.590000e+02 1.364935e-23
5.600000e+02 1.613998e-23
5.610000e+02 1.907399e-23
5.620000e+02 2.252834e-23
5.630000e+02 2.659297e-23
5.640000e+02 3.137302e-23
5.650000e+02 3.699123e-23
5.660000e+02 4.359086e-23
5.670000e+02 5.133903e-23
5.680000e+02 6.043058e-23
5.690000e+02 7.109252e-23
5.700000e+02 8.358915e-23
5.710000e+02 9.822883e-23
5.720000e+02 1.153686e-22
5.730000e+02 1.354253e-22
5.740000e+02 1.588824e-22
5.750000e+02 1.863707e-22
5.760000e+02 2.180778e-22
5.770000e+02 2.558337e-22
5.780000e+02 2.995022e-22
5.790000e+02 3.504381e-22
5.800000e+02 4.098183e-22
5.810000e+02 4.790025e-22
5.820000e+02 5.595491e-22
5.830000e+02 6.531532e-22
5.840000e+02 7.572029e-22
5.850000e+02 8.879446e-22
5.860000e+02 1.036755e-21
5.870000e+02 1.208288e-21
5.880000e+02 1.407323e-21
5.890000e+02 1.638187e-21
5.900000e+02 1.906143e-21
5.910000e+02 2.216701e-21
5.920000e+02 2.576577e-21
5.930000e+02 2.993398e-21
5.940000e+02 3.475944e-21
5.950000e+02 4.034307e-21
5.960000e+02 4.680090e-21
5.970000e+02 5.426624e-21
5.980000e+02 6.289217e-21
5.990000e+02 7.285441e-21
6.000000e+02 8.435454e-21
6.010000e+02 9.761592e-21
6.020000e+02 1.129274e-20
6.030000e+02 1.305684e-20
6.040000e+02 1.508948e-20
6.050000e+02 1.743046e-20
6.060000e+02 2.012525e-20
6.070000e+02 2.322614e-20
6.080000e+02 2.679246e-20
6.090000e+02 3.089232e-20
6.100000e+02 3.560336e-20
6.110000e+02 4.101446e-20
6.120000e+02 4.722668e-20
6.130000e+02 5.435555e-20
6.140000e+02 6.253273e-20
6.150000e+02 7.190850e-20
6.160000e+02 8.265330e-20
6.170000e+02 9.496207e-20
6.180000e+02 1.090563e-19
6.190000e+02 1.251877e-19
6.200000e+02 1.436438e-19
6.210000e+02 1.647497e-19
6.220000e+02 1.888759e-19
6.230000e+02 2.164429e-19
6.240000e+02 2.479283e-19
6.250000e+02 2.838740e-19
6.260000e+02 3.248948e-19
6.270000e+02 3.716875e-19
6.280000e+02 4.250436e-19
6.290000e+02 4.858579e-19
6.300000e+02 5.551428e-19
6.310000e+02 6.258862e-19
6.320000e+02 7.238752e-19
6.330000e+02 8.259206e-19
6.340000e+02 9.423576e-19
6.350000e+02 1.074207e-18
6.360000e+02 1.224797e-18
6.370000e+02 1.395513e-18
6.380000e+02 1.589377e-18
6.390000e+02 1.809457e-18
6.400000e+02 2.059201e-18
6.410000e+02 2.342496e-18
6.420000e+02 2.663726e-18
6.430000e+02 3.027831e-18
6.440000e+02 3.440374e-18
6.450000e+02 3.907621e-18
6.460000e+02 4.436629e-18
6.470000e+02 5.035330e-18
6.480000e+02 5.712653e-18
6.490000e+02 6.478635e-18
6.500000e+02 7.344423e-18
6.510000e+02 8.323102e-18
6.520000e+02 9.428502e-18
6.530000e+02 1.067674e-17
6.540000e+02 1.208570e-17
6.550000e+02 1.367572e-17
6.560000e+02 1.546916e-17
6.570000e+02 1.748973e-17
6.580000e+02 1.977083e-17
6.590000e+02 2.233923e-17
6.600000e+02 2.523209e-17
6.610000e+02 2.848956e-17
6.620000e+02 3.215597e-17
6.630000e+02 3.628133e-17
6.640000e+02 4.092145e-17
6.650000e+02 4.613854e-17
6.660000e+02 5.200297e-17
6.670000e+02 5.859210e-17
6.680000e+02 6.599318e-17
6.690000e+02 7.430339e-17
6.700000e+02 8.363122e-17
6.710000e+02 9.409770e-17
6.720000e+02 1.058379e-16
6.730000e+02 1.190023e-16
6.740000e+02 1.337587e-16
6.750000e+02 1.502943e-16
6.760000e+02 1.688172e-16
6.770000e+02 1.895595e-16
6.780000e+02 2.127795e-16
6.790000e+02 2.387645e-16
6.800000e+02 2.678342e-16
6.810000e+02 3.003444e-16
6.820000e+02 3.366902e-16
6.830000e+02 3.773113e-16
6.840000e+02 4.226956e-16
6.850000e+02 4.733851e-16
6.860000e+02 5.299838e-16
6.870000e+02 5.931582e-16
6.880000e+02 6.636508e-16
6.890000e+02 7.422847e-16
6.900000e+02 8.299726e-16
6.910000e+02 9.277264e-16
6.920000e+02 1.036668e-15
6.930000e+02 1.158039e-15
6.940000e+02 1.293216e-15
6.950000e+02 1.443725e-15
6.960000e+02 1.611251e-15
6.970000e+02 1.797553e-15
6.980000e+02 2.005028e-15
6.990000e+02 2.235628e-15
7.000000e+02 2.491992e-15
7.010000e+02 2.776912e-15
7.020000e+02 3.093474e-15
7.030000e+02 3.445087e-15
7.040000e+02 3.835518e-15
7.050000e+02 4.268922e-15
7.060000e+02 4.749889e-15
7.070000e+02 5.283484e-15
7.080000e+02 5.875289e-15
7.090000e+02 6.531438e-15
7.100000e+02 7.258807e-15
7.110000e+02 8.064796e-15
7.120000e+02 8.957683e-15
7.130000e+02 9.946550e-15
7.140000e+02 1.104141e-14
7.150000e+02 1.225327e-14
7.160000e+02 1.359426e-14
7.170000e+02 1.507757e-14
7.180000e+02 1.671755e-14
7.190000e+02 1.853225e-14
7.200000e+02 2.053722e-14
7.210000e+02 2.275274e-14
7.220000e+02 2.520023e-14
7.230000e+02 2.790326e-14
7.240000e+02 3.088767e-14
7.250000e+02 3.418187e-14
7.260000e+02 3.781703e-14
7.270000e+02 4.182734e-14
7.280000e+02 4.625034e-14
7.290000e+02 5.112718e-14
7.300000e+02 5.650299e-14
7.310000e+02 6.242725e-14
7.320000e+02 6.895417e-14
7.330000e+02 7.614318e-14
7.340000e+02 8.405933e-14
7.350000e+02 9.277389e-14
7.360000e+02 1.023635e-13
7.370000e+02 1.129177e-13
7.380000e+02 1.245259e-13
7.390000e+02 1.372915e-13
7.400000e+02 1.513258e-13
7.410000e+02 1.667531e-13
7.420000e+02 1.837042e-13
7.430000e+02 2.023280e-13
7.440000e+02 2.227820e-13
7.450000e+02 2.452412e-13
7.460000e+02 2.698961e-13
7.470000e+02 2.969544e-13
7.480000e+02 3.266432e-13
7.490000e+02 3.592099e-13
7.500000e+02 3.949247e-13
7.510000e+02 4.340824e-13
7.520000e+02 4.770042e-13
7.530000e+02 5.240404e-13
7.540000e+02 5.755730e-13
7.550000e+02 6.320178e-13
7.560000e+02 6.938284e-13
7.570000e+02 7.614780e-13
7.580000e+02 8.355656e-13
7.590000e+02 9.166045e-13
7.600000e+02 1.005283e-12
7.610000e+02 1.102265e-12
7.620000e+02 1.208316e-12
7.630000e+02 1.324252e-12
7.640000e+02 1.450968e-12
7.650000e+02 1.589432e-12
7.660000e+02 1.740701e-12
7.670000e+02 1.905918e-12
7.680000e+02 2.086290e-12
7.690000e+02 2.277009e-12
7.700000e+02 2.498193e-12
7.710000e+02 2.732833e-12
7.720000e+02 2.988748e-12
7.730000e+02 3.267875e-12
7.740000e+02 3.572252e-12
7.750000e+02 3.904090e-12
7.760000e+02 4.265145e-12
7.770000e+02 4.659933e-12
7.780000e+02 5.089357e-12
7.790000e+02 5.557101e-12
7.800000e+02 6.066475e-12
7.810000e+02 6.621065e-12
7.820000e+02 7.224747e-12
7.830000e+02 7.881727e-12
7.840000e+02 8.596550e-12
7.850000e+02 9.374143e-12
7.860000e+02 1.021983e-11
7.870000e+02 1.113976e-11
7.880000e+02 1.213944e-11
7.890000e+02 1.322597e-11
7.900000e+02 1.440664e-11
7.910000e+02 1.568933e-11
7.920000e+02 1.708256e-11
7.930000e+02 1.859554e-11
7.940000e+02 2.023821e-11
7.950000e+02 2.202132e-11
7.960000e+02 2.395647e-11
7.970000e+02 2.605618e-11
7.980000e+02 2.833399e-11
7.990000e+02 3.080448e-11
8.000000e+02 3.348340e-11
8.010000e+02 3.638769e-11
8.020000e+02 3.953582e-11
8.030000e+02 4.294740e-11
8.040000e+02 4.664379e-11
8.050000e+02 5.064796e-11
8.060000e+02 5.498466e-11
8.070000e+02 5.968055e-11
8.080000e+02 6.476437e-11
8.090000e+02 7.026708e-11
8.100000e+02 7.622199e-11
8.110000e+02 8.266499e-11
8.120000e+02 8.963472e-11
8.130000e+02 9.717274e-11
8.140000e+02 1.053238e-10
8.150000e+02 1.141360e-10
8.160000e+02 1.236612e-10
8.170000e+02 1.339550e-10
8.180000e+02 1.450773e-10
8.190000e+02 1.570925e-10
8.200000e+02 1.700698e-10
8.210000e+02 1.840834e-10
8.220000e+02 1.992134e-10
8.230000e+02 2.155455e-10
8.240000e+02 2.331718e-10
8.250000e+02 2.521915e-10
8.260000e+02 2.727107e-10
8.270000e+02 2.948435e-10
8.280000e+02 3.187123e-10
8.290000e+02 3.444486e-10
8.300000e+02 3.721933e-10
8.310000e+02 4.020975e-10
8.320000e+02 4.343235e-10
8.330000e+02 4.690452e-10
8.340000e+02 5.064489e-10
8.350000e+02 5.461468e-10
8.360000e+02 5.901047e-10
8.370000e+02 6.368235e-10
8.380000e+02 6.870998e-10
8.390000e+02 7.412156e-10
8.400000e+02 7.994458e-10
8.410000e+02 8.620948e-10
8.420000e+02 9.294435e-10
8.430000e+02 1.001965e-09
8.440000e+02 1.079903e-09
8.450000e+02 1.163696e-09
8.460000e+02 1.253768e-09
8.470000e+02 1.350572e-09
8.480000e+02 1.454594e-09
8.490000e+02 1.566353e-09
8.500000e+02 1.686402e-09
8.510000e+02 1.815335e-09
8.520000e+02 1.953780e-09
8.530000e+02 2.102430e-09
8.540000e+02 2.262028e-09
8.550000e+02 2.433283e-09
8.560000e+02 2.617054e-09
8.570000e+02 2.814222e-09
8.580000e+02 3.019414e-09
8.590000e+02 3.252577e-09
8.600000e+02 3.495841e-09
8.610000e+02 3.755477e-09
8.620000e+02 4.036268e-09
8.630000e+02 4.335950e-09
8.640000e+02 4.657107e-09
8.650000e+02 5.001186e-09
8.660000e+02 5.369871e-09
8.670000e+02 5.764735e-09
8.680000e+02 6.187614e-09
8.690000e+02 6.640421e-09
8.700000e+02 7.125178e-09
8.710000e+02 7.644109e-09
8.720000e+02 8.199477e-09
8.730000e+02 8.793772e-09
8.740000e+02 9.429612e-09
8.750000e+02 1.010979e-08
8.760000e+02 1.083730e-08
8.770000e+02 1.161527e-08
8.780000e+02 1.244712e-08
8.790000e+02 1.333645e-08
8.800000e+02 1.428703e-08
8.810000e+02 1.530294e-08
8.820000e+02 1.638851e-08
8.830000e+02 1.754832e-08
8.840000e+02 1.878726e-08
8.850000e+02 2.011057e-08
8.860000e+02 2.152371e-08
8.870000e+02 2.303258e-08
8.880000e+02 2.464340e-08
8.890000e+02 2.636282e-08
8.900000e+02 2.819790e-08
8.910000e+02 3.015608e-08
8.920000e+02 3.222433e-08
8.930000e+02 3.447405e-08
8.940000e+02 3.685123e-08
8.950000e+02 3.938641e-08
8.960000e+02 4.208963e-08
8.970000e+02 4.497164e-08
8.980000e+02 4.804376e-08
8.990000e+02 5.131813e-08
9.000000e+02 5.480748e-08
9.010000e+02 5.852543e-08
9.020000e+02 6.248626e-08
9.030000e+02 6.670424e-08
9.040000e+02 7.119889e-08
9.050000e+02 7.598356e-08
9.060000e+02 8.107912e-08
9.070000e+02 8.650197e-08
9.080000e+02 9.227650e-08
9.090000e+02 9.842103e-08
9.100000e+02 1.049596e-07
9.110000e+02 1.119177e-07
9.120000e+02 1.193352e-07
9.130000e+02 1.198950e-07
9.140000e+02 3.539026e-07
9.150000e+02 8.224051e-02
9.160000e+02 1.947050e-01
9.170000e+02 1.504049e-02
9.180000e+02 1.871667e-01
9.190000e+02 2.695863e-01
9.200000e+02 2.903325e-01
9.210000e+02 2.014312e-07
9.220000e+02 2.618953e-01
9.230000e+02 2.717933e-02
9.240000e+02 3.050891e-02
9.250000e+02 1.309235e-01
9.260000e+02 3.115166e-01
9.270000e+02 1.362623e-02
9.280000e+02 4.024927e-01
9.290000e+02 4.217889e-01
9.300000e+02 4.239956e-01
9.310000e+02 1.947936e-02
9.320000e+02 4.746290e-01
9.330000e+02 3.404671e-01
9.340000e+02 2.501535e-01
9.350000e+02 1.343871e-04
9.360000e+02 2.784742e-02
9.370000e+02 4.689838e-05
9.380000e+02 2.638340e-02
9.390000e+02 6.804357e-02
9.400000e+02 6.341775e-01
9.410000e+02 5.915208e-03
9.420000e+02 6.833337e-01
9.430000e+02 1.028010e-01
9.440000e+02 5.561017e-01
9.450000e+02 7.700062e-01
9.460000e+02 6.288527e-01
9.470000e+02 2.121270e-03
9.480000e+02 5.056921e-01
9.490000e+02 8.295962e-01
9.500000e+02 2.495944e-04
9.510000e+02 6.781684e-01
9.520000e+02 8.099241e-01
9.530000e+02 1.183350e-02
9.540000e+02 2.140969e-03
9.550000e+02 2.841584e-01
9.560000e+02 8.149592e-01
9.570000e+02 1.945257e-02
9.580000e+02 4.760325e-04
9.590000e+02 1.356102e+00
9.600000e+02 1.646876e-04
9.610000e+02 9.874751e-01
9.620000e+02 5.924509e-01
9.630000e+02 2.346547e-01
9.640000e+02 3.701448e-05
9.650000e+02 5.617023e-03
9.660000e+02 3.181340e-01
9.670000e+02 4.050207e-02
9.680000e+02 1.830113e-02
9.690000e+02 1.036684e+00
9.700000e+02 9.842095e-01
9.710000e+02 4.887931e-02
9.720000e+02 4.094398e-02
9.730000e+02 1.065076e+00
9.740000e+02 1.279626e+00
9.750000e+02 5.084725e-01
9.760000e+02 2.386759e+00
9.770000e+02 2.206196e+00
9.780000e+02 1.434509e+00
9.790000e+02 2.982138e+00
9.800000e+02 3.100058e+00
9.810000e+02 1.491740e+00
9.820000e+02 2.941313e-01
9.830000e+02 3.393194e+00
9.840000e+02 3.927175e-02
9.850000e+02 9.082693e-01
9.860000e+02 1.065404e+00
9.870000e+02 3.987105e+00
9.880000e+02 1.063776e-02
9.890000e+02 2.547659e+00
9.900000e+02 7.787852e-03
9.910000e+02 1.207013e-01
9.920000e+02 1.775747e-03
9.930000e+02 3.731087e+00
9.940000e+02 1.308918e-04
9.950000e+02 7.882055e-02
9.960000e+02 4.189444e-02
9.970000e+02 8.647680e-03
9.980000e+02 4.777508e+00
9.990000e+02 1.231102e-01
1.000000e+03 5.812410e+00
1.001000e+03 7.332022e+00
1.002000e+03 7.484084e+00
1.003000e+03 4.715645e-01
1.004000e+03 1.749325e-02
1.005000e+03 1.436993e+00
1.006000e+03 8.590472e+00
1.007000e+03 9.176044e+00
1.008000e+03 8.492280e+00
1.009000e+03 7.001212e-01
1.010000e+03 9.180429e+00
1.011000e+03 1.057663e+01
1.012000e+03 1.004747e+01
1.013000e+03 1.008580e+01
1.014000e+03 4.285812e-03
1.015000e+03 2.119255e-02
1.016000e+03 1.279257e+00
1.017000e+03 3.726006e-03
1.018000e+03 7.055130e-01
1.019000e+03 2.028465e-02
1.020000e+03 1.447450e+01
1.021000e+03 1.847267e-01
1.022000e+03 9.189005e-01
1.023000e+03 4.628372e-02
1.024000e+03 9.635773e+00
1.025000e+03 3.610834e-03
1.026000e+03 4.895884e-02
1.027000e+03 4.528887e+00
1.028000e+03 3.684998e-03
1.029000e+03 7.334709e-03
1.030000e+03 7.924095e+00
1.031000e+03 6.994991e+00
1.032000e+03 1.376285e+01
1.033000e+03 4.788399e-02
1.034000e+03 1.114495e+01
1.035000e+03 1.987457e-03
1.036000e+03 1.407051e-02
1.037000e+03 2.426333e+01
1.038000e+03 2.891959e+01
1.039000e+03 2.562603e+01
1.040000e+03 2.943406e+01
1.041000e+03 3.161044e+01
1.042000e+03 3.300275e+01
1.043000e+03 2.254597e+01
1.044000e+03 3.716563e+01
1.045000e+03 3.275440e+01
1.046000e+03 3.457818e+01
1.047000e+03 1.859248e+01
1.048000e+03 3.927555e-01
1.049000e+03 2.341238e+01
1.050000e+03 1.192318e+01
1.051000e+03 5.796417e+00
1.052000e+03 4.598279e+01
1.053000e+03 5.029625e+01
1.054000e+03 2.135849e-02
1.055000e+03 5.405164e+01
1.056000e+03 5.609903e+01
1.057000e+03 3.684707e+01
1.058000e+03 7.993717e+00
1.059000e+03 2.991753e+00
1.060000e+03 5.680962e-01
1.061000e+03 4.852156e+01
1.062000e+03 3.231981e+00
1.063000e+03 5.911117e-01
1.064000e+03 4.310608e-03
1.065000e+03 3.663635e-02
1.066000e+03 3.650891e+01
1.067000e+03 1.743642e+00
1.068000e+03 8.608092e+01
1.069000e+03 3.154377e-01
1.070000e+03 4.546840e+01
1.071000e+03 9.186922e+01
1.072000e+03 9.645602e+01
1.073000e+03 8.597565e-02
1.074000e+03 4.891202e+01
1.075000e+03 3.376353e+01
1.076000e+03 1.106686e+02
1.077000e+03 1.379776e-01
1.078000e+03 7.492119e+00
1.079000e+03 3.693985e+01
1.080000e+03 6.090518e+01
1.081000e+03 1.100137e+02
1.082000e+03 9.960100e+01
1.083000e+03 7.982609e+01
1.084000e+03 1.417492e+02
1.085000e+03 2.377916e+01
1.086000e+03 1.544169e+02
1.087000e+03 4.207520e+00
1.088000e+03 1.638084e+02
1.089000e+03 1.692098e+02
1.090000e+03 2.349213e+01
1.091000e+03 2.919753e+01
1.092000e+03 1.813408e+02
1.093000e+03 1.891697e+02
1.094000e+03 1.463708e+02
1.095000e+03 2.019960e+02
1.096000e+03 8.528748e+00
1.097000e+03 1.862825e+02
1.098000e+03 2.200117e+02
1.099000e+03 8.475949e+01
1.100000e+03 1.028156e+00
1.101000e+03 3.377625e+00
1.102000e+03 4.462242e+01
1.103000e+03 2.913661e+02
1.104000e+03 2.861082e+02
1.105000e+03 2.647846e+02
1.106000e+03 1.723363e+02
1.107000e+03 1.247345e+00
1.108000e+03 3.043729e+02
1.109000e+03 2.137091e+01
1.110000e+03 2.691248e+02
1.111000e+03 3.257368e+02
1.112000e+03 2.747332e+02
1.113000e+03 2.943038e+02
1.114000e+03 1.962468e+02
1.115000e+03 3.373055e+01
1.116000e+03 1.675193e+01
1.117000e+03 2.975737e+02
1.118000e+03 3.363269e+01
1.119000e+03 3.320695e+02
1.120000e+03 1.802667e+01
1.121000e+03 4.102765e+02
1.122000e+03 2.971344e+01
1.123000e+03 4.164554e+02
1.124000e+03 4.520931e+02
1.125000e+03 3.937355e+02
1.126000e+03 4.872165e+02
1.127000e+03 4.720352e+02
1.128000e+03 2.962076e+02
1.129000e+03 4.288149e+02
1.130000e+03 5.142796e+02
1.131000e+03 4.692499e+02
1.132000e+03 1.762155e+01
1.133000e+03 1.220036e+02
1.134000e+03 4.735421e+02
1.135000e+03 2.005080e+01
1.136000e+03 2.521465e+02
1.137000e+03 5.831201e+02
1.138000e+03 4.838869e+02
1.139000e+03 6.196736e+02
1.140000e+03 2.588137e+02
1.141000e+03 6.379059e+02
1.142000e+03 6.481748e+02
1.143000e+03 5.573937e+02
1.144000e+03 6.614492e+02
1.145000e+03 9.453003e+00
1.146000e+03 7.109445e+02
1.147000e+03 7.164342e+02
1.148000e+03 8.947650e+01
1.149000e+03 7.117304e+02
1.150000e+03 7.071579e+02
1.151000e+03 7.804034e+02
1.152000e+03 7.886314e+02
1.153000e+03 6.874580e+02
1.154000e+03 8.124482e+02
1.155000e+03 7.904287e+02
1.156000e+03 8.460704e+02
1.157000e+03 8.178468e+02
1.158000e+03 5.593768e+02
1.159000e+03 8.931167e+02
1.160000e+03 7.677509e+02
1.161000e+03 9.260601e+02
1.162000e+03 2.794335e+02
1.163000e+03 6.029851e+02
1.164000e+03 9.008789e-01
1.165000e+03 9.797138e+02
1.166000e+03 9.705793e+02
1.167000e+03 9.957513e+02
1.168000e+03 1.069570e+03
1.169000e+03 1.069044e+03
1.170000e+03 1.017365e+03
1.171000e+03 1.116745e+03
1.172000e+03 1.009296e+03
1.173000e+03 1.182456e+03
1.174000e+03 6.076697e+01
1.175000e+03 8.061523e-01
1.176000e+03 3.049927e-01
1.177000e+03 1.289572e+03
1.178000e+03 1.311677e+03
1.179000e+03 1.330575e+03
1.180000e+03 1.157902e+03
1.181000e+03 1.375207e+03
1.182000e+03 1.399675e+03
1.183000e+03 1.360180e+03
1.184000e+03 1.361852e+03
1.185000e+03 1.440560e+03
1.186000e+03 3.660268e+02
1.187000e+03 1.507531e+03
1.188000e+03 1.283677e+03
1.189000e+03 7.479087e+02
1.190000e+03 1.602214e+03
1.191000e+03 1.614424e+03
1.192000e+03 1.651281e+03
1.193000e+03 1.574080e+02
1.194000e+03 8.740958e+02
1.195000e+03 1.676455e+03
1.196000e+03 1.724836e+03
1.197000e+03 2.713790e+03
1.198000e+03 9.989592e+02
1.199000e+03 2.653791e+03
1.200000e+03 1.548602e+03
1.201000e+03 2.536954e+03
1.202000e+03 2.292749e+03
1.203000e+03 3.107930e+03
1.204000e+03 1.576540e+03
1.205000e+03 2.697572e+03
1.206000e+03 2.645164e+03
1.207000e+03 1.606641e+02
1.208000e+03 1.901847e+03
1.209000e+03 1.419690e+03
1.210000e+03 1.341858e+00
1.211000e+03 6.678725e+02
1.212000e+03 3.256693e+02
1.213000e+03 1.334665e+02
1.214000e+03 3.198877e+01
1.215000e+03 3.127380e+00
1.216000e+03 9.707553e-01
1.217000e+03 1.776984e+01
1.218000e+03 1.003087e+02
1.219000e+03 2.946394e+02
1.220000e+03 5.500100e+02
1.221000e+03 1.135113e+03
1.222000e+03 1.772349e+03
1.223000e+03 2.350741e+03
1.224000e+03 2.621063e+03
1.225000e+03 1.117844e+03
1.226000e+03 4.304102e+03
1.227000e+03 4.836000e+03
1.228000e+03 3.980707e+03
1.229000e+03 5.785937e+03
1.230000e+03 5.939328e+03
1.231000e+03 3.350400e+03
1.232000e+03 7.062192e+03
1.233000e+03 7.553348e+03
1.234000e+03 5.032680e+03
1.235000e+03 8.209059e+03
1.236000e+03 6.122038e+03
1.237000e+03 8.870675e+03
1.238000e+03 9.136304e+03
1.239000e+03 9.151509e+03
1.240000e+03 1.954874e+03
1.241000e+03 8.982490e+03
1.242000e+03 1.016925e+04
1.243000e+03 1.050572e+04
1.244000e+03 1.073180e+04
1.245000e+03 1.110098e+04
1.246000e+03 1.113270e+04
1.247000e+03 1.146462e+04
1.248000e+03 7.858046e+03
1.249000e+03 1.223632e+04
1.250000e+03 9.000260e+03
1.251000e+03 1.283010e+04
1.252000e+03 1.244349e+04
1.253000e+03 1.340030e+04
1.254000e+03 1.336702e+04
1.255000e+03 1.216540e+04
1.256000e+03 1.392668e+04
1.257000e+03 1.052522e+04
1.258000e+03 1.386566e+04
1.259000e+03 1.500366e+04
1.260000e+03 1.559335e+04
1.261000e+03 3.919385e+02
1.262000e+03 1.619643e+04
1.263000e+03 1.556635e+04
1.264000e+03 1.637833e+04
1.265000e+03 2.824219e+01
1.266000e+03 1.774410e+04
1.267000e+03 1.752139e+04
