# wavelength_A flux
5.000000e+02 5.562637e-17
5.010000e+02 6.580250e-17
5.020000e+02 7.778680e-17
5.030000e+02 9.189104e-17
5.040000e+02 1.084786e-16
5.050000e+02 1.004619e-16
5.060000e+02 1.185703e-16
5.070000e+02 1.398484e-16
5.080000e+02 1.648345e-16
5.090000e+02 1.941551e-16
5.100000e+02 2.285403e-16
5.110000e+02 2.688369e-16
5.120000e+02 3.160323e-16
5.130000e+02 3.712711e-16
5.140000e+02 4.358829e-16
5.150000e+02 5.114621e-16
5.160000e+02 5.996401e-16
5.170000e+02 7.029449e-16
5.180000e+02 8.228236e-16
5.190000e+02 9.629527e-16
5.200000e+02 1.126246e-15
5.210000e+02 1.316436e-15
5.220000e+02 1.539480e-15
5.230000e+02 1.795265e-15
5.240000e+02 2.094485e-15
5.250000e+02 2.441975e-15
5.260000e+02 2.845567e-15
5.270000e+02 3.313877e-15
5.280000e+02 3.856959e-15
5.290000e+02 4.498005e-15
5.300000e+02 5.215434e-15
5.310000e+02 6.059409e-15
5.320000e+02 7.035850e-15
5.330000e+02 8.164911e-15
5.340000e+02 9.469719e-15
5.350000e+02 1.097685e-14
5.360000e+02 1.271746e-14
5.370000e+02 1.672400e-14
5.380000e+02 1.704170e-14
5.390000e+02 1.970379e-14
5.400000e+02 2.277450e-14
5.410000e+02 2.633829e-14
5.420000e+02 3.038037e-14
5.430000e+02 3.505313e-14
5.440000e+02 4.042760e-14
5.450000e+02 4.660080e-14
5.460000e+02 5.380190e-14
5.470000e+02 6.181903e-14
5.480000e+02 7.114457e-14
5.490000e+02 8.183202e-14
5.500000e+02 9.407610e-14
5.510000e+02 1.080953e-13
5.520000e+02 1.241388e-13
5.530000e+02 1.424894e-13
5.540000e+02 1.634682e-13
5.550000e+02 1.874393e-13
5.560000e+02 2.148157e-13
5.570000e+02 2.460654e-13
5.580000e+02 2.817185e-13
5.590000e+02 3.223753e-13
5.600000e+02 3.687150e-13
5.610000e+02 4.215059e-13
5.620000e+02 4.816166e-13
5.630000e+02 5.500290e-13
5.640000e+02 6.278516e-13
5.650000e+02 7.163402e-13
5.660000e+02 8.168948e-13
5.670000e+02 9.311212e-13
5.680000e+02 1.060811e-12
5.690000e+02 1.207988e-12
5.700000e+02 1.374939e-12
5.710000e+02 1.564209e-12
5.720000e+02 1.778707e-12
5.730000e+02 2.021676e-12
5.740000e+02 2.296766e-12
5.750000e+02 2.607635e-12
5.760000e+02 2.962021e-12
5.770000e+02 3.357841e-12
5.780000e+02 3.807766e-12
5.790000e+02 4.316031e-12
5.800000e+02 4.889950e-12
5.810000e+02 5.537745e-12
5.820000e+02 6.268695e-12
5.830000e+02 7.093739e-12
5.840000e+02 8.047821e-12
5.850000e+02 9.074974e-12
5.860000e+02 1.024718e-11
5.870000e+02 1.157298e-11
5.880000e+02 1.306540e-11
5.890000e+02 1.474551e-11
5.900000e+02 1.663157e-11
5.910000e+02 1.875266e-11
5.920000e+02 2.113533e-11
5.930000e+02 2.381072e-11
5.940000e+02 2.681355e-11
5.950000e+02 3.018251e-11
5.960000e+02 3.396064e-11
5.970000e+02 3.819596e-11
5.980000e+02 4.294183e-11
5.990000e+02 4.825765e-11
6.000000e+02 5.420948e-11
6.010000e+02 6.087511e-11
6.020000e+02 6.832306e-11
6.030000e+02 7.665703e-11
6.040000e+02 8.597327e-11
6.050000e+02 9.638353e-11
6.060000e+02 1.080135e-10
6.070000e+02 1.209953e-10
6.080000e+02 1.354866e-10
6.090000e+02 1.516545e-10
6.100000e+02 1.696865e-10
6.110000e+02 1.897887e-10
6.120000e+02 2.121914e-10
6.130000e+02 2.371482e-10
6.140000e+02 2.649400e-10
6.150000e+02 2.958767e-10
6.160000e+02 3.303020e-10
6.170000e+02 3.685948e-10
6.180000e+02 4.111741e-10
6.190000e+02 4.585028e-10
6.200000e+02 5.110901e-10
6.210000e+02 5.695006e-10
6.220000e+02 6.343551e-10
6.230000e+02 7.063390e-10
6.240000e+02 7.862070e-10
6.250000e+02 8.747918e-10
6.260000e+02 9.730096e-10
6.270000e+02 1.081870e-09
6.280000e+02 1.202483e-09
6.290000e+02 1.336071e-09
6.300000e+02 1.483980e-09
6.310000e+02 1.658461e-09
6.320000e+02 1.828818e-09
6.330000e+02 2.029350e-09
6.340000e+02 2.250671e-09
6.350000e+02 2.495909e-09
6.360000e+02 2.766086e-09
6.370000e+02 3.064856e-09
6.380000e+02 3.394807e-09
6.390000e+02 3.759016e-09
6.400000e+02 4.160906e-09
6.410000e+02 4.604230e-09
6.420000e+02 5.093101e-09
6.430000e+02 5.632018e-09
6.440000e+02 6.225917e-09
6.450000e+02 6.880212e-09
6.460000e+02 7.600753e-09
6.470000e+02 8.394077e-09
6.480000e+02 9.267176e-09
6.490000e+02 1.022783e-08
6.500000e+02 1.128457e-08
6.510000e+02 1.244630e-08
6.520000e+02 1.372342e-08
6.530000e+02 1.512682e-08
6.540000e+02 1.666856e-08
6.550000e+02 1.836159e-08
6.560000e+02 2.022037e-08
6.570000e+02 2.226420e-08
6.580000e+02 2.449878e-08
6.590000e+02 2.695393e-08
6.600000e+02 2.964623e-08
6.610000e+02 3.259726e-08
6.620000e+02 3.583138e-08
6.630000e+02 3.937454e-08
6.640000e+02 4.325508e-08
6.650000e+02 4.750435e-08
6.660000e+02 5.215463e-08
6.670000e+02 5.724371e-08
6.680000e+02 6.281088e-08
6.690000e+02 6.889930e-08
6.700000e+02 7.555588e-08
6.710000e+02 8.283155e-08
6.720000e+02 9.078163e-08
6.730000e+02 9.946617e-08
6.740000e+02 1.089503e-07
6.750000e+02 1.193048e-07
6.760000e+02 1.306063e-07
6.770000e+02 1.429380e-07
6.780000e+02 1.563902e-07
6.790000e+02 1.710604e-07
6.800000e+02 1.870548e-07
6.810000e+02 2.044879e-07
6.820000e+02 2.234841e-07
6.830000e+02 2.441776e-07
6.840000e+02 2.667145e-07
6.850000e+02 2.912528e-07
6.860000e+02 3.179611e-07
6.870000e+02 3.470257e-07
6.880000e+02 3.786452e-07
6.890000e+02 4.130353e-07
6.900000e+02 4.504288e-07
6.910000e+02 4.910769e-07
6.920000e+02 5.352522e-07
6.930000e+02 5.832480e-07
6.940000e+02 6.353812e-07
6.950000e+02 6.919939e-07
6.960000e+02 7.534553e-07
6.970000e+02 8.203020e-07
6.980000e+02 8.925484e-07
6.990000e+02 9.710730e-07
7.000000e+02 1.056237e-06
7.010000e+02 1.148577e-06
7.020000e+02 1.248675e-06
7.030000e+02 1.357155e-06
7.040000e+02 1.474690e-06
7.050000e+02 1.602003e-06
7.060000e+02 1.739876e-06
7.070000e+02 1.889146e-06
7.080000e+02 2.050718e-06
7.090000e+02 2.225579e-06
7.100000e+02 2.414725e-06
7.110000e+02 2.619328e-06
7.120000e+02 2.840579e-06
7.130000e+02 3.079777e-06
7.140000e+02 3.338314e-06
7.150000e+02 3.617691e-06
7.160000e+02 3.919515e-06
7.170000e+02 4.245624e-06
7.180000e+02 4.598119e-06
7.190000e+02 4.977581e-06
7.200000e+02 5.387772e-06
7.210000e+02 5.830407e-06
7.220000e+02 6.307952e-06
7.230000e+02 6.823015e-06
7.240000e+02 7.378445e-06
7.250000e+02 7.977264e-06
7.260000e+02 8.622714e-06
7.270000e+02 9.318271e-06
7.280000e+02 1.006766e-05
7.290000e+02 1.087486e-05
7.300000e+02 1.174414e-05
7.310000e+02 1.268008e-05
7.320000e+02 1.368756e-05
7.330000e+02 1.477182e-05
7.340000e+02 1.593844e-05
7.350000e+02 1.719343e-05
7.360000e+02 1.854332e-05
7.370000e+02 1.999451e-05
7.380000e+02 2.155477e-05
7.390000e+02 2.323176e-05
7.400000e+02 2.503408e-05
7.410000e+02 2.696991e-05
7.420000e+02 2.904975e-05
7.430000e+02 3.128283e-05
7.440000e+02 3.368071e-05
7.450000e+02 3.625474e-05
7.460000e+02 3.901729e-05
7.470000e+02 4.198157e-05
7.480000e+02 4.516164e-05
7.490000e+02 4.857253e-05
7.500000e+02 5.223023e-05
7.510000e+02 5.615182e-05
7.520000e+02 6.035548e-05
7.530000e+02 6.486059e-05
7.540000e+02 6.968782e-05
7.550000e+02 7.485918e-05
7.560000e+02 8.039803e-05
7.570000e+02 8.633377e-05
7.580000e+02 9.267979e-05
7.590000e+02 9.948019e-05
7.600000e+02 1.067528e-04
7.610000e+02 1.145366e-04
7.620000e+02 1.228641e-04
7.630000e+02 1.317718e-04
7.640000e+02 1.412977e-04
7.650000e+02 1.514831e-04
7.660000e+02 1.623705e-04
7.670000e+02 1.740074e-04
7.680000e+02 1.864512e-04
7.690000e+02 1.997288e-04
7.700000e+02 2.139180e-04
7.710000e+02 2.290741e-04
7.720000e+02 2.452572e-04
7.730000e+02 2.625346e-04
7.740000e+02 2.809764e-04
7.750000e+02 3.006574e-04
7.760000e+02 3.217561e-04
7.770000e+02 3.440599e-04
7.780000e+02 3.679541e-04
7.790000e+02 3.934362e-04
7.800000e+02 4.206060e-04
7.810000e+02 4.495694e-04
7.820000e+02 4.804406e-04
7.830000e+02 5.133384e-04
7.840000e+02 5.483900e-04
7.850000e+02 5.857298e-04
7.860000e+02 6.255009e-04
7.870000e+02 6.678369e-04
7.880000e+02 7.129287e-04
7.890000e+02 7.609304e-04
7.900000e+02 8.120211e-04
7.910000e+02 8.663901e-04
7.920000e+02 9.242377e-04
7.930000e+02 9.857761e-04
7.940000e+02 1.051230e-03
7.950000e+02 1.120836e-03
7.960000e+02 1.194845e-03
7.970000e+02 1.273523e-03
7.980000e+02 1.357149e-03
7.990000e+02 1.446021e-03
8.000000e+02 1.540452e-03
8.010000e+02 1.640776e-03
8.020000e+02 1.747331e-03
8.030000e+02 1.860499e-03
8.040000e+02 1.980666e-03
8.050000e+02 2.108244e-03
8.060000e+02 2.243667e-03
8.070000e+02 2.387395e-03
8.080000e+02 2.539913e-03
8.090000e+02 2.701731e-03
8.100000e+02 2.873391e-03
8.110000e+02 3.055461e-03
8.120000e+02 3.248541e-03
8.130000e+02 3.453265e-03
8.140000e+02 3.670302e-03
8.150000e+02 3.900377e-03
8.160000e+02 4.144167e-03
8.170000e+02 4.402520e-03
8.180000e+02 4.676239e-03
8.190000e+02 4.966192e-03
8.200000e+02 5.273296e-03
8.210000e+02 5.598515e-03
8.220000e+02 5.942865e-03
8.230000e+02 6.307417e-03
8.240000e+02 6.693291e-03
8.250000e+02 7.101676e-03
8.260000e+02 7.533825e-03
8.270000e+02 7.991049e-03
8.280000e+02 8.474727e-03
8.290000e+02 8.986318e-03
8.300000e+02 9.527350e-03
8.310000e+02 1.009943e-02
8.320000e+02 1.070426e-02
8.330000e+02 1.134361e-02
8.340000e+02 1.201935e-02
8.350000e+02 1.274389e-02
8.360000e+02 1.348873e-02
8.370000e+02 1.428515e-02
8.380000e+02 1.512724e-02
8.390000e+02 1.601650e-02
8.400000e+02 1.695563e-02
8.410000e+02 1.794735e-02
8.420000e+02 1.899751e-02
8.430000e+02 2.009905e-02
8.440000e+02 2.126528e-02
8.450000e+02 2.249594e-02
8.460000e+02 2.379444e-02
8.470000e+02 2.516431e-02
8.480000e+02 2.660928e-02
8.490000e+02 2.813325e-02
8.500000e+02 2.974032e-02
8.510000e+02 3.143479e-02
8.520000e+02 3.322139e-02
8.530000e+02 3.510421e-02
8.540000e+02 3.708767e-02
8.550000e+02 3.917901e-02
8.560000e+02 4.138258e-02
8.570000e+02 4.370411e-02
8.580000e+02 4.614995e-02
8.590000e+02 4.872524e-02
8.600000e+02 5.143768e-02
8.610000e+02 5.429385e-02
8.620000e+02 5.730077e-02
8.630000e+02 6.046633e-02
8.640000e+02 6.379792e-02
8.650000e+02 6.730458e-02
8.660000e+02 7.099393e-02
8.670000e+02 7.487596e-02
8.680000e+02 7.895985e-02
8.690000e+02 8.325556e-02
8.700000e+02 8.777515e-02
8.710000e+02 9.252453e-02
8.720000e+02 9.752007e-02
8.730000e+02 1.027720e-01
8.740000e+02 1.082929e-01
8.750000e+02 1.140956e-01
8.760000e+02 1.201939e-01
8.770000e+02 1.266028e-01
8.780000e+02 1.333348e-01
8.790000e+02 1.404079e-01
8.800000e+02 1.478374e-01
8.810000e+02 1.556406e-01
8.820000e+02 1.638351e-01
8.830000e+02 1.724394e-01
8.840000e+02 1.814731e-01
8.850000e+02 1.909564e-01
8.860000e+02 2.009104e-01
8.870000e+02 2.113571e-01
8.880000e+02 2.223199e-01
8.890000e+02 2.338226e-01
8.900000e+02 2.458905e-01
8.910000e+02 2.585499e-01
8.920000e+02 2.744812e-01
8.930000e+02 2.857538e-01
8.940000e+02 3.003567e-01
8.950000e+02 3.156684e-01
8.960000e+02 3.317205e-01
8.970000e+02 3.485477e-01
8.980000e+02 3.661851e-01
8.990000e+02 3.846695e-01
9.000000e+02 4.040395e-01
9.010000e+02 4.243349e-01
9.020000e+02 4.455979e-01
9.030000e+02 4.678719e-01
9.040000e+02 4.912019e-01
9.050000e+02 5.156362e-01
9.060000e+02 5.412226e-01
9.070000e+02 5.680397e-01
9.080000e+02 5.960631e-01
9.090000e+02 6.254261e-01
9.100000e+02 6.561610e-01
9.110000e+02 6.883128e-01
9.120000e+02 7.218770e-01
9.130000e+02 7.973877e-01
9.140000e+02 5.572567e-01
9.150000e+02 9.917042e+00
9.160000e+02 3.533110e+01
9.170000e+02 1.284240e+01
9.180000e+02 2.874203e+01
9.190000e+02 6.163445e+01
9.200000e+02 7.067725e+01
9.210000e+02 1.164014e+00
9.220000e+02 6.945088e+01
9.230000e+02 1.758074e+01
9.240000e+02 2.462073e+01
9.250000e+02 5.059222e+01
9.260000e+02 6.385519e+01
9.270000e+02 1.671350e+01
9.280000e+02 9.813965e+01
9.290000e+02 8.618589e+01
9.300000e+02 1.016648e+02
9.310000e+02 1.686476e+01
9.320000e+02 1.139258e+02
9.330000e+02 9.418763e+01
9.340000e+02 7.367664e+01
9.350000e+02 3.821683e-01
9.360000e+02 2.326977e+01
9.370000e+02 2.780285e-01
9.380000e+02 1.778808e+01
9.390000e+02 3.790532e+01
9.400000e+02 1.502045e+02
9.410000e+02 7.871560e+00
9.420000e+02 1.623518e+02
9.430000e+02 5.292702e+01
9.440000e+02 1.222352e+02
9.450000e+02 1.804701e+02
9.460000e+02 1.615593e+02
9.470000e+02 6.467812e+00
9.480000e+02 1.636834e+02
9.490000e+02 1.947971e+02
9.500000e+02 7.844009e-01
9.510000e+02 1.696730e+02
9.520000e+02 1.977502e+02
9.530000e+02 1.316866e+01
9.540000e+02 6.504010e+00
9.550000e+02 1.230951e+02
9.560000e+02 2.391952e+02
9.570000e+02 1.849146e+01
9.580000e+02 2.105133e+00
9.590000e+02 2.992359e+02
9.600000e+02 7.857819e-01
9.610000e+02 2.488068e+02
9.620000e+02 1.818629e+02
9.630000e+02 1.424346e+02
9.640000e+02 2.623734e+00
9.650000e+02 1.324704e+01
9.660000e+02 1.523046e+02
9.670000e+02 4.726749e+01
9.680000e+02 2.299930e+01
9.690000e+02 2.808907e+02
9.700000e+02 2.622206e+02
9.710000e+02 4.775957e+01
9.720000e+02 6.136267e+01
9.730000e+02 2.992910e+02
9.740000e+02 3.371546e+02
9.750000e+02 2.114485e+02
9.760000e+02 5.033435e+02
9.770000e+02 4.834426e+02
9.780000e+02 3.618257e+02
9.790000e+02 6.018833e+02
9.800000e+02 6.229295e+02
9.810000e+02 4.120193e+02
9.820000e+02 1.551548e+02
9.830000e+02 6.746978e+02
9.840000e+02 3.024370e+01
9.850000e+02 3.362322e+02
9.860000e+02 3.478278e+02
9.870000e+02 7.744521e+02
9.880000e+02 2.205261e+01
9.890000e+02 4.900439e+02
9.900000e+02 3.166141e+00
9.910000e+02 7.937118e+01
9.920000e+02 6.358818e+00
9.930000e+02 8.307906e+02
9.940000e+02 4.615295e+00
9.950000e+02 2.600097e+01
9.960000e+02 5.381274e+01
9.970000e+02 1.138854e+01
9.980000e+02 9.599647e+02
9.990000e+02 9.115179e+01
1.000000e+03 1.143293e+03
1.001000e+03 1.277027e+03
1.002000e+03 1.298389e+03
1.003000e+03 2.766820e+02
1.004000e+03 3.945532e+01
1.005000e+03 4.717307e+02
1.006000e+03 1.452013e+03
1.007000e+03 1.538624e+03
1.008000e+03 1.467419e+03
1.009000e+03 4.081026e+02
1.010000e+03 1.566382e+03
1.011000e+03 1.729262e+03
1.012000e+03 1.670310e+03
1.013000e+03 1.675678e+03
1.014000e+03 1.280334e+01
1.015000e+03 3.932910e+01
1.016000e+03 4.903154e+02
1.017000e+03 1.334277e+01
1.018000e+03 4.391801e+02
1.019000e+03 4.174219e+01
1.020000e+03 2.262943e+03
1.021000e+03 1.379167e+02
1.022000e+03 4.258481e+02
1.023000e+03 6.155127e+01
1.024000e+03 1.950489e+03
1.025000e+03 1.403476e+01
1.026000e+03 4.576502e+01
1.027000e+03 1.245133e+03
1.028000e+03 1.245435e+01
1.029000e+03 2.222925e+01
1.030000e+03 1.869388e+03
1.031000e+03 1.412290e+03
1.032000e+03 2.742923e+03
1.033000e+03 4.437769e+01
1.034000e+03 2.246838e+03
1.035000e+03 1.668896e+01
1.036000e+03 3.340771e+01
1.037000e+03 3.507414e+03
1.038000e+03 4.061329e+03
1.039000e+03 3.765316e+03
1.040000e+03 4.020258e+03
1.041000e+03 4.452216e+03
1.042000e+03 4.528954e+03
1.043000e+03 3.799133e+03
1.044000e+03 4.987514e+03
1.045000e+03 4.625491e+03
1.046000e+03 4.960001e+03
1.047000e+03 3.213087e+03
1.048000e+03 2.928564e+02
1.049000e+03 4.018366e+03
1.050000e+03 2.994358e+03
1.051000e+03 2.011980e+03
1.052000e+03 6.007028e+03
1.053000e+03 6.433496e+03
1.054000e+03 5.118359e+01
1.055000e+03 6.901765e+03
1.056000e+03 7.118934e+03
1.057000e+03 5.384885e+03
1.058000e+03 2.902910e+03
1.059000e+03 1.061797e+03
1.060000e+03 4.333730e+02
1.061000e+03 6.442944e+03
1.062000e+03 1.769455e+03
1.063000e+03 5.349038e+02
1.064000e+03 5.879590e+01
1.065000e+03 8.319922e+01
1.066000e+03 6.611952e+03
1.067000e+03 8.230518e+02
1.068000e+03 1.021357e+04
1.069000e+03 2.558599e+02
1.070000e+03 7.580122e+03
1.071000e+03 1.096430e+04
1.072000e+03 1.127513e+04
1.073000e+03 1.456885e+02
1.074000e+03 7.063734e+03
1.075000e+03 5.592077e+03
1.076000e+03 1.269165e+04
1.077000e+03 2.389014e+02
1.078000e+03 3.313248e+03
1.079000e+03 7.534909e+03
1.080000e+03 9.611497e+03
1.081000e+03 1.277455e+04
1.082000e+03 1.235281e+04
1.083000e+03 1.097488e+04
1.084000e+03 1.602343e+04
1.085000e+03 5.252993e+03
1.086000e+03 1.694327e+04
1.087000e+03 1.805556e+03
1.088000e+03 1.785341e+04
1.089000e+03 1.844965e+04
1.090000e+03 5.730795e+03
1.091000e+03 6.078688e+03
1.092000e+03 1.975477e+04
1.093000e+03 2.030082e+04
1.094000e+03 1.769455e+04
1.095000e+03 2.155586e+04
1.096000e+03 6.017810e+03
1.097000e+03 2.019505e+04
1.098000e+03 2.324727e+04
1.099000e+03 1.434686e+04
1.100000e+03 9.143376e+02
1.101000e+03 2.071655e+03
1.102000e+03 9.785700e+03
1.103000e+03 5.537268e+04
1.104000e+03 4.070023e+04
1.105000e+03 2.673195e+04
1.106000e+03 3.482537e+04
1.107000e+03 8.373164e+02
1.108000e+03 5.978377e+04
1.109000e+03 6.373430e+03
1.110000e+03 4.321236e+04
1.111000e+03 4.398451e+04
1.112000e+03 5.278467e+04
1.113000e+03 6.948989e+04
1.114000e+03 2.007295e+04
1.115000e+03 1.166230e+04
1.116000e+03 7.836242e+03
1.117000e+03 2.221271e+04
1.118000e+03 9.316191e+03
1.119000e+03 6.635740e+04
1.120000e+03 7.825250e+03
1.121000e+03 8.070562e+04
1.122000e+03 1.057656e+03
1.123000e+03 5.968827e+04
1.124000e+03 9.064745e+04
1.125000e+03 7.268300e+04
1.126000e+03 1.005437e+05
1.127000e+03 9.515854e+04
1.128000e+03 5.192346e+04
1.129000e+03 8.183158e+04
1.130000e+03 1.025755e+05
1.131000e+03 1.025276e+05
1.132000e+03 3.458641e+03
1.133000e+03 2.278284e+04
1.134000e+03 8.684612e+04
1.135000e+03 2.499758e+03
1.136000e+03 4.873299e+04
1.137000e+03 1.169463e+05
1.138000e+03 8.889548e+04
1.139000e+03 1.249938e+05
1.140000e+03 6.270186e+03
1.141000e+03 1.272624e+05
1.142000e+03 1.326994e+05
1.143000e+03 1.160591e+05
1.144000e+03 1.368682e+05
1.145000e+03 4.733438e+03
1.146000e+03 1.443478e+05
1.147000e+03 1.431775e+05
1.148000e+03 2.306728e+04
1.149000e+03 1.428239e+05
1.150000e+03 1.313492e+05
1.151000e+03 1.571020e+05
1.152000e+03 1.569567e+05
1.153000e+03 1.156322e+05
1.154000e+03 1.634266e+05
1.155000e+03 1.520638e+05
1.156000e+03 1.573158e+05
1.157000e+03 1.679656e+05
1.158000e+03 3.391447e+04
1.159000e+03 1.750619e+05
1.160000e+03 1.374341e+05
1.161000e+03 1.845819e+05
1.162000e+03 4.861694e+04
1.163000e+03 1.079241e+05
1.164000e+03 1.183094e+03
1.165000e+03 1.948389e+05
1.166000e+03 1.873677e+05
1.167000e+03 1.888258e+05
1.168000e+03 2.133331e+05
1.169000e+03 2.139480e+05
1.170000e+03 1.989865e+05
1.171000e+03 2.180055e+05
1.172000e+03 1.753248e+05
1.173000e+03 2.341131e+05
1.174000e+03 2.249498e+04
1.175000e+03 1.580812e+03
1.176000e+03 2.260859e+03
1.177000e+03 2.546778e+05
1.178000e+03 2.583610e+05
1.179000e+03 2.605376e+05
1.180000e+03 2.082927e+05
1.181000e+03 2.722241e+05
1.182000e+03 2.728464e+05
1.183000e+03 2.577264e+05
1.184000e+03 2.527217e+05
1.185000e+03 2.761204e+05
1.186000e+03 9.405340e+04
1.187000e+03 2.894977e+05
1.188000e+03 2.264713e+05
1.189000e+03 1.664031e+04
1.190000e+03 2.631858e+05
1.191000e+03 3.026999e+05
1.192000e+03 3.191341e+05
1.193000e+03 1.051809e+04
1.194000e+03 2.143431e+04
1.195000e+03 3.078993e+05
1.196000e+03 3.299723e+05
1.197000e+03 4.904102e+05
1.198000e+03 2.055163e+05
1.199000e+03 4.821452e+05
1.200000e+03 2.693429e+05
1.201000e+03 4.643496e+05
1.202000e+03 3.926770e+05
1.203000e+03 5.516932e+05
1.204000e+03 2.519831e+05
1.205000e+03 4.851534e+05
1.206000e+03 4.831874e+05
1.207000e+03 4.549220e+04
1.208000e+03 3.634534e+05
1.209000e+03 2.859043e+05
1.210000e+03 4.922969e+03
1.211000e+03 1.498863e+05
1.212000e+03 8.054341e+04
1.213000e+03 3.796876e+04
1.214000e+03 1.217475e+04
1.215000e+03 4.814251e+03
1.216000e+03 7.810351e+03
1.217000e+03 8.491289e+03
1.218000e+03 2.992306e+04
1.219000e+03 7.608726e+04
1.220000e+03 1.184891e+05
1.221000e+03 2.424726e+05
1.222000e+03 3.417412e+05
1.223000e+03 4.404226e+05
1.224000e+03 5.189040e+05
1.225000e+03 2.218865e+05
1.226000e+03 7.617297e+05
1.227000e+03 8.363397e+05
1.228000e+03 6.119715e+05
1.229000e+03 9.503429e+05
1.230000e+03 9.548409e+05
1.231000e+03 5.703306e+05
1.232000e+03 1.185587e+06
1.233000e+03 1.258564e+06
1.234000e+03 8.671879e+05
1.235000e+03 1.344640e+06
1.236000e+03 8.632563e+05
1.237000e+03 1.449598e+06
1.238000e+03 1.466817e+06
1.239000e+03 1.453573e+06
1.240000e+03 7.069889e+05
1.241000e+03 1.448493e+06
1.242000e+03 1.593893e+06
1.243000e+03 1.701801e+06
1.244000e+03 1.662743e+06
1.245000e+03 1.741551e+06
1.246000e+03 1.781793e+06
1.247000e+03 1.839819e+06
1.248000e+03 1.421369e+06
1.249000e+03 1.913631e+06
1.250000e+03 1.535554e+06
1.251000e+03 2.065270e+06
1.252000e+03 2.000416e+06
1.253000e+03 2.146885e+06
1.254000e+03 2.128839e+06
1.255000e+03 2.138364e+06
1.256000e+03 2.164075e+06
1.257000e+03 1.955005e+06
1.258000e+03 2.090221e+06
1.259000e+03 2.312202e+06
1.260000e+03 2.425449e+06
1.261000e+03 3.820950e+04
1.262000e+03 2.214294e+06
1.263000e+03 2.504432e+06
1.264000e+03 2.418454e+06
1.265000e+03 7.265625e+04
1.266000e+03 2.712596e+06
1.267000e+03 2.587440e+06
