# wavelength_A flux
5.000000e+02 1.337568e-28
5.010000e+02 1.665848e-28
5.020000e+02 2.072848e-28
5.030000e+02 2.577002e-28
5.040000e+02 3.200953e-28
5.050000e+02 4.064078e-28
5.060000e+02 5.036710e-28
5.070000e+02 6.235129e-28
5.080000e+02 7.714859e-28
5.090000e+02 9.535935e-28
5.100000e+02 1.151016e-27
5.110000e+02 1.453279e-27
5.120000e+02 1.791419e-27
5.130000e+02 2.207483e-27
5.140000e+02 2.717309e-27
5.150000e+02 3.342132e-27
5.160000e+02 4.107281e-27
5.170000e+02 5.043751e-27
5.180000e+02 6.188651e-27
5.190000e+02 7.587394e-27
5.200000e+02 9.294923e-27
5.210000e+02 1.137775e-26
5.220000e+02 1.391455e-26
5.230000e+02 1.700832e-26
5.240000e+02 2.077132e-26
5.250000e+02 2.534718e-26
5.260000e+02 3.090740e-26
5.270000e+02 3.765866e-26
5.280000e+02 4.584992e-26
5.290000e+02 5.578083e-26
5.300000e+02 6.781209e-26
5.310000e+02 8.237689e-26
5.320000e+02 9.999588e-26
5.330000e+02 1.212939e-25
5.340000e+02 1.470203e-25
5.350000e+02 1.780733e-25
5.360000e+02 2.155277e-25
5.370000e+02 2.587700e-25
5.380000e+02 3.150506e-25
5.390000e+02 3.805023e-25
5.400000e+02 4.592225e-25
5.410000e+02 5.538248e-25
5.420000e+02 6.674770e-25
5.430000e+02 8.038727e-25
5.440000e+02 9.674682e-25
5.450000e+02 1.163553e-24
5.460000e+02 1.398418e-24
5.470000e+02 1.679545e-24
5.480000e+02 2.015816e-24
5.490000e+02 2.417778e-24
5.500000e+02 2.897944e-24
5.510000e+02 3.471147e-24
5.520000e+02 4.154962e-24
5.530000e+02 4.970197e-24
5.540000e+02 5.941476e-24
5.550000e+02 7.097912e-24
5.560000e+02 8.473912e-24
5.570000e+02 1.011011e-23
5.580000e+02 1.205446e-23
5.590000e+02 1.436353e-23
5.600000e+02 1.710400e-23
5.610000e+02 2.035441e-23
5.620000e+02 2.420724e-23
5.630000e+02 2.877129e-23
5.640000e+02 3.417450e-23
5.650000e+02 4.056719e-23
5.660000e+02 4.812596e-23
5.670000e+02 5.705803e-23
5.680000e+02 6.760649e-23
5.690000e+02 8.005634e-23
5.700000e+02 9.474148e-23
5.710000e+02 1.120529e-22
5.720000e+02 1.324481e-22
5.730000e+02 1.564622e-22
5.740000e+02 1.847207e-22
5.750000e+02 2.179543e-22
5.760000e+02 2.570158e-22
5.770000e+02 3.029043e-22
5.780000e+02 3.567750e-22
5.790000e+02 4.199837e-22
5.800000e+02 4.941066e-22
5.810000e+02 5.809789e-22
5.820000e+02 6.827357e-22
5.830000e+02 8.018582e-22
5.840000e+02 9.411524e-22
5.850000e+02 1.104207e-21
5.860000e+02 1.294721e-21
5.870000e+02 1.517234e-21
5.880000e+02 1.777005e-21
5.890000e+02 2.080109e-21
5.900000e+02 2.433582e-21
5.910000e+02 2.845574e-21
5.920000e+02 3.325514e-21
5.930000e+02 3.884309e-21
5.940000e+02 4.534572e-21
5.950000e+02 5.290873e-21
5.960000e+02 6.170042e-21
5.970000e+02 7.191505e-21
5.980000e+02 8.377674e-21
5.990000e+02 9.754394e-21
6.000000e+02 1.135145e-20
6.010000e+02 1.320316e-20
6.020000e+02 1.534903e-20
6.030000e+02 1.783453e-20
6.040000e+02 2.071195e-20
6.050000e+02 2.404143e-20
6.060000e+02 2.789205e-20
6.070000e+02 3.234317e-20
6.080000e+02 3.748589e-20
6.090000e+02 4.342474e-20
6.100000e+02 5.027959e-20
6.110000e+02 5.818788e-20
6.120000e+02 6.730705e-20
6.130000e+02 7.781744e-20
6.140000e+02 8.992547e-20
6.150000e+02 1.038673e-19
6.160000e+02 1.199130e-19
6.170000e+02 1.383714e-19
6.180000e+02 1.595952e-19
6.190000e+02 1.839872e-19
6.200000e+02 2.120074e-19
6.210000e+02 2.441803e-19
6.220000e+02 2.811044e-19
6.230000e+02 3.234619e-19
6.240000e+02 3.720300e-19
6.250000e+02 4.276939e-19
6.260000e+02 4.914615e-19
6.270000e+02 5.644793e-19
6.280000e+02 6.480520e-19
6.290000e+02 7.436622e-19
6.300000e+02 8.529952e-19
6.310000e+02 9.778986e-19
6.320000e+02 1.120746e-18
6.330000e+02 1.283804e-18
6.340000e+02 1.469938e-18
6.350000e+02 1.682319e-18
6.360000e+02 1.924552e-18
6.370000e+02 2.200703e-18
6.380000e+02 2.515392e-18
6.390000e+02 2.873843e-18
6.400000e+02 3.281969e-18
6.410000e+02 3.746459e-18
6.420000e+02 4.274872e-18
6.430000e+02 4.875757e-18
6.440000e+02 5.558768e-18
6.450000e+02 6.334807e-18
6.460000e+02 7.216182e-18
6.470000e+02 8.216780e-18
6.480000e+02 9.352263e-18
6.490000e+02 1.064029e-17
6.500000e+02 1.210077e-17
6.510000e+02 1.375611e-17
6.520000e+02 1.563158e-17
6.530000e+02 1.775558e-17
6.540000e+02 2.016010e-17
6.550000e+02 2.288112e-17
6.560000e+02 2.595907e-17
6.570000e+02 2.943942e-17
6.580000e+02 3.337325e-17
6.590000e+02 3.781790e-17
6.600000e+02 4.283778e-17
6.610000e+02 4.850515e-17
6.620000e+02 5.490107e-17
6.630000e+02 6.211646e-17
6.640000e+02 7.025322e-17
6.650000e+02 7.942553e-17
6.660000e+02 8.976133e-17
6.670000e+02 1.014038e-16
6.680000e+02 1.145133e-16
6.690000e+02 1.292691e-16
6.700000e+02 1.458719e-16
6.710000e+02 1.645461e-16
6.720000e+02 1.855424e-16
6.730000e+02 2.091408e-16
6.740000e+02 2.356544e-16
6.750000e+02 2.654324e-16
6.760000e+02 2.988648e-16
6.770000e+02 3.363866e-16
6.780000e+02 3.784830e-16
6.790000e+02 4.256951e-16
6.800000e+02 4.786259e-16
6.810000e+02 5.379470e-16
6.820000e+02 6.044069e-16
6.830000e+02 6.788387e-16
6.840000e+02 7.621698e-16
6.850000e+02 8.554319e-16
6.860000e+02 9.597727e-16
6.870000e+02 1.076468e-15
6.880000e+02 1.206938e-15
6.890000e+02 1.352756e-15
6.900000e+02 1.515675e-15
6.910000e+02 1.697639e-15
6.920000e+02 1.900806e-15
6.930000e+02 2.127570e-15
6.940000e+02 2.380590e-15
6.950000e+02 2.662811e-15
6.960000e+02 2.977501e-15
6.970000e+02 3.328279e-15
6.980000e+02 3.719158e-15
6.990000e+02 4.154579e-15
7.000000e+02 4.639463e-15
7.010000e+02 5.179254e-15
7.020000e+02 5.779977e-15
7.030000e+02 6.448298e-15
7.040000e+02 7.191587e-15
7.050000e+02 8.017991e-15
7.060000e+02 8.936510e-15
7.070000e+02 9.957111e-15
7.080000e+02 1.109076e-14
7.090000e+02 1.234961e-14
7.100000e+02 1.374704e-14
7.110000e+02 1.529783e-14
7.120000e+02 1.701829e-14
7.130000e+02 1.892639e-14
7.140000e+02 2.104196e-14
7.150000e+02 2.338685e-14
7.160000e+02 2.598512e-14
7.170000e+02 2.886330e-14
7.180000e+02 3.205058e-14
7.190000e+02 3.557911e-14
7.200000e+02 3.948428e-14
7.210000e+02 4.380499e-14
7.220000e+02 4.858408e-14
7.230000e+02 5.386861e-14
7.240000e+02 5.971033e-14
7.250000e+02 6.616615e-14
7.260000e+02 7.329852e-14
7.270000e+02 8.117610e-14
7.280000e+02 8.987425e-14
7.290000e+02 9.947570e-14
7.300000e+02 1.100712e-13
7.310000e+02 1.217605e-13
7.320000e+02 1.346527e-13
7.330000e+02 1.488678e-13
7.340000e+02 1.645369e-13
7.350000e+02 1.818041e-13
7.360000e+02 2.008271e-13
7.370000e+02 2.217786e-13
7.380000e+02 2.448478e-13
7.390000e+02 2.702418e-13
7.400000e+02 2.981872e-13
7.410000e+02 3.289321e-13
7.420000e+02 3.627476e-13
7.430000e+02 3.999306e-13
7.440000e+02 4.408054e-13
7.450000e+02 4.857264e-13
7.460000e+02 5.350811e-13
7.470000e+02 5.892929e-13
7.480000e+02 6.488238e-13
7.490000e+02 7.141787e-13
7.500000e+02 7.859086e-13
7.510000e+02 8.646147e-13
7.520000e+02 9.509531e-13
7.530000e+02 1.045639e-12
7.540000e+02 1.149454e-12
7.550000e+02 1.263248e-12
7.560000e+02 1.387949e-12
7.570000e+02 1.524566e-12
7.580000e+02 1.674202e-12
7.590000e+02 1.838056e-12
7.600000e+02 2.017432e-12
7.610000e+02 2.213752e-12
7.620000e+02 2.428564e-12
7.630000e+02 2.663551e-12
7.640000e+02 2.920543e-12
7.650000e+02 3.201533e-12
7.660000e+02 3.508687e-12
7.670000e+02 3.844357e-12
7.680000e+02 4.211102e-12
7.690000e+02 4.611702e-12
7.700000e+02 5.049176e-12
7.710000e+02 5.526804e-12
7.720000e+02 6.048147e-12
7.730000e+02 6.617068e-12
7.740000e+02 7.237763e-12
7.750000e+02 7.914784e-12
7.760000e+02 8.653067e-12
7.770000e+02 9.457966e-12
7.780000e+02 1.033529e-11
7.790000e+02 1.129132e-11
7.800000e+02 1.233290e-11
7.810000e+02 1.346739e-11
7.820000e+02 1.470283e-11
7.830000e+02 1.604786e-11
7.840000e+02 1.751189e-11
7.850000e+02 1.910507e-11
7.860000e+02 2.083841e-11
7.870000e+02 2.272381e-11
7.880000e+02 2.477415e-11
7.890000e+02 2.700336e-11
7.900000e+02 2.942650e-11
7.910000e+02 3.205985e-11
7.920000e+02 3.492103e-11
7.930000e+02 3.802905e-11
7.940000e+02 4.140446e-11
7.950000e+02 4.506948e-11
7.960000e+02 4.904806e-11
7.970000e+02 5.336612e-11
7.980000e+02 5.805159e-11
7.990000e+02 6.313464e-11
8.000000e+02 6.864783e-11
8.010000e+02 7.462626e-11
8.020000e+02 8.110784e-11
8.030000e+02 8.813338e-11
8.040000e+02 9.574695e-11
8.050000e+02 1.039959e-10
8.060000e+02 1.129318e-10
8.070000e+02 1.226093e-10
8.080000e+02 1.330880e-10
8.090000e+02 1.444319e-10
8.100000e+02 1.567099e-10
8.110000e+02 1.699961e-10
8.120000e+02 1.843703e-10
8.130000e+02 1.999186e-10
8.140000e+02 2.167333e-10
8.150000e+02 2.349139e-10
8.160000e+02 2.545675e-10
8.170000e+02 2.758090e-10
8.180000e+02 2.987621e-10
8.190000e+02 3.235598e-10
8.200000e+02 3.503450e-10
8.210000e+02 3.792713e-10
8.220000e+02 4.105035e-10
8.230000e+02 4.442190e-10
8.240000e+02 4.806080e-10
8.250000e+02 5.198748e-10
8.260000e+02 5.622387e-10
8.270000e+02 6.079351e-10
8.280000e+02 6.572168e-10
8.290000e+02 7.103546e-10
8.300000e+02 7.676393e-10
8.310000e+02 8.293828e-10
8.320000e+02 8.959194e-10
8.330000e+02 9.676075e-10
8.340000e+02 1.044832e-09
8.350000e+02 1.128003e-09
8.360000e+02 1.217563e-09
8.370000e+02 1.313986e-09
8.380000e+02 1.417775e-09
8.390000e+02 1.529475e-09
8.400000e+02 1.649666e-09
8.410000e+02 1.778969e-09
8.420000e+02 1.918050e-09
8.430000e+02 2.067620e-09
8.440000e+02 2.228441e-09
8.450000e+02 2.401329e-09
8.460000e+02 2.587155e-09
8.470000e+02 2.786851e-09
8.480000e+02 3.001413e-09
8.490000e+02 3.231907e-09
8.500000e+02 3.479473e-09
8.510000e+02 3.745326e-09
8.520000e+02 4.030768e-09
8.530000e+02 4.337187e-09
8.540000e+02 4.666068e-09
8.550000e+02 5.018995e-09
8.560000e+02 5.397659e-09
8.570000e+02 5.803867e-09
8.580000e+02 6.239548e-09
8.590000e+02 6.706757e-09
8.600000e+02 7.207691e-09
8.610000e+02 7.744693e-09
8.620000e+02 8.320259e-09
8.630000e+02 8.937056e-09
8.640000e+02 9.597923e-09
8.650000e+02 1.030589e-08
8.660000e+02 1.106419e-08
8.670000e+02 1.187625e-08
8.680000e+02 1.274576e-08
8.690000e+02 1.367661e-08
8.700000e+02 1.467296e-08
8.710000e+02 1.573926e-08
8.720000e+02 1.688022e-08
8.730000e+02 1.810086e-08
8.740000e+02 1.940655e-08
8.750000e+02 2.080297e-08
8.760000e+02 2.229619e-08
8.770000e+02 2.389265e-08
8.780000e+02 2.559923e-08
8.790000e+02 2.742323e-08
8.800000e+02 2.937240e-08
8.810000e+02 3.145501e-08
8.820000e+02 3.367983e-08
8.830000e+02 3.605620e-08
8.840000e+02 3.859404e-08
8.850000e+02 4.130390e-08
8.860000e+02 4.419697e-08
8.870000e+02 4.728517e-08
8.880000e+02 5.058114e-08
8.890000e+02 5.409829e-08
8.900000e+02 5.785092e-08
8.910000e+02 6.185414e-08
8.920000e+02 6.612405e-08
8.930000e+02 7.067771e-08
8.940000e+02 7.553323e-08
8.950000e+02 8.070983e-08
8.960000e+02 8.622791e-08
8.970000e+02 9.210910e-08
8.980000e+02 9.837635e-08
8.990000e+02 1.050540e-07
9.000000e+02 1.121679e-07
9.010000e+02 1.197453e-07
9.020000e+02 1.278153e-07
9.030000e+02 1.364086e-07
9.040000e+02 1.455578e-07
9.050000e+02 1.552974e-07
9.060000e+02 1.656641e-07
9.070000e+02 1.766965e-07
9.080000e+02 1.884356e-07
9.090000e+02 2.009251e-07
9.100000e+02 2.142109e-07
9.110000e+02 2.283416e-07
9.120000e+02 2.433690e-07
9.130000e+02 2.593475e-07
9.140000e+02 2.882243e-07
9.150000e+02 8.471930e-05
9.160000e+02 3.464888e-04
9.170000e+02 5.538879e-06
9.180000e+02 1.102932e-04
9.190000e+02 9.677578e-04
9.200000e+02 2.423221e-03
9.210000e+02 4.291069e-07
9.220000e+02 4.131649e-04
9.230000e+02 7.631630e-06
9.240000e+02 9.307871e-06
9.250000e+02 6.834649e-05
9.260000e+02 1.433104e-04
9.270000e+02 7.541141e-06
9.280000e+02 8.867347e-03
9.290000e+02 1.166238e-02
9.300000e+02 2.918038e-03
9.310000e+02 1.024252e-05
9.320000e+02 9.609775e-03
9.330000e+02 3.370997e-04
9.340000e+02 1.062602e-04
9.350000e+02 5.115780e-05
9.360000e+02 1.976097e-05
9.370000e+02 6.260268e-06
9.380000e+02 3.145083e-05
9.390000e+02 5.239864e-05
9.400000e+02 3.256566e-03
9.410000e+02 5.792416e-04
9.420000e+02 3.337153e-02
9.430000e+02 7.585157e-05
9.440000e+02 3.906988e-02
9.450000e+02 2.760800e-02
9.460000e+02 1.034620e-03
9.470000e+02 3.853114e-06
9.480000e+02 8.409977e-03
9.490000e+02 1.710987e-03
9.500000e+02 6.301165e-05
9.510000e+02 9.597368e-04
9.520000e+02 1.844969e-03
9.530000e+02 1.856222e-05
9.540000e+02 4.716090e-06
9.550000e+02 1.949593e-04
9.560000e+02 2.676356e-02
9.570000e+02 1.077474e-04
9.580000e+02 4.047586e-06
9.590000e+02 8.069632e-03
9.600000e+02 1.153491e-04
9.610000e+02 1.362702e-03
9.620000e+02 5.324800e-04
9.630000e+02 1.345621e-04
9.640000e+02 2.870406e-05
9.650000e+02 1.162477e-05
9.660000e+02 2.111644e-04
9.670000e+02 4.292885e-05
9.680000e+02 2.925470e-05
9.690000e+02 1.202715e-03
9.700000e+02 1.289801e-03
9.710000e+02 6.204725e-05
9.720000e+02 3.750890e-05
9.730000e+02 5.123856e-04
9.740000e+02 1.579829e-03
9.750000e+02 4.226199e-04
9.760000e+02 1.200080e-02
9.770000e+02 5.468202e-03
9.780000e+02 2.078590e-03
9.790000e+02 1.190221e-01
9.800000e+02 9.226796e-02
9.810000e+02 1.488406e-03
9.820000e+02 3.005099e-04
9.830000e+02 4.102584e-02
9.840000e+02 7.133352e-03
9.850000e+02 7.474527e-04
9.860000e+02 1.181670e-03
9.870000e+02 4.713059e-02
9.880000e+02 3.478304e-05
9.890000e+02 6.639176e-03
9.900000e+02 2.108285e-02
9.910000e+02 2.929247e-04
9.920000e+02 2.618869e-05
9.930000e+02 2.321917e-01
9.940000e+02 7.733796e-05
9.950000e+02 1.096937e-02
9.960000e+02 1.047030e-04
9.970000e+02 1.456788e-02
9.980000e+02 2.275350e-02
9.990000e+02 5.498505e-04
1.000000e+03 4.220119e-01
1.001000e+03 3.021367e-01
1.002000e+03 1.422233e-01
1.003000e+03 5.792081e-04
1.004000e+03 6.641448e-05
1.005000e+03 1.824170e-03
1.006000e+03 8.196296e-02
1.007000e+03 1.801445e-01
1.008000e+03 3.821866e-02
1.009000e+03 9.192869e-04
1.010000e+03 4.126989e-02
1.011000e+03 7.192822e-02
1.012000e+03 5.431176e-02
1.013000e+03 4.814777e-02
1.014000e+03 8.219853e-05
1.015000e+03 1.135096e-04
1.016000e+03 2.296247e-03
1.017000e+03 9.500980e-05
1.018000e+03 8.987188e-04
1.019000e+03 1.229942e-04
1.020000e+03 1.435478e-01
1.021000e+03 1.500398e-03
1.022000e+03 2.219334e-03
1.023000e+03 2.053156e-04
1.024000e+03 4.594380e-02
1.025000e+03 1.418788e-04
1.026000e+03 3.236195e-04
1.027000e+03 8.795012e-03
1.028000e+03 2.218504e-03
1.029000e+03 1.735911e-04
1.030000e+03 9.371668e-03
1.031000e+03 1.452044e-02
1.032000e+03 1.762510e-01
1.033000e+03 1.622622e-02
1.034000e+03 2.062300e-02
1.035000e+03 1.558863e-03
1.036000e+03 2.473369e-04
1.037000e+03 1.285293e-01
1.038000e+03 9.159040e-01
1.039000e+03 1.330051e-01
1.040000e+03 1.457785e-01
1.041000e+03 1.222132e+00
1.042000e+03 4.755883e-01
1.043000e+03 5.205758e-01
1.044000e+03 4.064095e+00
1.045000e+03 1.103260e-03
1.046000e+03 1.464261e-01
1.047000e+03 4.643899e-02
1.048000e+03 1.457237e-03
1.049000e+03 5.008738e-02
1.050000e+03 1.725504e-02
1.051000e+03 9.722531e-03
1.052000e+03 5.716066e-01
1.053000e+03 1.311185e+00
1.054000e+03 5.794764e-04
1.055000e+03 1.788735e+00
1.056000e+03 1.894142e+00
1.057000e+03 1.293021e-01
1.058000e+03 1.011945e-02
1.059000e+03 7.703781e-03
1.060000e+03 2.310246e-03
1.061000e+03 2.053771e-01
1.062000e+03 5.594770e-03
1.063000e+03 1.983138e-01
1.064000e+03 2.113342e-03
1.065000e+03 9.668469e-04
1.066000e+03 2.982028e-01
1.067000e+03 6.056317e-03
1.068000e+03 5.289753e+00
1.069000e+03 1.990855e-03
1.070000e+03 7.878590e-02
1.071000e+03 1.141547e+00
1.072000e+03 3.183800e+00
1.073000e+03 1.426458e-03
1.074000e+03 1.431504e-01
1.075000e+03 8.561993e-02
1.076000e+03 3.699326e+00
1.077000e+03 8.415297e-03
1.078000e+03 1.383066e-02
1.079000e+03 5.755605e-02
1.080000e+03 1.922415e-01
1.081000e+03 7.349071e-01
1.082000e+03 4.380479e-01
1.083000e+03 2.432575e-01
1.084000e+03 1.312834e+01
1.085000e+03 7.009339e-02
1.086000e+03 6.967432e+00
1.087000e+03 1.552582e-02
1.088000e+03 1.969929e+01
1.089000e+03 1.938677e+01
1.090000e+03 5.619271e-02
1.091000e+03 7.784462e-02
1.092000e+03 1.053276e+01
1.093000e+03 1.429382e+01
1.094000e+03 6.476431e-01
1.095000e+03 2.719790e+01
1.096000e+03 3.382276e+00
1.097000e+03 2.450778e+00
1.098000e+03 2.064860e+01
1.099000e+03 2.057419e-01
1.100000e+03 6.733418e-03
1.101000e+03 1.456504e-02
1.102000e+03 1.288582e-01
1.103000e+03 1.546522e+01
1.104000e+03 3.431122e+01
1.105000e+03 2.236193e+01
1.106000e+03 5.724834e-01
1.107000e+03 9.833336e-03
1.108000e+03 3.298739e+00
1.109000e+03 7.779312e-02
1.110000e+03 4.063310e+01
1.111000e+03 1.089208e+01
1.112000e+03 1.548957e+00
1.113000e+03 2.450224e+01
1.114000e+03 9.726462e-01
1.115000e+03 1.054716e-01
1.116000e+03 4.831577e-02
1.117000e+03 1.132028e+01
1.118000e+03 1.275671e-01
1.119000e+03 1.943633e+00
1.120000e+03 6.147575e-02
1.121000e+03 7.568424e+00
1.122000e+03 5.561975e+01
1.123000e+03 1.635264e+01
1.124000e+03 1.878242e+01
1.125000e+03 7.823043e+00
1.126000e+03 1.306517e+02
1.127000e+03 1.167078e+01
1.128000e+03 5.858465e+01
1.129000e+03 5.046253e+00
1.130000e+03 3.100260e+01
1.131000e+03 5.846628e+01
1.132000e+03 1.123965e-01
1.133000e+03 5.859261e-01
1.134000e+03 5.863937e+00
1.135000e+03 4.556626e+01
1.136000e+03 1.254694e+00
1.137000e+03 2.268037e+01
1.138000e+03 4.985249e+00
1.139000e+03 5.853029e+01
1.140000e+03 6.237000e+01
1.141000e+03 4.496081e+01
1.142000e+03 8.324875e+01
1.143000e+03 7.610390e+00
1.144000e+03 7.755003e+01
1.145000e+03 6.620026e-02
1.146000e+03 9.709187e+01
1.147000e+03 5.805787e+01
1.148000e+03 3.879776e-01
1.149000e+03 2.622238e+01
1.150000e+03 1.632491e+01
1.151000e+03 8.666964e+01
1.152000e+03 3.977315e+01
1.153000e+03 6.108581e+01
1.154000e+03 1.043321e+02
1.155000e+03 2.291662e+01
1.156000e+03 8.454343e+01
1.157000e+03 9.789696e+01
1.158000e+03 8.750114e+00
1.159000e+03 7.649045e+01
1.160000e+03 1.043052e+01
1.161000e+03 6.317771e+01
1.162000e+03 1.584198e+00
1.163000e+03 4.951988e+00
1.164000e+03 6.892424e-01
1.165000e+03 3.089482e+01
1.166000e+03 1.791045e+01
1.167000e+03 1.660717e+01
1.168000e+03 9.857169e+01
1.169000e+03 1.118082e+02
1.170000e+03 1.207195e+01
1.171000e+03 4.584441e+01
1.172000e+03 1.568606e+01
1.173000e+03 4.466978e+01
1.174000e+03 3.534031e-01
1.175000e+03 4.248257e-01
1.176000e+03 1.524863e-01
1.177000e+03 1.379677e+02
1.178000e+03 1.355004e+02
1.179000e+03 1.017706e+02
1.180000e+03 3.334642e+01
1.181000e+03 1.207992e+02
1.182000e+03 9.083663e+01
1.183000e+03 3.637979e+01
1.184000e+03 2.896812e+01
1.185000e+03 3.923669e+01
1.186000e+03 1.681097e+00
1.187000e+03 6.408783e+01
1.188000e+03 2.154806e+01
1.189000e+03 1.000050e+02
1.190000e+03 9.302539e+01
1.191000e+03 5.738126e+01
1.192000e+03 7.593347e+01
1.193000e+03 4.916943e+01
1.194000e+03 7.267646e+01
1.195000e+03 6.851646e+01
1.196000e+03 2.323723e+02
1.197000e+03 6.077505e+02
1.198000e+03 4.725922e+00
1.199000e+03 5.653970e+02
1.200000e+03 1.331632e+01
1.201000e+03 4.095580e+02
1.202000e+03 6.949907e+01
1.203000e+03 2.510692e+02
1.204000e+03 1.356614e+01
1.205000e+03 1.720801e+02
1.206000e+03 1.843624e+02
1.207000e+03 5.191879e+01
1.208000e+03 1.078489e+02
1.209000e+03 1.088434e+02
1.210000e+03 6.935921e-01
1.211000e+03 4.730281e+01
1.212000e+03 1.917989e+01
1.213000e+03 1.348625e+01
1.214000e+03 4.479032e+00
1.215000e+03 6.635591e-01
1.216000e+03 4.141812e-01
1.217000e+03 2.850587e+00
1.218000e+03 1.134776e+01
1.219000e+03 2.699707e+01
1.220000e+03 1.408097e+01
1.221000e+03 8.678727e+01
1.222000e+03 9.520381e+01
1.223000e+03 8.721340e+01
1.224000e+03 2.505380e+02
1.225000e+03 7.695038e+00
1.226000e+03 4.670049e+02
1.227000e+03 4.827791e+02
1.228000e+03 4.703067e+01
1.229000e+03 3.808562e+02
1.230000e+03 2.539282e+02
1.231000e+03 2.846027e+01
1.232000e+03 1.222765e+03
1.233000e+03 1.425694e+03
1.234000e+03 1.363492e+03
1.235000e+03 1.002569e+03
1.236000e+03 7.074564e+01
1.237000e+03 1.672209e+03
1.238000e+03 1.245311e+03
1.239000e+03 4.354080e+02
1.240000e+03 1.037109e+03
1.241000e+03 4.553026e+02
1.242000e+03 1.090177e+03
1.243000e+03 2.279192e+03
1.244000e+03 2.657023e+03
1.245000e+03 2.064954e+03
1.246000e+03 9.309342e+02
1.247000e+03 1.474899e+03
1.248000e+03 2.600885e+03
1.249000e+03 3.476046e+03
1.250000e+03 1.961055e+03
1.251000e+03 3.158672e+03
1.252000e+03 1.835595e+03
1.253000e+03 3.564223e+03
1.254000e+03 2.058990e+03
1.255000e+03 1.367396e+03
1.256000e+03 1.585536e+03
1.257000e+03 2.358675e+03
1.258000e+03 6.428149e+02
1.259000e+03 1.146392e+03
1.260000e+03 3.520450e+03
1.261000e+03 1.983159e+02
1.262000e+03 4.198581e+03
1.263000e+03 2.704684e+03
1.264000e+03 8.783608e+02
1.265000e+03 9.990063e+02
1.266000e+03 3.803078e+03
1.267000e+03 1.383521e+03
