# wavelength_A flux
5.000000e+02 1.698869e-29
5.010000e+02 2.114900e-29
5.020000e+02 2.630506e-29
5.030000e+02 3.268965e-29
5.040000e+02 4.058886e-29
5.050000e+02 7.290775e-29
5.060000e+02 9.023620e-29
5.070000e+02 1.113282e-28
5.080000e+02 1.376593e-28
5.090000e+02 1.697934e-28
5.100000e+02 6.768954e-29
5.110000e+02 2.576942e-28
5.120000e+02 3.163255e-28
5.130000e+02 3.898156e-28
5.140000e+02 4.788767e-28
5.150000e+02 5.877474e-28
5.160000e+02 7.207827e-28
5.170000e+02 8.835113e-28
5.180000e+02 1.082078e-27
5.190000e+02 1.324110e-27
5.200000e+02 1.619025e-27
5.210000e+02 1.978058e-27
5.220000e+02 2.410973e-27
5.230000e+02 2.945961e-27
5.240000e+02 3.591597e-27
5.250000e+02 4.375124e-27
5.260000e+02 5.325560e-27
5.270000e+02 6.477671e-27
5.280000e+02 7.873243e-27
5.290000e+02 9.556766e-27
5.300000e+02 1.160578e-26
5.310000e+02 1.407549e-26
5.320000e+02 1.705851e-26
5.330000e+02 2.065893e-26
5.340000e+02 2.500150e-26
5.350000e+02 3.023499e-26
5.360000e+02 3.653481e-26
5.370000e+02 3.682362e-26
5.380000e+02 5.324447e-26
5.390000e+02 6.422376e-26
5.400000e+02 7.740230e-26
5.410000e+02 9.317049e-26
5.420000e+02 1.121898e-25
5.430000e+02 1.349364e-25
5.440000e+02 1.621812e-25
5.450000e+02 1.947967e-25
5.460000e+02 2.336949e-25
5.470000e+02 2.804654e-25
5.480000e+02 3.362008e-25
5.490000e+02 4.027493e-25
5.500000e+02 4.821565e-25
5.510000e+02 5.768466e-25
5.520000e+02 6.896888e-25
5.530000e+02 8.240783e-25
5.540000e+02 9.840266e-25
5.550000e+02 1.174276e-24
5.560000e+02 1.400425e-24
5.570000e+02 1.669081e-24
5.580000e+02 1.988036e-24
5.590000e+02 2.366474e-24
5.600000e+02 2.815215e-24
5.610000e+02 3.346993e-24
5.620000e+02 3.976792e-24
5.630000e+02 4.722232e-24
5.640000e+02 5.604016e-24
5.650000e+02 6.646454e-24
5.660000e+02 7.878113e-24
5.670000e+02 9.332445e-24
5.680000e+02 1.104871e-23
5.690000e+02 1.307293e-23
5.700000e+02 1.545891e-23
5.710000e+02 1.826974e-23
5.720000e+02 2.157914e-23
5.730000e+02 2.547330e-23
5.740000e+02 3.005296e-23
5.750000e+02 3.543573e-23
5.760000e+02 4.173687e-23
5.770000e+02 4.919728e-23
5.780000e+02 5.791053e-23
5.790000e+02 6.812872e-23
5.800000e+02 8.010502e-23
5.810000e+02 9.413363e-23
5.820000e+02 1.105550e-22
5.830000e+02 1.297517e-22
5.840000e+02 1.516010e-22
5.850000e+02 1.783529e-22
5.860000e+02 2.092143e-22
5.870000e+02 2.450834e-22
5.880000e+02 2.869274e-22
5.890000e+02 3.357252e-22
5.900000e+02 3.926243e-22
5.910000e+02 4.589173e-22
5.920000e+02 5.361213e-22
5.930000e+02 6.259864e-22
5.940000e+02 7.305357e-22
5.950000e+02 8.521061e-22
5.960000e+02 9.933971e-22
5.970000e+02 1.157524e-21
5.980000e+02 1.348083e-21
5.990000e+02 1.569219e-21
6.000000e+02 1.825709e-21
6.010000e+02 2.123025e-21
6.020000e+02 2.467608e-21
6.030000e+02 2.866651e-21
6.040000e+02 3.328580e-21
6.050000e+02 3.863045e-21
6.060000e+02 4.481133e-21
6.070000e+02 5.195599e-21
6.080000e+02 6.021055e-21
6.090000e+02 6.974297e-21
6.100000e+02 8.074576e-21
6.110000e+02 9.343986e-21
6.120000e+02 1.080782e-20
6.130000e+02 1.249509e-20
6.140000e+02 1.443896e-20
6.150000e+02 1.667743e-20
6.160000e+02 1.925396e-20
6.170000e+02 2.221824e-20
6.180000e+02 2.562705e-20
6.190000e+02 2.954529e-20
6.200000e+02 3.404704e-20
6.210000e+02 3.921687e-20
6.220000e+02 4.515125e-20
6.230000e+02 5.196023e-20
6.240000e+02 5.976920e-20
6.250000e+02 6.872109e-20
6.260000e+02 7.897880e-20
6.270000e+02 9.072755e-20
6.280000e+02 1.041781e-19
6.290000e+02 1.195704e-19
6.300000e+02 1.371769e-19
6.310000e+02 1.561232e-19
6.320000e+02 1.803150e-19
6.330000e+02 2.065803e-19
6.340000e+02 2.366112e-19
6.350000e+02 2.708171e-19
6.360000e+02 3.099541e-19
6.370000e+02 3.545319e-19
6.380000e+02 4.053502e-19
6.390000e+02 4.632591e-19
6.400000e+02 5.292207e-19
6.410000e+02 6.043237e-19
6.420000e+02 6.898002e-19
6.430000e+02 7.870433e-19
6.440000e+02 8.976281e-19
6.450000e+02 1.023334e-18
6.460000e+02 1.166172e-18
6.470000e+02 1.328366e-18
6.480000e+02 1.512536e-18
6.490000e+02 1.721588e-18
6.500000e+02 1.958738e-18
6.510000e+02 2.227712e-18
6.520000e+02 2.532591e-18
6.530000e+02 2.878066e-18
6.540000e+02 3.269383e-18
6.550000e+02 3.712479e-18
6.560000e+02 4.213985e-18
6.570000e+02 4.781229e-18
6.580000e+02 5.423126e-18
6.590000e+02 6.148637e-18
6.600000e+02 6.968550e-18
6.610000e+02 7.894822e-18
6.620000e+02 8.940838e-18
6.630000e+02 1.012165e-17
6.640000e+02 1.145412e-17
6.650000e+02 1.295718e-17
6.660000e+02 1.465357e-17
6.670000e+02 1.656420e-17
6.680000e+02 1.871709e-17
6.690000e+02 2.114206e-17
6.700000e+02 2.387253e-17
6.710000e+02 2.694586e-17
6.720000e+02 3.040390e-17
6.730000e+02 3.429339e-17
6.740000e+02 3.866664e-17
6.750000e+02 4.358208e-17
6.760000e+02 4.910497e-17
6.770000e+02 5.530824e-17
6.780000e+02 6.227326e-17
6.790000e+02 7.009088e-17
6.800000e+02 7.886243e-17
6.810000e+02 8.870115e-17
6.820000e+02 9.973291e-17
6.830000e+02 1.120982e-16
6.840000e+02 1.259533e-16
6.850000e+02 1.414728e-16
6.860000e+02 1.588506e-16
6.870000e+02 1.783027e-16
6.880000e+02 2.000682e-16
6.890000e+02 2.244118e-16
6.900000e+02 2.516336e-16
6.910000e+02 2.820679e-16
6.920000e+02 3.160816e-16
6.930000e+02 3.540802e-16
6.940000e+02 3.965168e-16
6.950000e+02 4.438945e-16
6.960000e+02 4.967707e-16
6.970000e+02 5.557497e-16
6.980000e+02 6.215631e-16
6.990000e+02 6.949289e-16
7.000000e+02 7.767060e-16
7.010000e+02 8.678300e-16
7.020000e+02 9.693373e-16
7.030000e+02 1.082376e-15
7.040000e+02 1.208216e-15
7.050000e+02 1.348265e-15
7.060000e+02 1.500953e-15
7.070000e+02 1.677377e-15
7.080000e+02 1.870065e-15
7.090000e+02 2.084243e-15
7.100000e+02 2.322244e-15
7.110000e+02 2.586629e-15
7.120000e+02 2.880238e-15
7.130000e+02 3.206203e-15
7.140000e+02 3.567982e-15
7.150000e+02 3.969391e-15
7.160000e+02 4.414638e-15
7.170000e+02 4.908347e-15
7.180000e+02 5.455589e-15
7.190000e+02 6.062261e-15
7.200000e+02 6.734285e-15
7.210000e+02 7.478613e-15
7.220000e+02 8.302785e-15
7.230000e+02 9.215104e-15
7.240000e+02 1.022471e-14
7.250000e+02 1.134165e-14
7.260000e+02 1.257700e-14
7.270000e+02 1.394292e-14
7.280000e+02 1.545277e-14
7.290000e+02 1.712127e-14
7.300000e+02 1.896456e-14
7.310000e+02 2.100038e-14
7.320000e+02 2.324823e-14
7.330000e+02 2.573108e-14
7.340000e+02 2.846941e-14
7.350000e+02 3.149043e-14
7.360000e+02 3.482204e-14
7.370000e+02 3.849639e-14
7.380000e+02 4.254635e-14
7.390000e+02 4.700955e-14
7.400000e+02 5.192678e-14
7.410000e+02 5.734300e-14
7.420000e+02 6.330695e-14
7.430000e+02 6.987257e-14
7.440000e+02 7.709843e-14
7.450000e+02 8.504890e-14
7.460000e+02 9.379436e-14
7.470000e+02 1.034118e-13
7.480000e+02 1.139854e-13
7.490000e+02 1.256072e-13
7.500000e+02 1.383778e-13
7.510000e+02 1.524072e-13
7.520000e+02 1.678155e-13
7.530000e+02 1.847339e-13
7.540000e+02 2.033057e-13
7.550000e+02 2.236874e-13
7.560000e+02 2.460495e-13
7.570000e+02 2.705642e-13
7.580000e+02 2.974776e-13
7.590000e+02 3.269670e-13
7.600000e+02 3.592925e-13
7.610000e+02 3.947137e-13
7.620000e+02 4.335187e-13
7.630000e+02 4.760206e-13
7.640000e+02 5.225602e-13
7.650000e+02 5.734886e-13
7.660000e+02 6.292701e-13
7.670000e+02 6.902844e-13
7.680000e+02 7.570235e-13
7.690000e+02 8.288581e-13
7.700000e+02 9.098362e-13
7.710000e+02 9.971007e-13
7.720000e+02 1.092460e-12
7.730000e+02 1.196653e-12
7.740000e+02 1.310472e-12
7.750000e+02 1.434776e-12
7.760000e+02 1.570424e-12
7.770000e+02 1.718660e-12
7.780000e+02 1.880356e-12
7.790000e+02 2.056784e-12
7.800000e+02 2.249244e-12
7.810000e+02 2.459142e-12
7.820000e+02 2.688007e-12
7.830000e+02 2.937497e-12
7.840000e+02 3.209408e-12
7.850000e+02 3.505689e-12
7.860000e+02 3.828450e-12
7.870000e+02 4.180077e-12
7.880000e+02 4.562864e-12
7.890000e+02 4.979584e-12
7.900000e+02 5.433147e-12
7.910000e+02 5.926696e-12
7.920000e+02 6.461743e-12
7.930000e+02 7.047192e-12
7.940000e+02 7.682794e-12
7.950000e+02 8.373298e-12
7.960000e+02 9.123863e-12
7.970000e+02 9.939538e-12
7.980000e+02 1.082578e-11
7.990000e+02 1.178849e-11
8.000000e+02 1.283404e-11
8.010000e+02 1.396930e-11
8.020000e+02 1.520175e-11
8.030000e+02 1.653939e-11
8.040000e+02 1.799091e-11
8.050000e+02 1.912176e-11
8.060000e+02 2.126230e-11
8.070000e+02 2.312613e-11
8.080000e+02 2.513412e-11
8.090000e+02 2.731161e-11
8.100000e+02 2.967110e-11
8.110000e+02 3.222775e-11
8.120000e+02 3.499746e-11
8.130000e+02 3.799739e-11
8.140000e+02 4.124601e-11
8.150000e+02 4.476321e-11
8.160000e+02 4.857048e-11
8.170000e+02 5.269086e-11
8.180000e+02 5.714922e-11
8.190000e+02 6.197234e-11
8.200000e+02 6.718903e-11
8.210000e+02 7.283028e-11
8.220000e+02 7.892945e-11
8.230000e+02 8.552240e-11
8.240000e+02 9.264773e-11
8.250000e+02 1.003470e-10
8.260000e+02 1.086646e-10
8.270000e+02 1.176487e-10
8.280000e+02 1.273507e-10
8.290000e+02 1.378261e-10
8.300000e+02 1.491341e-10
8.310000e+02 1.613389e-10
8.320000e+02 1.745089e-10
8.330000e+02 1.887177e-10
8.340000e+02 2.040446e-10
8.350000e+02 2.203974e-10
8.360000e+02 2.383955e-10
8.370000e+02 2.576128e-10
8.380000e+02 2.783241e-10
8.390000e+02 3.006445e-10
8.400000e+02 3.246939e-10
8.410000e+02 3.506018e-10
8.420000e+02 3.784963e-10
8.430000e+02 4.085569e-10
8.440000e+02 4.409161e-10
8.450000e+02 4.757461e-10
8.460000e+02 5.132334e-10
8.470000e+02 5.535735e-10
8.480000e+02 5.969761e-10
8.490000e+02 6.436648e-10
8.500000e+02 6.938795e-10
8.510000e+02 7.478776e-10
8.520000e+02 8.059320e-10
8.530000e+02 8.683402e-10
8.540000e+02 9.354132e-10
8.550000e+02 1.007488e-09
8.560000e+02 1.084925e-09
8.570000e+02 1.168108e-09
8.580000e+02 1.255724e-09
8.590000e+02 1.353383e-09
8.600000e+02 1.456384e-09
8.610000e+02 1.566676e-09
8.620000e+02 1.685622e-09
8.630000e+02 1.812966e-09
8.640000e+02 1.949594e-09
8.650000e+02 2.096155e-09
8.660000e+02 2.253363e-09
8.670000e+02 2.421940e-09
8.680000e+02 2.602687e-09
8.690000e+02 2.796450e-09
8.700000e+02 3.004117e-09
8.710000e+02 3.226695e-09
8.720000e+02 3.465165e-09
8.730000e+02 3.720642e-09
8.740000e+02 3.994289e-09
8.750000e+02 4.287351e-09
8.760000e+02 4.601156e-09
8.770000e+02 4.937111e-09
8.780000e+02 5.296725e-09
8.790000e+02 5.681625e-09
8.800000e+02 6.093486e-09
8.810000e+02 6.534143e-09
8.820000e+02 7.005538e-09
8.830000e+02 7.509722e-09
8.840000e+02 8.048893e-09
8.850000e+02 8.625411e-09
8.860000e+02 9.241734e-09
8.870000e+02 9.900522e-09
8.880000e+02 1.060458e-08
8.890000e+02 1.135692e-08
8.900000e+02 1.216072e-08
8.910000e+02 1.301936e-08
8.920000e+02 1.393168e-08
8.930000e+02 1.491581e-08
8.940000e+02 1.596150e-08
8.950000e+02 1.707787e-08
8.960000e+02 1.826949e-08
8.970000e+02 1.954124e-08
8.980000e+02 2.089830e-08
8.990000e+02 2.234621e-08
9.000000e+02 2.389078e-08
9.010000e+02 2.553823e-08
9.020000e+02 2.729512e-08
9.030000e+02 2.916800e-08
9.040000e+02 3.116574e-08
9.050000e+02 3.329474e-08
9.060000e+02 3.556288e-08
9.070000e+02 3.798196e-08
9.080000e+02 4.055871e-08
9.090000e+02 4.330363e-08
9.100000e+02 4.622749e-08
9.110000e+02 4.934227e-08
9.120000e+02 5.266812e-08
9.130000e+02 5.345905e-08
9.140000e+02 1.175140e-07
9.150000e+02 3.804853e-05
9.160000e+02 2.944625e-04
9.170000e+02 9.430012e-05
9.180000e+02 4.892998e-05
9.190000e+02 8.712566e-04
9.200000e+02 2.657698e-03
9.210000e+02 9.051882e-08
9.220000e+02 3.134811e-03
9.230000e+02 2.089588e-05
9.240000e+02 5.049962e-04
9.250000e+02 2.358479e-03
9.260000e+02 6.862346e-05
9.270000e+02 3.469725e-04
9.280000e+02 1.572871e-02
9.290000e+02 1.481162e-02
9.300000e+02 3.002631e-03
9.310000e+02 4.803743e-05
9.320000e+02 1.144692e-02
9.330000e+02 1.404774e-02
9.340000e+02 7.638998e-03
9.350000e+02 2.604148e-05
9.360000e+02 9.734358e-04
9.370000e+02 9.783311e-06
9.380000e+02 1.500783e-05
9.390000e+02 1.704673e-03
9.400000e+02 2.650876e-02
9.410000e+02 1.016990e-03
9.420000e+02 4.342772e-02
9.430000e+02 4.344694e-03
9.440000e+02 4.476631e-02
9.450000e+02 4.754397e-02
9.460000e+02 3.120527e-02
9.470000e+02 1.350222e-04
9.480000e+02 1.372587e-02
9.490000e+02 1.160047e-03
9.500000e+02 1.444106e-05
9.510000e+02 6.597923e-03
9.520000e+02 2.583279e-02
9.530000e+02 7.058289e-04
9.540000e+02 1.504776e-04
9.550000e+02 1.214642e-02
9.560000e+02 6.244888e-02
9.570000e+02 1.850948e-03
9.580000e+02 4.806928e-05
9.590000e+02 9.655326e-02
9.600000e+02 3.998727e-05
9.610000e+02 6.209118e-02
9.620000e+02 3.145035e-02
9.630000e+02 8.905530e-03
9.640000e+02 1.214445e-05
9.650000e+02 3.906712e-04
9.660000e+02 1.278011e-02
9.670000e+02 1.954868e-03
9.680000e+02 1.111344e-03
9.690000e+02 3.673105e-02
9.700000e+02 2.435203e-02
9.710000e+02 1.582256e-03
9.720000e+02 2.107789e-04
9.730000e+02 1.877250e-04
9.740000e+02 8.581823e-03
9.750000e+02 1.353924e-02
9.760000e+02 8.805656e-02
9.770000e+02 1.056481e-01
9.780000e+02 7.423818e-02
9.790000e+02 1.968928e-01
9.800000e+02 2.188957e-01
9.810000e+02 7.954694e-02
9.820000e+02 1.431854e-02
9.830000e+02 2.544669e-01
9.840000e+02 5.194457e-03
9.850000e+02 4.303868e-02
9.860000e+02 5.245349e-02
9.870000e+02 3.083528e-01
9.880000e+02 8.989871e-04
9.890000e+02 2.041701e-01
9.900000e+02 5.026872e-03
9.910000e+02 9.012961e-03
9.920000e+02 2.143473e-04
9.930000e+02 3.267344e-01
9.940000e+02 3.662705e-05
9.950000e+02 1.402244e-02
9.960000e+02 3.111601e-03
9.970000e+02 2.672968e-03
9.980000e+02 3.579624e-01
9.990000e+02 1.245691e-02
1.000000e+03 4.969850e-01
1.001000e+03 4.828498e-01
1.002000e+03 5.742337e-01
1.003000e+03 2.432911e-02
1.004000e+03 1.522541e-03
1.005000e+03 7.814616e-02
1.006000e+03 6.213199e-01
1.007000e+03 6.708440e-01
1.008000e+03 5.838761e-01
1.009000e+03 3.545044e-02
1.010000e+03 6.134784e-01
1.011000e+03 6.973805e-01
1.012000e+03 6.592626e-01
1.013000e+03 6.394709e-01
1.014000e+03 5.708635e-04
1.015000e+03 2.143562e-03
1.016000e+03 6.850678e-02
1.017000e+03 5.013943e-04
1.018000e+03 3.360939e-02
1.019000e+03 2.047956e-03
1.020000e+03 4.909281e-01
1.021000e+03 2.008998e-02
1.022000e+03 4.211007e-02
1.023000e+03 3.938124e-03
1.024000e+03 2.581412e-02
1.025000e+03 3.925348e-04
1.026000e+03 1.824478e-04
1.027000e+03 1.143023e-02
1.028000e+03 9.010807e-04
1.029000e+03 9.855330e-04
1.030000e+03 2.867859e-01
1.031000e+03 3.980571e-01
1.032000e+03 1.167230e+00
1.033000e+03 1.008928e-02
1.034000e+03 8.660046e-01
1.035000e+03 5.600452e-04
1.036000e+03 1.899242e-03
1.037000e+03 3.028051e+00
1.038000e+03 4.395625e+00
1.039000e+03 3.564616e+00
1.040000e+03 4.095737e+00
1.041000e+03 5.297212e+00
1.042000e+03 5.378020e+00
1.043000e+03 3.791270e+00
1.044000e+03 6.484300e+00
1.045000e+03 7.778199e-04
1.046000e+03 5.066992e+00
1.047000e+03 1.981664e+00
1.048000e+03 3.806543e-02
1.049000e+03 2.559155e+00
1.050000e+03 8.490410e-01
1.051000e+03 4.002852e-01
1.052000e+03 7.783797e+00
1.053000e+03 8.928591e+00
1.054000e+03 3.170013e-03
1.055000e+03 8.660311e+00
1.056000e+03 9.492316e+00
1.057000e+03 4.341925e+00
1.058000e+03 4.890677e-01
1.059000e+03 5.337715e-02
1.060000e+03 5.539608e-02
1.061000e+03 6.635571e+00
1.062000e+03 2.120856e-01
1.063000e+03 1.830533e-01
1.064000e+03 1.289368e-03
1.065000e+03 5.390167e-03
1.066000e+03 5.617974e+00
1.067000e+03 1.616089e-01
1.068000e+03 1.454349e+01
1.069000e+03 3.836174e-02
1.070000e+03 4.266255e+00
1.071000e+03 1.482274e+01
1.072000e+03 1.598672e+01
1.073000e+03 1.202869e-02
1.074000e+03 5.289842e+00
1.075000e+03 3.197353e+00
1.076000e+03 1.469179e+01
1.077000e+03 3.377914e-02
1.078000e+03 5.048923e-01
1.079000e+03 2.839013e+00
1.080000e+03 6.750119e+00
1.081000e+03 1.583387e+01
1.082000e+03 1.292433e+01
1.083000e+03 8.750694e+00
1.084000e+03 2.344489e+01
1.085000e+03 2.367645e+00
1.086000e+03 2.518171e+01
1.087000e+03 3.907242e-01
1.088000e+03 2.683647e+01
1.089000e+03 2.750795e+01
1.090000e+03 1.869103e+00
1.091000e+03 2.500330e+00
1.092000e+03 2.876001e+01
1.093000e+03 3.020106e+01
1.094000e+03 1.794544e+01
1.095000e+03 3.278738e+01
1.096000e+03 1.692490e+00
1.097000e+03 2.838740e+01
1.098000e+03 3.406573e+01
1.099000e+03 7.650097e+00
1.100000e+03 1.208602e-01
1.101000e+03 3.331569e-01
1.102000e+03 3.906855e+00
1.103000e+03 4.147732e+01
1.104000e+03 4.321775e+01
1.105000e+03 4.310032e+01
1.106000e+03 1.766144e+01
1.107000e+03 1.660156e-01
1.108000e+03 4.094564e+01
1.109000e+03 1.960384e+00
1.110000e+03 4.585666e+01
1.111000e+03 4.676678e+01
1.112000e+03 3.444822e+01
1.113000e+03 4.263907e+01
1.114000e+03 2.502271e+01
1.115000e+03 2.488123e+00
1.116000e+03 1.363431e+00
1.117000e+03 5.490612e+01
1.118000e+03 3.170574e+00
1.119000e+03 4.365628e+01
1.120000e+03 1.598644e+00
1.121000e+03 6.116715e+01
1.122000e+03 1.749384e+01
1.123000e+03 7.999186e+01
1.124000e+03 9.060072e+01
1.125000e+03 7.447350e+01
1.126000e+03 8.898616e+01
1.127000e+03 7.914713e+01
1.128000e+03 5.406036e+01
1.129000e+03 6.152057e+01
1.130000e+03 7.641566e+01
1.131000e+03 6.769302e+01
1.132000e+03 2.454384e+00
1.133000e+03 1.265501e+01
1.134000e+03 5.911744e+01
1.135000e+03 1.013377e+01
1.136000e+03 2.547781e+01
1.137000e+03 6.427154e+01
1.138000e+03 5.433161e+01
1.139000e+03 7.151763e+01
1.140000e+03 5.754906e+01
1.141000e+03 6.942796e+01
1.142000e+03 7.116943e+01
1.143000e+03 5.872690e+01
1.144000e+03 7.012222e+01
1.145000e+03 1.162506e+00
1.146000e+03 7.414886e+01
1.147000e+03 7.400211e+01
1.148000e+03 8.084618e+00
1.149000e+03 7.166230e+01
1.150000e+03 6.919373e+01
1.151000e+03 7.398255e+01
1.152000e+03 7.206315e+01
1.153000e+03 6.975047e+01
1.154000e+03 7.166099e+01
1.155000e+03 6.783421e+01
1.156000e+03 5.853251e+01
1.157000e+03 6.734058e+01
1.158000e+03 5.868805e+01
1.159000e+03 6.976397e+01
1.160000e+03 5.956500e+01
1.161000e+03 6.594997e+01
1.162000e+03 2.259439e+01
1.163000e+03 4.140423e+01
1.164000e+03 2.797279e-01
1.165000e+03 4.342746e+01
1.166000e+03 2.563455e+01
1.167000e+03 1.796011e+01
1.168000e+03 7.292998e+01
1.169000e+03 7.382091e+01
1.170000e+03 1.855439e+01
1.171000e+03 4.016188e+01
1.172000e+03 3.247875e+01
1.173000e+03 2.953863e+01
1.174000e+03 6.223068e+00
1.175000e+03 2.478600e-01
1.176000e+03 1.033745e-01
1.177000e+03 8.908678e+01
1.178000e+03 8.554839e+01
1.179000e+03 8.219814e+01
1.180000e+03 7.291924e+01
1.181000e+03 7.658255e+01
1.182000e+03 7.432313e+01
1.183000e+03 6.978955e+01
1.184000e+03 6.718981e+01
1.185000e+03 6.660020e+01
1.186000e+03 2.282367e+01
1.187000e+03 6.435574e+01
1.188000e+03 5.780094e+01
1.189000e+03 5.956223e+01
1.190000e+03 6.092119e+01
1.191000e+03 5.771014e+01
1.192000e+03 5.337265e+01
1.193000e+03 3.648854e+01
1.194000e+03 5.008508e+01
1.195000e+03 4.933518e+01
1.196000e+03 3.659591e+02
1.197000e+03 3.602166e+02
1.198000e+03 9.676465e+01
1.199000e+03 3.292414e+02
1.200000e+03 1.677047e+02
1.201000e+03 2.867164e+02
1.202000e+03 2.428734e+02
1.203000e+03 2.371176e+02
1.204000e+03 1.245457e+02
1.205000e+03 1.782598e+02
1.206000e+03 1.485694e+02
1.207000e+03 2.728990e+01
1.208000e+03 8.219595e+01
1.209000e+03 6.304414e+01
1.210000e+03 4.500084e-01
1.211000e+03 2.549248e+01
1.212000e+03 1.322165e+01
1.213000e+03 5.829727e+00
1.214000e+03 1.847514e+00
1.215000e+03 3.870238e-01
1.216000e+03 2.012956e-01
1.217000e+03 1.236955e+00
1.218000e+03 4.771789e+00
1.219000e+03 1.254677e+01
1.220000e+03 2.506545e+01
1.221000e+03 4.831902e+01
1.222000e+03 7.943420e+01
1.223000e+03 1.161054e+02
1.224000e+03 1.526749e+02
1.225000e+03 8.689159e+01
1.226000e+03 2.740601e+02
1.227000e+03 3.418758e+02
1.228000e+03 3.150407e+02
1.229000e+03 4.693974e+02
1.230000e+03 4.469912e+02
1.231000e+03 3.148723e+02
1.232000e+03 6.642195e+02
1.233000e+03 7.332371e+02
1.234000e+03 5.956114e+02
1.235000e+03 8.494593e+02
1.236000e+03 6.440618e+02
1.237000e+03 9.651142e+02
1.238000e+03 1.016985e+03
1.239000e+03 1.035166e+03
1.240000e+03 3.535236e+02
1.241000e+03 1.071203e+03
1.242000e+03 1.211393e+03
1.243000e+03 1.268591e+03
1.244000e+03 1.318695e+03
1.245000e+03 1.363731e+03
1.246000e+03 1.384382e+03
1.247000e+03 1.442445e+03
1.248000e+03 1.161772e+03
1.249000e+03 1.552023e+03
1.250000e+03 1.268789e+03
1.251000e+03 1.647589e+03
1.252000e+03 1.622737e+03
1.253000e+03 1.721397e+03
1.254000e+03 1.721138e+03
1.255000e+03 7.998663e+02
1.256000e+03 1.624698e+03
1.257000e+03 1.416618e+03
1.258000e+03 1.761023e+03
1.259000e+03 1.760284e+03
1.260000e+03 1.963548e+03
1.261000e+03 1.148632e+02
1.262000e+03 2.037309e+03
1.263000e+03 1.987108e+03
1.264000e+03 1.967313e+03
1.265000e+03 2.129492e+01
1.266000e+03 2.301727e+03
1.267000e+03 2.330662e+03
