# wavelength_A flux
5.000000e+02 1.108473e+02
5.010000e+02 1.203249e+02
5.020000e+02 1.305677e+02
5.030000e+02 1.416348e+02
5.040000e+02 1.535865e+02
5.050000e+02 1.625047e+02
5.060000e+02 1.760869e+02
5.070000e+02 1.907405e+02
5.080000e+02 2.065448e+02
5.090000e+02 2.236618e+02
5.100000e+02 2.419426e+02
5.110000e+02 2.617312e+02
5.120000e+02 2.830467e+02
5.130000e+02 3.059992e+02
5.140000e+02 3.307068e+02
5.150000e+02 3.572965e+02
5.160000e+02 3.859000e+02
5.170000e+02 4.166670e+02
5.180000e+02 4.497140e+02
5.190000e+02 4.852611e+02
5.200000e+02 5.234555e+02
5.210000e+02 5.644835e+02
5.220000e+02 6.085897e+02
5.230000e+02 6.558378e+02
5.240000e+02 7.065972e+02
5.250000e+02 7.610482e+02
5.260000e+02 8.194568e+02
5.270000e+02 8.820858e+02
5.280000e+02 9.492203e+02
5.290000e+02 1.021203e+03
5.300000e+02 1.098243e+03
5.310000e+02 1.180794e+03
5.320000e+02 1.269112e+03
5.330000e+02 1.363722e+03
5.340000e+02 1.464914e+03
5.350000e+02 1.573226e+03
5.360000e+02 1.689079e+03
5.370000e+02 1.846213e+03
5.380000e+02 1.945369e+03
5.390000e+02 2.086849e+03
5.400000e+02 2.237992e+03
5.410000e+02 2.399523e+03
5.420000e+02 2.571868e+03
5.430000e+02 2.755904e+03
5.440000e+02 2.952323e+03
5.450000e+02 3.161892e+03
5.460000e+02 3.385408e+03
5.470000e+02 3.623552e+03
5.480000e+02 3.877804e+03
5.490000e+02 4.148543e+03
5.500000e+02 4.437172e+03
5.510000e+02 4.744642e+03
5.520000e+02 5.072109e+03
5.530000e+02 5.420792e+03
5.540000e+02 5.791940e+03
5.550000e+02 6.186960e+03
5.560000e+02 6.607246e+03
5.570000e+02 7.054314e+03
5.580000e+02 7.529754e+03
5.590000e+02 8.035012e+03
5.600000e+02 8.572301e+03
5.610000e+02 9.143270e+03
5.620000e+02 9.749880e+03
5.630000e+02 1.039422e+04
5.640000e+02 1.107846e+04
5.650000e+02 1.180492e+04
5.660000e+02 1.257599e+04
5.670000e+02 1.339425e+04
5.680000e+02 1.426237e+04
5.690000e+02 1.518319e+04
5.700000e+02 1.615972e+04
5.710000e+02 1.719497e+04
5.720000e+02 1.829238e+04
5.730000e+02 1.945471e+04
5.740000e+02 2.068678e+04
5.750000e+02 2.199145e+04
5.760000e+02 2.337767e+04
5.770000e+02 2.483697e+04
5.780000e+02 2.638608e+04
5.790000e+02 2.802554e+04
5.800000e+02 2.976029e+04
5.810000e+02 3.159548e+04
5.820000e+02 3.353655e+04
5.830000e+02 3.558958e+04
5.840000e+02 3.777417e+04
5.850000e+02 4.005602e+04
5.860000e+02 4.247639e+04
5.870000e+02 4.503689e+04
5.880000e+02 4.774128e+04
5.890000e+02 5.059849e+04
5.900000e+02 5.361400e+04
5.910000e+02 5.679801e+04
5.920000e+02 6.015860e+04
5.930000e+02 6.370486e+04
5.940000e+02 6.744632e+04
5.950000e+02 7.139826e+04
5.960000e+02 7.555466e+04
5.970000e+02 7.994305e+04
5.980000e+02 8.456923e+04
5.990000e+02 8.944513e+04
6.000000e+02 9.458325e+04
6.010000e+02 1.000037e+05
6.020000e+02 1.056990e+05
6.030000e+02 1.117046e+05
6.040000e+02 1.180278e+05
6.050000e+02 1.246850e+05
6.060000e+02 1.316927e+05
6.070000e+02 1.390662e+05
6.080000e+02 1.468190e+05
6.090000e+02 1.549806e+05
6.100000e+02 1.635656e+05
6.110000e+02 1.725926e+05
6.120000e+02 1.820836e+05
6.130000e+02 1.920606e+05
6.140000e+02 2.025469e+05
6.150000e+02 2.135650e+05
6.160000e+02 2.251417e+05
6.170000e+02 2.373023e+05
6.180000e+02 2.500740e+05
6.190000e+02 2.634853e+05
6.200000e+02 2.775655e+05
6.210000e+02 2.923455e+05
6.220000e+02 3.078574e+05
6.230000e+02 3.241346e+05
6.240000e+02 3.412120e+05
6.250000e+02 3.591256e+05
6.260000e+02 3.779133e+05
6.270000e+02 3.976145e+05
6.280000e+02 4.182698e+05
6.290000e+02 4.399220e+05
6.300000e+02 4.626154e+05
6.310000e+02 4.863946e+05
6.320000e+02 5.113118e+05
6.330000e+02 5.374119e+05
6.340000e+02 5.647500e+05
6.350000e+02 5.933787e+05
6.360000e+02 6.254515e+05
6.370000e+02 6.547357e+05
6.380000e+02 6.875825e+05
6.390000e+02 7.219582e+05
6.400000e+02 7.578958e+05
6.410000e+02 7.955266e+05
6.420000e+02 8.348911e+05
6.430000e+02 8.760580e+05
6.440000e+02 9.191091e+05
6.450000e+02 9.641256e+05
6.460000e+02 1.011176e+06
6.470000e+02 1.060373e+06
6.480000e+02 1.111760e+06
6.490000e+02 1.165469e+06
6.500000e+02 1.221580e+06
6.510000e+02 1.280191e+06
6.520000e+02 1.341409e+06
6.530000e+02 1.405311e+06
6.540000e+02 1.472059e+06
6.550000e+02 1.541742e+06
6.560000e+02 1.614477e+06
6.570000e+02 1.690431e+06
6.580000e+02 1.769602e+06
6.590000e+02 1.852249e+06
6.600000e+02 1.938474e+06
6.610000e+02 2.028397e+06
6.620000e+02 2.122184e+06
6.630000e+02 2.219986e+06
6.640000e+02 2.321944e+06
6.650000e+02 2.428246e+06
6.660000e+02 2.539026e+06
6.670000e+02 2.654499e+06
6.680000e+02 2.774805e+06
6.690000e+02 2.900026e+06
6.700000e+02 3.030610e+06
6.710000e+02 3.166774e+06
6.720000e+02 3.331692e+06
6.730000e+02 3.455726e+06
6.740000e+02 3.609283e+06
6.750000e+02 3.769138e+06
6.760000e+02 3.935527e+06
6.770000e+02 4.108694e+06
6.780000e+02 4.288890e+06
6.790000e+02 4.476376e+06
6.800000e+02 4.671457e+06
6.810000e+02 4.874340e+06
6.820000e+02 5.085350e+06
6.830000e+02 5.304776e+06
6.840000e+02 5.532929e+06
6.850000e+02 5.770164e+06
6.860000e+02 6.016706e+06
6.870000e+02 6.273124e+06
6.880000e+02 6.539327e+06
6.890000e+02 6.816079e+06
6.900000e+02 7.103706e+06
6.910000e+02 7.402330e+06
6.920000e+02 7.712606e+06
6.930000e+02 8.034858e+06
6.940000e+02 8.369498e+06
6.950000e+02 8.716967e+06
6.960000e+02 9.077708e+06
6.970000e+02 9.452026e+06
6.980000e+02 9.840423e+06
6.990000e+02 1.024379e+07
7.000000e+02 1.066238e+07
7.010000e+02 1.109668e+07
7.020000e+02 1.154724e+07
7.030000e+02 1.201462e+07
7.040000e+02 1.249950e+07
7.050000e+02 1.300224e+07
7.060000e+02 1.352358e+07
7.070000e+02 1.406409e+07
7.080000e+02 1.462446e+07
7.090000e+02 1.520545e+07
7.100000e+02 1.580740e+07
7.110000e+02 1.643134e+07
7.120000e+02 1.707789e+07
7.130000e+02 1.774780e+07
7.140000e+02 1.844182e+07
7.150000e+02 1.916075e+07
7.160000e+02 1.990537e+07
7.170000e+02 2.067682e+07
7.180000e+02 2.147590e+07
7.190000e+02 2.230210e+07
7.200000e+02 2.315816e+07
7.210000e+02 2.404433e+07
7.220000e+02 2.496162e+07
7.230000e+02 2.590969e+07
7.240000e+02 2.689206e+07
7.250000e+02 2.790868e+07
7.260000e+02 2.896024e+07
7.270000e+02 3.004819e+07
7.280000e+02 3.117359e+07
7.290000e+02 3.233759e+07
7.300000e+02 3.356822e+07
7.310000e+02 3.478618e+07
7.320000e+02 3.608175e+07
7.330000e+02 3.740395e+07
7.340000e+02 3.877947e+07
7.350000e+02 4.020250e+07
7.360000e+02 4.167010e+07
7.370000e+02 4.318860e+07
7.380000e+02 4.475782e+07
7.390000e+02 4.637924e+07
7.400000e+02 4.805457e+07
7.410000e+02 4.978446e+07
7.420000e+02 5.157219e+07
7.430000e+02 5.341757e+07
7.440000e+02 5.532378e+07
7.450000e+02 5.729211e+07
7.460000e+02 5.932439e+07
7.470000e+02 6.142072e+07
7.480000e+02 6.358532e+07
7.490000e+02 6.582072e+07
7.500000e+02 6.812838e+07
7.510000e+02 7.050885e+07
7.520000e+02 7.296572e+07
7.530000e+02 7.550069e+07
7.540000e+02 7.811598e+07
7.550000e+02 8.081428e+07
7.560000e+02 8.359675e+07
7.570000e+02 8.647175e+07
7.580000e+02 8.942706e+07
7.590000e+02 9.248045e+07
7.600000e+02 9.562695e+07
7.610000e+02 9.887159e+07
7.620000e+02 1.022171e+08
7.630000e+02 1.056654e+08
7.640000e+02 1.092198e+08
7.650000e+02 1.128829e+08
7.660000e+02 1.166578e+08
7.670000e+02 1.205475e+08
7.680000e+02 1.245569e+08
7.690000e+02 1.286843e+08
7.700000e+02 1.329313e+08
7.710000e+02 1.373125e+08
7.720000e+02 1.418250e+08
7.730000e+02 1.464725e+08
7.740000e+02 1.512584e+08
7.750000e+02 1.561865e+08
7.760000e+02 1.612996e+08
7.770000e+02 1.664842e+08
7.780000e+02 1.718616e+08
7.790000e+02 1.773969e+08
7.800000e+02 1.830941e+08
7.810000e+02 1.889574e+08
7.820000e+02 1.949937e+08
7.830000e+02 2.012044e+08
7.840000e+02 2.075908e+08
7.850000e+02 2.141631e+08
7.860000e+02 2.209250e+08
7.870000e+02 2.278785e+08
7.880000e+02 2.350320e+08
7.890000e+02 2.423892e+08
7.900000e+02 2.499552e+08
7.910000e+02 2.577351e+08
7.920000e+02 2.657212e+08
7.930000e+02 2.739453e+08
7.940000e+02 2.824008e+08
7.950000e+02 2.910945e+08
7.960000e+02 3.000282e+08
7.970000e+02 3.092102e+08
7.980000e+02 3.186468e+08
7.990000e+02 3.283440e+08
8.000000e+02 3.383085e+08
8.010000e+02 3.485493e+08
8.020000e+02 3.590677e+08
8.030000e+02 3.698744e+08
8.040000e+02 3.809737e+08
8.050000e+02 3.923753e+08
8.060000e+02 4.040765e+08
8.070000e+02 4.161023e+08
8.080000e+02 4.284518e+08
8.090000e+02 4.411326e+08
8.100000e+02 4.541525e+08
8.110000e+02 4.675207e+08
8.120000e+02 4.812424e+08
8.130000e+02 4.953029e+08
8.140000e+02 5.097611e+08
8.150000e+02 5.246066e+08
8.160000e+02 5.398344e+08
8.170000e+02 5.554636e+08
8.180000e+02 5.715000e+08
8.190000e+02 5.879549e+08
8.200000e+02 6.048378e+08
8.210000e+02 6.221568e+08
8.220000e+02 6.399238e+08
8.230000e+02 6.581471e+08
8.240000e+02 6.768359e+08
8.250000e+02 6.960070e+08
8.260000e+02 7.156678e+08
8.270000e+02 7.358286e+08
8.280000e+02 7.565015e+08
8.290000e+02 7.776986e+08
8.300000e+02 7.994291e+08
8.310000e+02 8.217071e+08
8.320000e+02 8.445444e+08
8.330000e+02 8.679553e+08
8.340000e+02 8.919217e+08
8.350000e+02 9.166240e+08
8.360000e+02 9.417219e+08
8.370000e+02 9.675300e+08
8.380000e+02 9.940118e+08
8.390000e+02 1.021099e+09
8.400000e+02 1.048881e+09
8.410000e+02 1.077335e+09
8.420000e+02 1.106602e+09
8.430000e+02 1.136339e+09
8.440000e+02 1.166920e+09
8.450000e+02 1.198241e+09
8.460000e+02 1.230319e+09
8.470000e+02 1.263163e+09
8.480000e+02 1.296803e+09
8.490000e+02 1.331235e+09
8.500000e+02 1.366494e+09
8.510000e+02 1.402594e+09
8.520000e+02 1.439557e+09
8.530000e+02 1.477387e+09
8.540000e+02 1.516085e+09
8.550000e+02 1.555713e+09
8.560000e+02 1.596271e+09
8.570000e+02 1.637776e+09
8.580000e+02 1.680251e+09
8.590000e+02 1.723709e+09
8.600000e+02 1.768177e+09
8.610000e+02 1.813671e+09
8.620000e+02 1.860215e+09
8.630000e+02 1.907835e+09
8.640000e+02 1.956534e+09
8.650000e+02 2.006362e+09
8.660000e+02 2.057305e+09
8.670000e+02 2.109417e+09
8.680000e+02 2.162662e+09
8.690000e+02 2.217160e+09
8.700000e+02 2.272906e+09
8.710000e+02 2.329891e+09
8.720000e+02 2.388147e+09
8.730000e+02 2.447706e+09
8.740000e+02 2.508591e+09
8.750000e+02 2.570848e+09
8.760000e+02 2.634469e+09
8.770000e+02 2.699502e+09
8.780000e+02 2.765955e+09
8.790000e+02 2.833875e+09
8.800000e+02 2.903288e+09
8.810000e+02 2.974215e+09
8.820000e+02 3.046689e+09
8.830000e+02 3.120741e+09
8.840000e+02 3.196401e+09
8.850000e+02 3.273693e+09
8.860000e+02 3.352678e+09
8.870000e+02 3.433314e+09
8.880000e+02 3.515705e+09
8.890000e+02 3.599857e+09
8.900000e+02 3.685807e+09
8.910000e+02 3.773583e+09
8.920000e+02 3.885631e+09
8.930000e+02 3.954760e+09
8.940000e+02 4.048238e+09
8.950000e+02 4.143738e+09
8.960000e+02 4.241105e+09
8.970000e+02 4.340584e+09
8.980000e+02 4.442141e+09
8.990000e+02 4.545811e+09
9.000000e+02 4.651636e+09
9.010000e+02 4.759650e+09
9.020000e+02 4.869897e+09
9.030000e+02 4.982420e+09
9.040000e+02 5.097618e+09
9.050000e+02 5.214463e+09
9.060000e+02 5.333998e+09
9.070000e+02 5.456488e+09
9.080000e+02 5.580500e+09
9.090000e+02 5.707557e+09
9.100000e+02 5.837139e+09
9.110000e+02 5.969313e+09
9.120000e+02 6.104043e+09
9.130000e+02 6.314252e+09
9.140000e+02 6.369494e+09
9.150000e+02 7.215043e+09
9.160000e+02 9.441711e+09
9.170000e+02 1.007858e+10
9.180000e+02 9.097720e+09
9.190000e+02 1.534117e+10
9.200000e+02 2.346393e+10
9.210000e+02 8.163270e+09
9.220000e+02 3.354315e+10
9.230000e+02 1.067718e+10
9.240000e+02 3.284681e+10
9.250000e+02 4.498441e+10
9.260000e+02 1.372137e+10
9.270000e+02 3.551780e+10
9.280000e+02 6.343342e+10
9.290000e+02 5.825413e+10
9.300000e+02 3.644752e+10
9.310000e+02 1.608468e+10
9.320000e+02 5.820666e+10
9.330000e+02 8.361372e+10
9.340000e+02 9.412733e+10
9.350000e+02 5.098245e+10
9.360000e+02 7.950379e+10
9.370000e+02 2.945132e+10
9.380000e+02 1.587014e+10
9.390000e+02 6.395325e+10
9.400000e+02 9.659796e+10
9.410000e+02 7.887734e+10
9.420000e+02 1.231057e+11
9.430000e+02 1.284534e+11
9.440000e+02 7.338114e+10
9.450000e+02 1.318195e+11
9.460000e+02 1.288851e+11
9.470000e+02 9.176448e+10
9.480000e+02 9.294702e+10
9.490000e+02 5.040676e+10
9.500000e+02 2.205489e+10
9.510000e+02 7.906066e+10
9.520000e+02 1.198512e+11
9.530000e+02 1.401340e+11
9.540000e+02 1.269727e+11
9.550000e+02 1.611079e+11
9.560000e+02 1.475984e+11
9.570000e+02 1.480258e+11
9.580000e+02 1.746069e+11
9.590000e+02 1.790961e+11
9.600000e+02 5.361944e+10
9.610000e+02 1.848178e+11
9.620000e+02 1.856034e+11
9.630000e+02 1.910734e+11
9.640000e+02 1.809541e+10
9.650000e+02 1.792044e+11
9.660000e+02 1.961791e+11
9.670000e+02 1.945211e+11
9.680000e+02 1.903040e+11
9.690000e+02 1.843366e+11
9.700000e+02 1.665429e+11
9.710000e+02 1.273667e+11
9.720000e+02 5.578869e+10
9.730000e+02 5.081062e+10
9.740000e+02 1.291013e+11
9.750000e+02 1.780735e+11
9.760000e+02 2.052236e+11
9.770000e+02 2.209193e+11
9.780000e+02 2.310951e+11
9.790000e+02 2.392270e+11
9.800000e+02 2.455093e+11
9.810000e+02 2.508753e+11
9.820000e+02 2.520247e+11
9.830000e+02 2.602344e+11
9.840000e+02 1.086077e+11
9.850000e+02 2.692413e+11
9.860000e+02 2.734401e+11
9.870000e+02 2.766568e+11
9.880000e+02 2.737642e+11
9.890000e+02 1.855844e+11
9.900000e+02 3.499096e+10
9.910000e+02 2.920711e+11
9.920000e+02 2.589715e+11
9.930000e+02 2.861927e+11
9.940000e+02 5.479399e+10
9.950000e+02 7.805804e+10
9.960000e+02 5.351340e+10
9.970000e+02 7.081791e+10
9.980000e+02 3.250712e+11
9.990000e+02 3.195040e+11
1.000000e+03 3.343927e+11
1.001000e+03 3.397221e+11
1.002000e+03 3.439748e+11
1.003000e+03 2.773795e+11
1.004000e+03 3.538955e+11
1.005000e+03 2.917047e+11
1.006000e+03 3.635504e+11
1.007000e+03 3.656012e+11
1.008000e+03 3.726692e+11
1.009000e+03 3.522140e+11
1.010000e+03 3.829700e+11
1.011000e+03 3.878857e+11
1.012000e+03 3.921863e+11
1.013000e+03 3.972197e+11
1.014000e+03 4.020279e+11
1.015000e+03 3.972960e+11
1.016000e+03 4.091100e+11
1.017000e+03 4.135875e+11
1.018000e+03 4.153330e+11
1.019000e+03 4.166196e+11
1.020000e+03 4.142255e+11
1.021000e+03 3.196302e+11
1.022000e+03 3.835468e+11
1.023000e+03 3.559496e+11
1.024000e+03 2.774064e+11
1.025000e+03 1.472314e+11
1.026000e+03 8.209844e+10
1.027000e+03 2.358669e+11
1.028000e+03 1.650765e+11
1.029000e+03 4.164079e+11
1.030000e+03 4.426436e+11
1.031000e+03 4.797471e+11
1.032000e+03 4.840121e+11
1.033000e+03 3.371108e+11
1.034000e+03 5.232240e+11
1.035000e+03 1.394475e+11
1.036000e+03 5.248878e+11
1.037000e+03 6.909451e+10
1.038000e+03 5.595690e+11
1.039000e+03 5.528890e+11
1.040000e+03 5.760293e+11
1.041000e+03 5.803695e+11
1.042000e+03 5.316236e+11
1.043000e+03 5.910449e+11
1.044000e+03 5.955248e+11
1.045000e+03 6.139500e+11
1.046000e+03 6.233825e+11
1.047000e+03 6.281407e+11
1.048000e+03 6.106795e+11
1.049000e+03 6.284487e+11
1.050000e+03 6.570308e+11
1.051000e+03 6.654512e+11
1.052000e+03 6.737485e+11
1.053000e+03 6.363515e+11
1.054000e+03 6.882257e+11
1.055000e+03 6.939781e+11
1.056000e+03 7.082620e+11
1.057000e+03 7.149197e+11
1.058000e+03 7.240731e+11
1.059000e+03 7.337762e+11
1.060000e+03 7.437997e+11
1.061000e+03 7.530267e+11
1.062000e+03 7.621605e+11
1.063000e+03 3.711844e+11
1.064000e+03 1.716788e+11
1.065000e+03 8.196571e+11
1.066000e+03 7.215915e+11
1.067000e+03 6.971617e+11
1.068000e+03 8.516392e+11
1.069000e+03 8.552966e+11
1.070000e+03 7.982641e+11
1.071000e+03 8.842390e+11
1.072000e+03 8.941556e+11
1.073000e+03 9.055660e+11
1.074000e+03 9.155934e+11
1.075000e+03 9.243974e+11
1.076000e+03 9.371908e+11
1.077000e+03 9.430729e+11
1.078000e+03 9.555556e+11
1.079000e+03 9.587660e+11
1.080000e+03 9.776819e+11
1.081000e+03 9.940301e+11
1.082000e+03 1.005498e+12
1.083000e+03 1.004078e+12
1.084000e+03 5.655280e+11
1.085000e+03 7.610994e+11
1.086000e+03 1.053508e+12
1.087000e+03 1.063017e+12
1.088000e+03 1.074177e+12
1.089000e+03 1.086739e+12
1.090000e+03 1.092785e+12
1.091000e+03 1.113139e+12
1.092000e+03 1.127613e+12
1.093000e+03 1.139532e+12
1.094000e+03 1.153460e+12
1.095000e+03 1.161482e+12
1.096000e+03 1.177852e+12
1.097000e+03 1.178187e+12
1.098000e+03 1.108526e+12
1.099000e+03 1.211028e+12
1.100000e+03 1.206950e+12
1.101000e+03 1.169685e+12
1.102000e+03 1.903725e+12
1.103000e+03 3.288545e+12
1.104000e+03 2.151238e+12
1.105000e+03 1.218239e+12
1.106000e+03 5.107894e+12
1.107000e+03 5.050433e+12
1.108000e+03 5.203618e+12
1.109000e+03 2.986308e+12
1.110000e+03 1.256200e+12
1.111000e+03 2.081954e+12
1.112000e+03 4.707397e+12
1.113000e+03 5.482584e+12
1.114000e+03 9.755228e+11
1.115000e+03 5.428607e+12
1.116000e+03 5.558916e+12
1.117000e+03 1.142802e+12
1.118000e+03 4.362858e+12
1.119000e+03 5.663798e+12
1.120000e+03 5.748016e+12
1.121000e+03 4.561561e+12
1.122000e+03 2.711185e+11
1.123000e+03 1.518627e+12
1.124000e+03 5.868368e+12
1.125000e+03 2.570711e+12
1.126000e+03 6.030912e+12
1.127000e+03 5.817822e+12
1.128000e+03 3.562519e+12
1.129000e+03 5.966138e+12
1.130000e+03 4.392487e+12
1.131000e+03 6.365520e+12
1.132000e+03 7.012824e+11
1.133000e+03 5.402214e+12
1.134000e+03 6.410066e+12
1.135000e+03 3.497709e+11
1.136000e+03 6.291188e+12
1.137000e+03 6.732296e+12
1.138000e+03 6.818035e+12
1.139000e+03 6.595888e+12
1.140000e+03 5.052459e+11
1.141000e+03 6.984099e+12
1.142000e+03 6.045759e+12
1.143000e+03 7.051104e+12
1.144000e+03 7.142946e+12
1.145000e+03 6.484611e+12
1.146000e+03 7.201306e+12
1.147000e+03 7.279395e+12
1.148000e+03 7.357443e+12
1.149000e+03 7.463566e+12
1.150000e+03 7.126759e+12
1.151000e+03 7.553673e+12
1.152000e+03 7.417191e+12
1.153000e+03 2.420719e+12
1.154000e+03 9.762353e+11
1.155000e+03 6.016842e+12
1.156000e+03 3.073646e+12
1.157000e+03 7.918464e+12
1.158000e+03 5.900742e+11
1.159000e+03 6.570598e+12
1.160000e+03 7.283576e+12
1.161000e+03 8.226056e+12
1.162000e+03 2.093602e+12
1.163000e+03 7.653105e+12
1.164000e+03 1.086582e+12
1.165000e+03 8.477574e+12
1.166000e+03 8.285291e+12
1.167000e+03 7.600408e+12
1.168000e+03 8.656060e+12
1.169000e+03 8.323314e+12
1.170000e+03 8.818206e+12
1.171000e+03 8.880090e+12
1.172000e+03 8.203032e+12
1.173000e+03 8.877801e+12
1.174000e+03 8.514433e+12
1.175000e+03 1.133430e+12
1.176000e+03 8.098792e+11
1.177000e+03 8.916224e+12
1.178000e+03 7.792361e+12
1.179000e+03 9.256220e+12
1.180000e+03 7.319912e+12
1.181000e+03 9.203650e+12
1.182000e+03 9.497894e+12
1.183000e+03 9.532186e+12
1.184000e+03 9.586233e+12
1.185000e+03 8.731613e+12
1.186000e+03 9.641831e+12
1.187000e+03 9.678056e+12
1.188000e+03 8.804353e+12
1.189000e+03 8.350144e+11
1.190000e+03 2.786024e+12
1.191000e+03 9.449238e+12
1.192000e+03 9.587519e+12
1.193000e+03 6.426555e+11
1.194000e+03 9.598749e+11
1.195000e+03 5.859615e+12
1.196000e+03 9.453650e+12
1.197000e+03 9.709250e+12
1.198000e+03 9.769544e+12
1.199000e+03 9.625347e+12
1.200000e+03 9.145493e+12
1.201000e+03 9.205657e+12
1.202000e+03 9.040852e+12
1.203000e+03 9.007524e+12
1.204000e+03 8.502169e+12
1.205000e+03 8.195693e+12
1.206000e+03 6.257875e+12
1.207000e+03 4.921632e+12
1.208000e+03 6.529029e+12
1.209000e+03 5.351340e+12
1.210000e+03 1.297828e+12
1.211000e+03 4.105666e+12
1.212000e+03 3.110033e+12
1.213000e+03 2.277523e+12
1.214000e+03 1.483916e+12
1.215000e+03 9.396046e+11
1.216000e+03 8.383910e+11
1.217000e+03 1.300233e+12
1.218000e+03 2.086652e+12
1.219000e+03 3.072461e+12
1.220000e+03 4.139287e+12
1.221000e+03 5.206527e+12
1.222000e+03 6.244996e+12
1.223000e+03 7.224589e+12
1.224000e+03 8.136450e+12
1.225000e+03 8.937873e+12
1.226000e+03 9.640057e+12
1.227000e+03 1.036880e+13
1.228000e+03 1.120458e+13
1.229000e+03 1.165579e+13
1.230000e+03 1.235232e+13
1.231000e+03 1.298442e+13
1.232000e+03 1.353357e+13
1.233000e+03 1.403625e+13
1.234000e+03 1.219272e+13
1.235000e+03 1.483991e+13
1.236000e+03 1.539097e+13
1.237000e+03 1.573696e+13
1.238000e+03 1.618186e+13
1.239000e+03 1.657360e+13
1.240000e+03 1.599674e+13
1.241000e+03 2.178340e+13
1.242000e+03 1.618794e+13
1.243000e+03 1.952205e+13
1.244000e+03 1.181404e+13
1.245000e+03 1.535866e+13
1.246000e+03 2.643535e+13
1.247000e+03 2.765750e+13
1.248000e+03 1.262458e+13
1.249000e+03 1.425869e+13
1.250000e+03 3.084919e+13
1.251000e+03 3.119875e+13
1.252000e+03 3.067794e+13
1.253000e+03 3.401059e+13
1.254000e+03 3.483394e+13
1.255000e+03 3.490158e+13
1.256000e+03 3.491811e+13
1.257000e+03 3.777635e+13
1.258000e+03 3.830406e+13
1.259000e+03 3.825244e+13
1.260000e+03 3.553606e+13
1.261000e+03 1.498895e+12
1.262000e+03 9.106818e+12
1.263000e+03 4.280099e+13
1.264000e+03 4.116651e+13
1.265000e+03 1.394770e+12
1.266000e+03 4.581047e+13
1.267000e+03 4.823502e+13
