# wavelength_A flux
5.000000e+02 7.864703e-07
5.010000e+02 8.860600e-07
5.020000e+02 9.977673e-07
5.030000e+02 1.123006e-06
5.040000e+02 1.263347e-06
5.050000e+02 1.460177e-06
5.060000e+02 1.640810e-06
5.070000e+02 1.842906e-06
5.080000e+02 2.068912e-06
5.090000e+02 2.321644e-06
5.100000e+02 2.603907e-06
5.110000e+02 2.919126e-06
5.120000e+02 3.270983e-06
5.130000e+02 3.663560e-06
5.140000e+02 4.101305e-06
5.150000e+02 4.589289e-06
5.160000e+02 5.133122e-06
5.170000e+02 5.738508e-06
5.180000e+02 6.412957e-06
5.190000e+02 7.163184e-06
5.200000e+02 7.997635e-06
5.210000e+02 8.925344e-06
5.220000e+02 9.955120e-06
5.230000e+02 1.110153e-05
5.240000e+02 1.237310e-05
5.250000e+02 1.378464e-05
5.260000e+02 1.535044e-05
5.270000e+02 1.708684e-05
5.280000e+02 1.901162e-05
5.290000e+02 2.113872e-05
5.300000e+02 2.350606e-05
5.310000e+02 2.612120e-05
5.320000e+02 2.901520e-05
5.330000e+02 3.221669e-05
5.340000e+02 3.575682e-05
5.350000e+02 3.966979e-05
5.360000e+02 4.399290e-05
5.370000e+02 4.806766e-05
5.380000e+02 5.403894e-05
5.390000e+02 5.985787e-05
5.400000e+02 6.627652e-05
5.410000e+02 7.334771e-05
5.420000e+02 8.115428e-05
5.430000e+02 8.975161e-05
5.440000e+02 9.922046e-05
5.450000e+02 1.096442e-04
5.460000e+02 1.210962e-04
5.470000e+02 1.337440e-04
5.480000e+02 1.476287e-04
5.490000e+02 1.628947e-04
5.500000e+02 1.796716e-04
5.510000e+02 1.981031e-04
5.520000e+02 2.183446e-04
5.530000e+02 2.405660e-04
5.540000e+02 2.649521e-04
5.550000e+02 2.917043e-04
5.560000e+02 3.210416e-04
5.570000e+02 3.532026e-04
5.580000e+02 3.884466e-04
5.590000e+02 4.270472e-04
5.600000e+02 4.693270e-04
5.610000e+02 5.156116e-04
5.620000e+02 5.662584e-04
5.630000e+02 6.216683e-04
5.640000e+02 6.822645e-04
5.650000e+02 7.485085e-04
5.660000e+02 8.209060e-04
5.670000e+02 8.999982e-04
5.680000e+02 9.863771e-04
5.690000e+02 1.080682e-03
5.700000e+02 1.183605e-03
5.710000e+02 1.295903e-03
5.720000e+02 1.418383e-03
5.730000e+02 1.551896e-03
5.740000e+02 1.697455e-03
5.750000e+02 1.856094e-03
5.760000e+02 2.028591e-03
5.770000e+02 2.217000e-03
5.780000e+02 2.421805e-03
5.790000e+02 2.644684e-03
5.800000e+02 2.887154e-03
5.810000e+02 3.150860e-03
5.820000e+02 3.437562e-03
5.830000e+02 3.749137e-03
5.840000e+02 4.086407e-03
5.850000e+02 4.455262e-03
5.860000e+02 4.854895e-03
5.870000e+02 5.288523e-03
5.880000e+02 5.759104e-03
5.890000e+02 6.269481e-03
5.900000e+02 6.823321e-03
5.910000e+02 7.423725e-03
5.920000e+02 8.074559e-03
5.930000e+02 8.779838e-03
5.940000e+02 9.543898e-03
5.950000e+02 1.037089e-02
5.960000e+02 1.126736e-02
5.970000e+02 1.223716e-02
5.980000e+02 1.328658e-02
5.990000e+02 1.442168e-02
6.000000e+02 1.564945e-02
6.010000e+02 1.697548e-02
6.020000e+02 1.841153e-02
6.030000e+02 1.996196e-02
6.040000e+02 2.163689e-02
6.050000e+02 2.344584e-02
6.060000e+02 2.539887e-02
6.070000e+02 2.750714e-02
6.080000e+02 2.978212e-02
6.090000e+02 3.223642e-02
6.100000e+02 3.488344e-02
6.110000e+02 3.773766e-02
6.120000e+02 4.081422e-02
6.130000e+02 4.412977e-02
6.140000e+02 4.770162e-02
6.150000e+02 5.154938e-02
6.160000e+02 5.569277e-02
6.170000e+02 6.015335e-02
6.180000e+02 6.495418e-02
6.190000e+02 7.011990e-02
6.200000e+02 7.567681e-02
6.210000e+02 8.165301e-02
6.220000e+02 8.807857e-02
6.230000e+02 9.498549e-02
6.240000e+02 1.024080e-01
6.250000e+02 1.103826e-01
6.260000e+02 1.189482e-01
6.270000e+02 1.281464e-01
6.280000e+02 1.380215e-01
6.290000e+02 1.486207e-01
6.300000e+02 1.599943e-01
6.310000e+02 1.721945e-01
6.320000e+02 1.852829e-01
6.330000e+02 1.993159e-01
6.340000e+02 2.143599e-01
6.350000e+02 2.304836e-01
6.360000e+02 2.473222e-01
6.370000e+02 2.662670e-01
6.380000e+02 2.860903e-01
6.390000e+02 3.073166e-01
6.400000e+02 3.300402e-01
6.410000e+02 3.543608e-01
6.420000e+02 3.803851e-01
6.430000e+02 4.082260e-01
6.440000e+02 4.380033e-01
6.450000e+02 4.698442e-01
6.460000e+02 5.038853e-01
6.470000e+02 5.402685e-01
6.480000e+02 5.791485e-01
6.490000e+02 6.206874e-01
6.500000e+02 6.650552e-01
6.510000e+02 7.124262e-01
6.520000e+02 7.630116e-01
6.530000e+02 8.170079e-01
6.540000e+02 8.746326e-01
6.550000e+02 9.361163e-01
6.560000e+02 1.001703e+00
6.570000e+02 1.071629e+00
6.580000e+02 1.146239e+00
6.590000e+02 1.225740e+00
6.600000e+02 1.310485e+00
6.610000e+02 1.400796e+00
6.620000e+02 1.497010e+00
6.630000e+02 1.599493e+00
6.640000e+02 1.708634e+00
6.650000e+02 1.824834e+00
6.660000e+02 1.948542e+00
6.670000e+02 2.080198e+00
6.680000e+02 2.220292e+00
6.690000e+02 2.369334e+00
6.700000e+02 2.527858e+00
6.710000e+02 2.696448e+00
6.720000e+02 2.875560e+00
6.730000e+02 3.066236e+00
6.740000e+02 3.268747e+00
6.750000e+02 3.483935e+00
6.760000e+02 3.712550e+00
6.770000e+02 3.955382e+00
6.780000e+02 4.213266e+00
6.790000e+02 4.487033e+00
6.800000e+02 4.777706e+00
6.810000e+02 5.086219e+00
6.820000e+02 5.413603e+00
6.830000e+02 5.760950e+00
6.840000e+02 6.129404e+00
6.850000e+02 6.520159e+00
6.860000e+02 6.934539e+00
6.870000e+02 7.373763e+00
6.880000e+02 7.839487e+00
6.890000e+02 8.332975e+00
6.900000e+02 8.855862e+00
6.910000e+02 9.409825e+00
6.920000e+02 9.996576e+00
6.930000e+02 1.061795e+01
6.940000e+02 1.127572e+01
6.950000e+02 1.197222e+01
6.960000e+02 1.270942e+01
6.970000e+02 1.348933e+01
6.980000e+02 1.431503e+01
6.990000e+02 1.518809e+01
7.000000e+02 1.611169e+01
7.010000e+02 1.708842e+01
7.020000e+02 1.812114e+01
7.030000e+02 1.921288e+01
7.040000e+02 2.036681e+01
7.050000e+02 2.158626e+01
7.060000e+02 2.287472e+01
7.070000e+02 2.423590e+01
7.080000e+02 2.567363e+01
7.090000e+02 2.719185e+01
7.100000e+02 2.879515e+01
7.110000e+02 3.048766e+01
7.120000e+02 3.227416e+01
7.130000e+02 3.415956e+01
7.140000e+02 3.614902e+01
7.150000e+02 3.824791e+01
7.160000e+02 4.046192e+01
7.170000e+02 4.279678e+01
7.180000e+02 4.525763e+01
7.190000e+02 4.785441e+01
7.200000e+02 5.059104e+01
7.210000e+02 5.347543e+01
7.220000e+02 5.651502e+01
7.230000e+02 5.971778e+01
7.240000e+02 6.309180e+01
7.250000e+02 6.664572e+01
7.260000e+02 7.038857e+01
7.270000e+02 7.432979e+01
7.280000e+02 7.847919e+01
7.290000e+02 8.284714e+01
7.300000e+02 8.744440e+01
7.310000e+02 9.228233e+01
7.320000e+02 9.737267e+01
7.330000e+02 1.027278e+02
7.340000e+02 1.083591e+02
7.350000e+02 1.142831e+02
7.360000e+02 1.205109e+02
7.370000e+02 1.270605e+02
7.380000e+02 1.339455e+02
7.390000e+02 1.411822e+02
7.400000e+02 1.487868e+02
7.410000e+02 1.567787e+02
7.420000e+02 1.651738e+02
7.430000e+02 1.739937e+02
7.440000e+02 1.832568e+02
7.450000e+02 1.929844e+02
7.460000e+02 2.031984e+02
7.470000e+02 2.139216e+02
7.480000e+02 2.251777e+02
7.490000e+02 2.369917e+02
7.500000e+02 2.493893e+02
7.510000e+02 2.623975e+02
7.520000e+02 2.760446e+02
7.530000e+02 2.903560e+02
7.540000e+02 3.053698e+02
7.550000e+02 3.211143e+02
7.560000e+02 3.376230e+02
7.570000e+02 3.549219e+02
7.580000e+02 3.730724e+02
7.590000e+02 3.920849e+02
7.600000e+02 4.120130e+02
7.610000e+02 4.328924e+02
7.620000e+02 4.547670e+02
7.630000e+02 4.776809e+02
7.640000e+02 5.016805e+02
7.650000e+02 5.268138e+02
7.660000e+02 5.531316e+02
7.670000e+02 5.806852e+02
7.680000e+02 6.095253e+02
7.690000e+02 6.397201e+02
7.700000e+02 6.713007e+02
7.710000e+02 7.043630e+02
7.720000e+02 7.389559e+02
7.730000e+02 7.751451e+02
7.740000e+02 8.129995e+02
7.750000e+02 8.525907e+02
7.760000e+02 8.939017e+02
7.770000e+02 9.372841e+02
7.780000e+02 9.825444e+02
7.790000e+02 1.029857e+03
7.800000e+02 1.079309e+03
7.810000e+02 1.130991e+03
7.820000e+02 1.184996e+03
7.830000e+02 1.241421e+03
7.840000e+02 1.300370e+03
7.850000e+02 1.361946e+03
7.860000e+02 1.426257e+03
7.870000e+02 1.493426e+03
7.880000e+02 1.563556e+03
7.890000e+02 1.636777e+03
7.900000e+02 1.713214e+03
7.910000e+02 1.793001e+03
7.920000e+02 1.876272e+03
7.930000e+02 1.963172e+03
7.940000e+02 2.053844e+03
7.950000e+02 2.148446e+03
7.960000e+02 2.247132e+03
7.970000e+02 2.350069e+03
7.980000e+02 2.457427e+03
7.990000e+02 2.569361e+03
8.000000e+02 2.686096e+03
8.010000e+02 2.807796e+03
8.020000e+02 2.934676e+03
8.030000e+02 3.066865e+03
8.040000e+02 3.204693e+03
8.050000e+02 3.348324e+03
8.060000e+02 3.497986e+03
8.070000e+02 3.653914e+03
8.080000e+02 3.816352e+03
8.090000e+02 3.985552e+03
8.100000e+02 4.161777e+03
8.110000e+02 4.345300e+03
8.120000e+02 4.536391e+03
8.130000e+02 4.735365e+03
8.140000e+02 4.942501e+03
8.150000e+02 5.158106e+03
8.160000e+02 5.382538e+03
8.170000e+02 5.616094e+03
8.180000e+02 5.859136e+03
8.190000e+02 6.112018e+03
8.200000e+02 6.375110e+03
8.210000e+02 6.648797e+03
8.220000e+02 6.933473e+03
8.230000e+02 7.229547e+03
8.240000e+02 7.537452e+03
8.250000e+02 7.857616e+03
8.260000e+02 8.190457e+03
8.270000e+02 8.536520e+03
8.280000e+02 8.896251e+03
8.290000e+02 9.270151e+03
8.300000e+02 9.658743e+03
8.310000e+02 1.006256e+04
8.320000e+02 1.048215e+04
8.330000e+02 1.091808e+04
8.340000e+02 1.137096e+04
8.350000e+02 1.183981e+04
8.360000e+02 1.232968e+04
8.370000e+02 1.283719e+04
8.380000e+02 1.336403e+04
8.390000e+02 1.391126e+04
8.400000e+02 1.447931e+04
8.410000e+02 1.506899e+04
8.420000e+02 1.568075e+04
8.430000e+02 1.631648e+04
8.440000e+02 1.697585e+04
8.450000e+02 1.766009e+04
8.460000e+02 1.837006e+04
8.470000e+02 1.910667e+04
8.480000e+02 1.987084e+04
8.490000e+02 2.066352e+04
8.500000e+02 2.148570e+04
8.510000e+02 2.233839e+04
8.520000e+02 2.322260e+04
8.530000e+02 2.413953e+04
8.540000e+02 2.509034e+04
8.550000e+02 2.607592e+04
8.560000e+02 2.709758e+04
8.570000e+02 2.815656e+04
8.580000e+02 2.925411e+04
8.590000e+02 3.039156e+04
8.600000e+02 3.157021e+04
8.610000e+02 3.279145e+04
8.620000e+02 3.405672e+04
8.630000e+02 3.536742e+04
8.640000e+02 3.672445e+04
8.650000e+02 3.813063e+04
8.660000e+02 3.958716e+04
8.670000e+02 4.109502e+04
8.680000e+02 4.265676e+04
8.690000e+02 4.427377e+04
8.700000e+02 4.594770e+04
8.710000e+02 4.768084e+04
8.720000e+02 4.947469e+04
8.730000e+02 5.133135e+04
8.740000e+02 5.325286e+04
8.750000e+02 5.524130e+04
8.760000e+02 5.729882e+04
8.770000e+02 5.942747e+04
8.780000e+02 6.163007e+04
8.790000e+02 6.390840e+04
8.800000e+02 6.626508e+04
8.810000e+02 6.870256e+04
8.820000e+02 7.122344e+04
8.830000e+02 7.383032e+04
8.840000e+02 7.652591e+04
8.850000e+02 7.931301e+04
8.860000e+02 8.219445e+04
8.870000e+02 8.517320e+04
8.880000e+02 8.825226e+04
8.890000e+02 9.143478e+04
8.900000e+02 9.472393e+04
8.910000e+02 9.812301e+04
8.920000e+02 1.014568e+05
8.930000e+02 1.052623e+05
8.940000e+02 1.090118e+05
8.950000e+02 1.128852e+05
8.960000e+02 1.168867e+05
8.970000e+02 1.210197e+05
8.980000e+02 1.252884e+05
8.990000e+02 1.296969e+05
9.000000e+02 1.342494e+05
9.010000e+02 1.389502e+05
9.020000e+02 1.438038e+05
9.030000e+02 1.488146e+05
9.040000e+02 1.539852e+05
9.050000e+02 1.593271e+05
9.060000e+02 1.648389e+05
9.070000e+02 1.705236e+05
9.080000e+02 1.763977e+05
9.090000e+02 1.824555e+05
9.100000e+02 1.887063e+05
9.110000e+02 1.951566e+05
9.120000e+02 2.018162e+05
9.130000e+02 2.049728e+05
9.140000e+02 2.193597e+05
9.150000e+02 8.188835e+05
9.160000e+02 3.495346e+06
9.170000e+02 3.741240e+06
9.180000e+02 3.416023e+06
9.190000e+02 4.423388e+06
9.200000e+02 4.665727e+06
9.210000e+02 2.595381e+05
9.220000e+02 4.944076e+06
9.230000e+02 4.144038e+06
9.240000e+02 4.435000e+06
9.250000e+02 5.268164e+06
9.260000e+02 5.012966e+06
9.270000e+02 5.617678e+06
9.280000e+02 5.798436e+06
9.290000e+02 5.008668e+06
9.300000e+02 5.994048e+06
9.310000e+02 5.781058e+06
9.320000e+02 6.420036e+06
9.330000e+02 6.573671e+06
9.340000e+02 6.759933e+06
9.350000e+02 2.061691e+06
9.360000e+02 7.080872e+06
9.370000e+02 1.394055e+06
9.380000e+02 3.994071e+06
9.390000e+02 7.652852e+06
9.400000e+02 7.861076e+06
9.410000e+02 4.181184e+06
9.420000e+02 8.269156e+06
9.430000e+02 8.477390e+06
9.440000e+02 5.249567e+06
9.450000e+02 8.904038e+06
9.460000e+02 9.124961e+06
9.470000e+02 6.399672e+06
9.480000e+02 8.701299e+06
9.490000e+02 9.662099e+06
9.500000e+02 1.935612e+06
9.510000e+02 9.807608e+06
9.520000e+02 1.056558e+07
9.530000e+02 1.072222e+07
9.540000e+02 8.967565e+06
9.550000e+02 1.137895e+07
9.560000e+02 1.033323e+07
9.570000e+02 9.223774e+06
9.580000e+02 1.210243e+07
9.590000e+02 1.258726e+07
9.600000e+02 2.684790e+06
9.610000e+02 1.320313e+07
9.620000e+02 1.351337e+07
9.630000e+02 1.386815e+07
9.640000e+02 1.111357e+06
9.650000e+02 1.307201e+07
9.660000e+02 1.488731e+07
9.670000e+02 1.514106e+07
9.680000e+02 1.545216e+07
9.690000e+02 1.584765e+07
9.700000e+02 1.628742e+07
9.710000e+02 1.650272e+07
9.720000e+02 1.517892e+07
9.730000e+02 1.502306e+07
9.740000e+02 1.761954e+07
9.750000e+02 1.830534e+07
9.760000e+02 1.880016e+07
9.770000e+02 1.925714e+07
9.780000e+02 1.966933e+07
9.790000e+02 2.019495e+07
9.800000e+02 2.066032e+07
9.810000e+02 2.115219e+07
9.820000e+02 2.150553e+07
9.830000e+02 2.213397e+07
9.840000e+02 7.728408e+06
9.850000e+02 2.317361e+07
9.860000e+02 2.370201e+07
9.870000e+02 2.424500e+07
9.880000e+02 2.462699e+07
9.890000e+02 1.830766e+07
9.900000e+02 2.808065e+06
9.910000e+02 2.626219e+07
9.920000e+02 2.350136e+07
9.930000e+02 2.588782e+07
9.940000e+02 4.115284e+06
9.950000e+02 6.402259e+06
9.960000e+02 8.587778e+06
9.970000e+02 6.007242e+06
9.980000e+02 3.094350e+07
9.990000e+02 3.091114e+07
1.000000e+03 3.245091e+07
1.001000e+03 3.317981e+07
1.002000e+03 3.389806e+07
1.003000e+03 3.124787e+07
1.004000e+03 3.535442e+07
1.005000e+03 3.195505e+07
1.006000e+03 3.700910e+07
1.007000e+03 3.775413e+07
1.008000e+03 3.858192e+07
1.009000e+03 3.826078e+07
1.010000e+03 4.034090e+07
1.011000e+03 4.121389e+07
1.012000e+03 4.209326e+07
1.013000e+03 4.300200e+07
1.014000e+03 4.332139e+07
1.015000e+03 4.397316e+07
1.016000e+03 4.568480e+07
1.017000e+03 4.622159e+07
1.018000e+03 4.765463e+07
1.019000e+03 4.848026e+07
1.020000e+03 4.956289e+07
1.021000e+03 3.454926e+07
1.022000e+03 4.855410e+07
1.023000e+03 5.110303e+07
1.024000e+03 4.859582e+07
1.025000e+03 3.522618e+07
1.026000e+03 1.473226e+07
1.027000e+03 4.854848e+07
1.028000e+03 1.611542e+07
1.029000e+03 5.834000e+07
1.030000e+03 5.993126e+07
1.031000e+03 6.242488e+07
1.032000e+03 6.351484e+07
1.033000e+03 3.497541e+07
1.034000e+03 6.688846e+07
1.035000e+03 1.452268e+07
1.036000e+03 6.670092e+07
1.037000e+03 8.788524e+06
1.038000e+03 7.278771e+07
1.039000e+03 7.353443e+07
1.040000e+03 7.587947e+07
1.041000e+03 7.698679e+07
1.042000e+03 7.753608e+07
1.043000e+03 7.903865e+07
1.044000e+03 8.208193e+07
1.045000e+03 8.386518e+07
1.046000e+03 8.578670e+07
1.047000e+03 8.744210e+07
1.048000e+03 8.844854e+07
1.049000e+03 8.824006e+07
1.050000e+03 9.296233e+07
1.051000e+03 9.482271e+07
1.052000e+03 9.678824e+07
1.053000e+03 9.717002e+07
1.054000e+03 9.928469e+07
1.055000e+03 1.023381e+08
1.056000e+03 1.047953e+08
1.057000e+03 1.068101e+08
1.058000e+03 1.088945e+08
1.059000e+03 1.109330e+08
1.060000e+03 1.130763e+08
1.061000e+03 1.155930e+08
1.062000e+03 1.178367e+08
1.063000e+03 5.402214e+07
1.064000e+03 2.446553e+07
1.065000e+03 1.249205e+08
1.066000e+03 1.141992e+08
1.067000e+03 1.258328e+08
1.068000e+03 1.337139e+08
1.069000e+03 1.344113e+08
1.070000e+03 1.368190e+08
1.071000e+03 1.417548e+08
1.072000e+03 1.444772e+08
1.073000e+03 1.462661e+08
1.074000e+03 1.500377e+08
1.075000e+03 1.528408e+08
1.076000e+03 1.559171e+08
1.077000e+03 1.585148e+08
1.078000e+03 1.618127e+08
1.079000e+03 1.643535e+08
1.080000e+03 1.680161e+08
1.081000e+03 1.713188e+08
1.082000e+03 1.744760e+08
1.083000e+03 1.776057e+08
1.084000e+03 1.764004e+08
1.085000e+03 1.317794e+08
1.086000e+03 1.881358e+08
1.087000e+03 1.912250e+08
1.088000e+03 1.945218e+08
1.089000e+03 1.988000e+08
1.090000e+03 2.021264e+08
1.091000e+03 2.059814e+08
1.092000e+03 2.100918e+08
1.093000e+03 2.137906e+08
1.094000e+03 2.179318e+08
1.095000e+03 2.217153e+08
1.096000e+03 2.259562e+08
1.097000e+03 2.277761e+08
1.098000e+03 2.309409e+08
1.099000e+03 2.383345e+08
1.100000e+03 2.380168e+08
1.101000e+03 2.248657e+08
1.102000e+03 5.120070e+08
1.103000e+03 1.674380e+09
1.104000e+03 6.383309e+08
1.105000e+03 2.431624e+08
1.106000e+03 4.088458e+09
1.107000e+03 3.178773e+09
1.108000e+03 4.199814e+09
1.109000e+03 2.300380e+09
1.110000e+03 6.484311e+08
1.111000e+03 5.664092e+08
1.112000e+03 3.739356e+09
1.113000e+03 4.554367e+09
1.114000e+03 1.884426e+08
1.115000e+03 4.324419e+09
1.116000e+03 4.466264e+09
1.117000e+03 2.066250e+08
1.118000e+03 3.223789e+09
1.119000e+03 4.852891e+09
1.120000e+03 4.762638e+09
1.121000e+03 4.007139e+09
1.122000e+03 6.334387e+07
1.123000e+03 4.533005e+08
1.124000e+03 5.174607e+09
1.125000e+03 1.952748e+09
1.126000e+03 5.351705e+09
1.127000e+03 5.159106e+09
1.128000e+03 2.420549e+09
1.129000e+03 5.400280e+09
1.130000e+03 4.437160e+09
1.131000e+03 5.740331e+09
1.132000e+03 1.822403e+08
1.133000e+03 4.563479e+09
1.134000e+03 5.664226e+09
1.135000e+03 1.041902e+08
1.136000e+03 5.888514e+09
1.137000e+03 6.191163e+09
1.138000e+03 6.248218e+09
1.139000e+03 6.191179e+09
1.140000e+03 1.200389e+08
1.141000e+03 6.545056e+09
1.142000e+03 6.279906e+09
1.143000e+03 6.682635e+09
1.144000e+03 6.805773e+09
1.145000e+03 5.079009e+09
1.146000e+03 6.965560e+09
1.147000e+03 6.931451e+09
1.148000e+03 6.786648e+09
1.149000e+03 7.235033e+09
1.150000e+03 7.038779e+09
1.151000e+03 7.367213e+09
1.152000e+03 7.449803e+09
1.153000e+03 1.600349e+09
1.154000e+03 3.083407e+08
1.155000e+03 5.255962e+09
1.156000e+03 1.775182e+09
1.157000e+03 7.966769e+09
1.158000e+03 1.817819e+08
1.159000e+03 6.602295e+09
1.160000e+03 7.877280e+09
1.161000e+03 8.438433e+09
1.162000e+03 1.328671e+09
1.163000e+03 8.349684e+09
1.164000e+03 3.198628e+08
1.165000e+03 8.859282e+09
1.166000e+03 8.836730e+09
1.167000e+03 8.567722e+09
1.168000e+03 9.222028e+09
1.169000e+03 9.022292e+09
1.170000e+03 9.462245e+09
1.171000e+03 9.578932e+09
1.172000e+03 9.298300e+09
1.173000e+03 9.797439e+09
1.174000e+03 9.202956e+09
1.175000e+03 3.480965e+08
1.176000e+03 2.620948e+08
1.177000e+03 1.019836e+10
1.178000e+03 9.310491e+09
1.179000e+03 1.049564e+10
1.180000e+03 8.025598e+09
1.181000e+03 1.056139e+10
1.182000e+03 1.084305e+10
1.183000e+03 1.092745e+10
1.184000e+03 1.101952e+10
1.185000e+03 1.070742e+10
1.186000e+03 1.108839e+10
1.187000e+03 1.125960e+10
1.188000e+03 1.097919e+10
1.189000e+03 2.893870e+08
1.190000e+03 1.497490e+09
1.191000e+03 1.112450e+10
1.192000e+03 1.118107e+10
1.193000e+03 2.511626e+08
1.194000e+03 3.324641e+08
1.195000e+03 6.717399e+09
1.196000e+03 1.105879e+10
1.197000e+03 1.299043e+10
1.198000e+03 1.299926e+10
1.199000e+03 1.263312e+10
1.200000e+03 1.112844e+10
1.201000e+03 1.163921e+10
1.202000e+03 1.139242e+10
1.203000e+03 1.200287e+10
1.204000e+03 1.076621e+10
1.205000e+03 1.003135e+10
1.206000e+03 8.302577e+09
1.207000e+03 3.076493e+09
1.208000e+03 6.662241e+09
1.209000e+03 5.034302e+09
1.210000e+03 5.216814e+08
1.211000e+03 3.001923e+09
1.212000e+03 1.960864e+09
1.213000e+03 1.222104e+09
1.214000e+03 7.042979e+08
1.215000e+03 4.330074e+08
1.216000e+03 3.880318e+08
1.217000e+03 6.140788e+08
1.218000e+03 1.096719e+09
1.219000e+03 1.902118e+09
1.220000e+03 3.022757e+09
1.221000e+03 4.412961e+09
1.222000e+03 6.001180e+09
1.223000e+03 7.732910e+09
1.224000e+03 9.557912e+09
1.225000e+03 1.135637e+10
1.226000e+03 1.322415e+10
1.227000e+03 1.505069e+10
1.228000e+03 1.701681e+10
1.229000e+03 1.880516e+10
1.230000e+03 2.056981e+10
1.231000e+03 2.226870e+10
1.232000e+03 2.412652e+10
1.233000e+03 2.575313e+10
1.234000e+03 1.640241e+10
1.235000e+03 2.874808e+10
1.236000e+03 2.991442e+10
1.237000e+03 3.160688e+10
1.238000e+03 3.291861e+10
1.239000e+03 3.422757e+10
1.240000e+03 3.201877e+10
1.241000e+03 6.007220e+10
1.242000e+03 3.090046e+10
1.243000e+03 4.727088e+10
1.244000e+03 1.841558e+10
1.245000e+03 2.833385e+10
1.246000e+03 9.722779e+10
1.247000e+03 1.020539e+11
1.248000e+03 2.008720e+10
1.249000e+03 2.541552e+10
1.250000e+03 1.214040e+11
1.251000e+03 1.258400e+11
1.252000e+03 1.254664e+11
1.253000e+03 1.388333e+11
1.254000e+03 1.401744e+11
1.255000e+03 1.467696e+11
1.256000e+03 1.479081e+11
1.257000e+03 1.581130e+11
1.258000e+03 1.529701e+11
1.259000e+03 1.518176e+11
1.260000e+03 1.208870e+11
1.261000e+03 8.689994e+08
1.262000e+03 1.170969e+10
1.263000e+03 1.761548e+11
1.264000e+03 1.492294e+11
1.265000e+03 8.377180e+08
1.266000e+03 1.850160e+11
1.267000e+03 1.957131e+11
