# wavelength_A flux
5.000000e+02 8.393225e-25
5.010000e+02 1.027093e-24
5.020000e+02 1.255842e-24
5.030000e+02 1.534285e-24
5.040000e+02 1.872945e-24
5.050000e+02 2.373516e-24
5.060000e+02 2.890936e-24
5.070000e+02 3.517060e-24
5.080000e+02 4.277582e-24
5.090000e+02 5.197147e-24
5.100000e+02 6.035269e-24
5.110000e+02 7.654253e-24
5.120000e+02 9.275172e-24
5.130000e+02 1.123878e-23
5.140000e+02 1.360314e-23
5.150000e+02 1.645238e-23
5.160000e+02 1.988347e-23
5.170000e+02 2.401377e-23
5.180000e+02 2.897990e-23
5.190000e+02 3.494742e-23
5.200000e+02 4.211318e-23
5.210000e+02 5.071145e-23
5.220000e+02 6.100863e-23
5.230000e+02 7.337524e-23
5.240000e+02 8.816897e-23
5.250000e+02 1.058695e-22
5.260000e+02 1.270341e-22
5.270000e+02 1.523234e-22
5.280000e+02 1.825204e-22
5.290000e+02 2.185508e-22
5.300000e+02 2.615188e-22
5.310000e+02 3.127180e-22
5.320000e+02 3.736867e-22
5.330000e+02 4.462405e-22
5.340000e+02 5.325227e-22
5.350000e+02 6.350623e-22
5.360000e+02 7.568350e-22
5.370000e+02 8.885579e-22
5.380000e+02 1.072807e-21
5.390000e+02 1.276031e-21
5.400000e+02 1.516748e-21
5.410000e+02 1.801630e-21
5.420000e+02 2.138817e-21
5.430000e+02 2.537382e-21
5.440000e+02 3.008301e-21
5.450000e+02 3.564360e-21
5.460000e+02 4.220524e-21
5.470000e+02 4.994389e-21
5.480000e+02 5.906439e-21
5.490000e+02 6.980712e-21
5.500000e+02 8.245287e-21
5.510000e+02 9.732967e-21
5.520000e+02 1.148205e-20
5.530000e+02 1.353724e-20
5.540000e+02 1.595065e-20
5.550000e+02 1.878303e-20
5.560000e+02 2.210514e-20
5.570000e+02 2.599935e-20
5.580000e+02 3.056152e-20
5.590000e+02 3.590309e-20
5.600000e+02 4.215357e-20
5.610000e+02 4.946341e-20
5.620000e+02 5.800724e-20
5.630000e+02 6.798764e-20
5.640000e+02 7.963955e-20
5.650000e+02 9.323519e-20
5.660000e+02 1.090899e-19
5.670000e+02 1.275687e-19
5.680000e+02 1.490939e-19
5.690000e+02 1.741537e-19
5.700000e+02 2.033127e-19
5.710000e+02 2.372226e-19
5.720000e+02 2.766360e-19
5.730000e+02 3.224212e-19
5.740000e+02 3.755797e-19
5.750000e+02 4.372657e-19
5.760000e+02 5.088045e-19
5.770000e+02 5.917506e-19
5.780000e+02 6.878333e-19
5.790000e+02 7.990927e-19
5.800000e+02 9.278584e-19
5.810000e+02 1.076807e-18
5.820000e+02 1.249012e-18
5.830000e+02 1.447991e-18
5.840000e+02 1.677449e-18
5.850000e+02 1.943041e-18
5.860000e+02 2.249243e-18
5.870000e+02 2.602260e-18
5.880000e+02 3.009144e-18
5.890000e+02 3.477890e-18
5.900000e+02 4.017635e-18
5.910000e+02 4.638828e-18
5.920000e+02 5.353405e-18
5.930000e+02 6.175003e-18
5.940000e+02 7.119189e-18
5.950000e+02 8.203730e-18
5.960000e+02 9.448886e-18
5.970000e+02 1.087776e-17
5.980000e+02 1.251666e-17
5.990000e+02 1.439559e-17
6.000000e+02 1.654866e-17
6.010000e+02 1.901472e-17
6.020000e+02 2.183795e-17
6.030000e+02 2.506855e-17
6.040000e+02 2.876360e-17
6.050000e+02 3.298793e-17
6.060000e+02 3.781512e-17
6.070000e+02 4.332869e-17
6.080000e+02 4.962337e-17
6.090000e+02 5.680658e-17
6.100000e+02 6.500002e-17
6.110000e+02 7.434160e-17
6.120000e+02 8.498745e-17
6.130000e+02 9.711429e-17
6.140000e+02 1.109220e-16
6.150000e+02 1.266368e-16
6.160000e+02 1.445141e-16
6.170000e+02 1.648427e-16
6.180000e+02 1.879487e-16
6.190000e+02 2.142002e-16
6.200000e+02 2.440127e-16
6.210000e+02 2.778547e-16
6.220000e+02 3.162546e-16
6.230000e+02 3.598078e-16
6.240000e+02 4.091850e-16
6.250000e+02 4.651417e-16
6.260000e+02 5.285282e-16
6.270000e+02 6.003012e-16
6.280000e+02 6.815367e-16
6.290000e+02 7.734444e-16
6.300000e+02 8.773838e-16
6.310000e+02 9.946493e-16
6.320000e+02 1.127655e-15
6.330000e+02 1.277627e-15
6.340000e+02 1.446959e-15
6.350000e+02 1.638062e-15
6.360000e+02 1.853683e-15
6.370000e+02 2.096837e-15
6.380000e+02 2.370943e-15
6.390000e+02 2.679821e-15
6.400000e+02 3.027746e-15
6.410000e+02 3.419501e-15
6.420000e+02 3.860440e-15
6.430000e+02 4.356545e-15
6.440000e+02 4.914503e-15
6.450000e+02 5.541791e-15
6.460000e+02 6.246752e-15
6.470000e+02 7.038705e-15
6.480000e+02 7.928055e-15
6.490000e+02 8.926403e-15
6.500000e+02 1.004669e-14
6.510000e+02 1.130335e-14
6.520000e+02 1.271246e-14
6.530000e+02 1.429194e-14
6.540000e+02 1.606173e-14
6.550000e+02 1.804405e-14
6.560000e+02 2.026361e-14
6.570000e+02 2.274792e-14
6.580000e+02 2.552755e-14
6.590000e+02 2.863650e-14
6.600000e+02 3.211255e-14
6.610000e+02 3.599768e-14
6.620000e+02 4.033850e-14
6.630000e+02 4.518676e-14
6.640000e+02 5.059988e-14
6.650000e+02 5.664159e-14
6.660000e+02 6.338264e-14
6.670000e+02 7.090117e-14
6.680000e+02 7.928411e-14
6.690000e+02 8.862765e-14
6.700000e+02 9.903833e-14
6.710000e+02 1.106341e-13
6.720000e+02 1.235456e-13
6.730000e+02 1.379171e-13
6.740000e+02 1.539086e-13
6.750000e+02 1.716967e-13
6.760000e+02 1.914766e-13
6.770000e+02 2.134643e-13
6.780000e+02 2.378982e-13
6.790000e+02 2.650414e-13
6.800000e+02 2.951847e-13
6.810000e+02 3.286488e-13
6.820000e+02 3.657877e-13
6.830000e+02 4.069917e-13
6.840000e+02 4.526911e-13
6.850000e+02 5.033604e-13
6.860000e+02 5.595222e-13
6.870000e+02 6.217523e-13
6.880000e+02 6.906849e-13
6.890000e+02 7.670179e-13
6.900000e+02 8.515198e-13
6.910000e+02 9.450357e-13
6.920000e+02 1.048495e-12
6.930000e+02 1.162921e-12
6.940000e+02 1.289437e-12
6.950000e+02 1.429277e-12
6.960000e+02 1.583799e-12
6.970000e+02 1.754491e-12
6.980000e+02 1.942991e-12
6.990000e+02 2.151093e-12
7.000000e+02 2.380768e-12
7.010000e+02 2.634177e-12
7.020000e+02 2.913691e-12
7.030000e+02 3.221908e-12
7.040000e+02 3.561676e-12
7.050000e+02 3.936116e-12
7.060000e+02 4.348617e-12
7.070000e+02 4.803013e-12
7.080000e+02 5.303313e-12
7.090000e+02 5.854033e-12
7.100000e+02 6.460080e-12
7.110000e+02 7.126826e-12
7.120000e+02 7.860143e-12
7.130000e+02 8.666450e-12
7.140000e+02 9.552763e-12
7.150000e+02 1.052675e-11
7.160000e+02 1.159679e-11
7.170000e+02 1.277203e-11
7.180000e+02 1.406245e-11
7.190000e+02 1.547896e-11
7.200000e+02 1.703345e-11
7.210000e+02 1.873890e-11
7.220000e+02 2.060946e-11
7.230000e+02 2.266057e-11
7.240000e+02 2.490905e-11
7.250000e+02 2.737323e-11
7.260000e+02 3.007310e-11
7.270000e+02 3.303039e-11
7.280000e+02 3.626881e-11
7.290000e+02 3.981416e-11
7.300000e+02 4.369450e-11
7.310000e+02 4.794038e-11
7.320000e+02 5.258504e-11
7.330000e+02 5.766462e-11
7.340000e+02 6.321840e-11
7.350000e+02 6.928910e-11
7.360000e+02 7.592314e-11
7.370000e+02 8.317096e-11
7.380000e+02 9.108733e-11
7.390000e+02 9.973176e-11
7.400000e+02 1.091688e-10
7.410000e+02 1.194687e-10
7.420000e+02 1.307073e-10
7.430000e+02 1.429673e-10
7.440000e+02 1.563382e-10
7.450000e+02 1.709170e-10
7.460000e+02 1.868090e-10
7.470000e+02 2.041283e-10
7.480000e+02 2.229984e-10
7.490000e+02 2.435533e-10
7.500000e+02 2.659379e-10
7.510000e+02 2.903093e-10
7.520000e+02 3.168375e-10
7.530000e+02 3.457065e-10
7.540000e+02 3.771155e-10
7.550000e+02 4.112797e-10
7.560000e+02 4.484323e-10
7.570000e+02 4.888250e-10
7.580000e+02 5.327303e-10
7.590000e+02 5.804425e-10
7.600000e+02 6.322798e-10
7.610000e+02 6.885857e-10
7.620000e+02 7.497315e-10
7.630000e+02 8.161181e-10
7.640000e+02 8.881780e-10
7.650000e+02 9.663785e-10
7.660000e+02 1.051224e-09
7.670000e+02 1.143258e-09
7.680000e+02 1.243067e-09
7.690000e+02 1.351283e-09
7.700000e+02 1.468592e-09
7.710000e+02 1.595726e-09
7.720000e+02 1.733478e-09
7.730000e+02 1.882702e-09
7.740000e+02 2.044319e-09
7.750000e+02 2.219319e-09
7.760000e+02 2.408771e-09
7.770000e+02 2.613821e-09
7.780000e+02 2.835709e-09
7.790000e+02 3.075763e-09
7.800000e+02 3.335417e-09
7.810000e+02 3.616210e-09
7.820000e+02 3.919800e-09
7.830000e+02 4.247968e-09
7.840000e+02 4.602629e-09
7.850000e+02 4.985842e-09
7.860000e+02 5.399817e-09
7.870000e+02 5.846934e-09
7.880000e+02 6.329743e-09
7.890000e+02 6.850988e-09
7.900000e+02 7.413612e-09
7.910000e+02 8.020775e-09
7.920000e+02 8.675865e-09
7.930000e+02 9.382537e-09
7.940000e+02 1.014468e-08
7.950000e+02 1.096650e-08
7.960000e+02 1.185247e-08
7.970000e+02 1.280743e-08
7.980000e+02 1.383653e-08
7.990000e+02 1.494531e-08
8.000000e+02 1.613971e-08
8.010000e+02 1.742608e-08
8.020000e+02 1.881123e-08
8.030000e+02 2.030246e-08
8.040000e+02 2.190757e-08
8.050000e+02 2.363435e-08
8.060000e+02 2.549351e-08
8.070000e+02 2.749286e-08
8.080000e+02 2.964325e-08
8.090000e+02 3.195564e-08
8.100000e+02 3.444176e-08
8.110000e+02 3.711416e-08
8.120000e+02 3.998625e-08
8.130000e+02 4.307238e-08
8.140000e+02 4.638787e-08
8.150000e+02 4.994910e-08
8.160000e+02 5.377358e-08
8.170000e+02 5.788000e-08
8.180000e+02 6.228834e-08
8.190000e+02 6.701991e-08
8.200000e+02 7.209749e-08
8.210000e+02 7.754540e-08
8.220000e+02 8.338957e-08
8.230000e+02 8.965768e-08
8.240000e+02 9.637929e-08
8.250000e+02 1.035859e-07
8.260000e+02 1.113111e-07
8.270000e+02 1.195908e-07
8.280000e+02 1.284631e-07
8.290000e+02 1.379689e-07
8.300000e+02 1.481514e-07
8.310000e+02 1.590571e-07
8.320000e+02 1.707351e-07
8.330000e+02 1.832381e-07
8.340000e+02 1.966219e-07
8.350000e+02 2.109460e-07
8.360000e+02 2.262743e-07
8.370000e+02 2.426738e-07
8.380000e+02 2.602166e-07
8.390000e+02 2.789791e-07
8.400000e+02 2.990428e-07
8.410000e+02 3.204942e-07
8.420000e+02 3.434255e-07
8.430000e+02 3.679346e-07
8.440000e+02 3.941256e-07
8.450000e+02 4.221094e-07
8.460000e+02 4.520037e-07
8.470000e+02 4.839334e-07
8.480000e+02 5.180318e-07
8.490000e+02 5.544399e-07
8.500000e+02 5.933079e-07
8.510000e+02 6.347953e-07
8.520000e+02 6.790711e-07
8.530000e+02 7.263155e-07
8.540000e+02 7.767190e-07
8.550000e+02 8.304842e-07
8.560000e+02 8.878263e-07
8.570000e+02 9.489733e-07
8.580000e+02 1.014167e-06
8.590000e+02 1.083665e-06
8.600000e+02 1.157739e-06
8.610000e+02 1.236678e-06
8.620000e+02 1.320788e-06
8.630000e+02 1.410394e-06
8.640000e+02 1.505841e-06
8.650000e+02 1.607493e-06
8.660000e+02 1.715736e-06
8.670000e+02 1.830980e-06
8.680000e+02 1.953660e-06
8.690000e+02 2.084235e-06
8.700000e+02 2.223191e-06
8.710000e+02 2.371045e-06
8.720000e+02 2.528342e-06
8.730000e+02 2.695659e-06
8.740000e+02 2.873609e-06
8.750000e+02 3.062838e-06
8.760000e+02 3.264032e-06
8.770000e+02 3.477914e-06
8.780000e+02 3.705251e-06
8.790000e+02 3.946855e-06
8.800000e+02 4.203582e-06
8.810000e+02 4.476339e-06
8.820000e+02 4.766084e-06
8.830000e+02 5.073829e-06
8.840000e+02 5.400647e-06
8.850000e+02 5.747670e-06
8.860000e+02 6.116090e-06
8.870000e+02 6.507174e-06
8.880000e+02 6.922254e-06
8.890000e+02 7.362740e-06
8.900000e+02 7.830121e-06
8.910000e+02 8.325968e-06
8.920000e+02 8.851941e-06
8.930000e+02 9.409790e-06
8.940000e+02 1.000136e-05
8.950000e+02 1.062862e-05
8.960000e+02 1.129360e-05
8.970000e+02 1.199850e-05
8.980000e+02 1.274559e-05
8.990000e+02 1.353730e-05
9.000000e+02 1.437617e-05
9.010000e+02 1.526489e-05
9.020000e+02 1.620630e-05
9.030000e+02 1.720336e-05
9.040000e+02 1.825927e-05
9.050000e+02 1.937731e-05
9.060000e+02 2.056098e-05
9.070000e+02 2.181398e-05
9.080000e+02 2.314018e-05
9.090000e+02 2.454366e-05
9.100000e+02 2.602875e-05
9.110000e+02 2.759996e-05
9.120000e+02 2.926209e-05
9.130000e+02 3.102009e-05
9.140000e+02 3.396883e-05
9.150000e+02 6.388925e-03
9.160000e+02 2.436172e-02
9.170000e+02 7.695096e-04
9.180000e+02 8.557613e-03
9.190000e+02 6.474446e-02
9.200000e+02 1.536191e-01
9.210000e+02 4.923552e-05
9.220000e+02 3.404412e-02
9.230000e+02 9.549051e-04
9.240000e+02 1.407817e-03
9.250000e+02 7.016121e-03
9.260000e+02 1.118264e-02
9.270000e+02 1.054234e-03
9.280000e+02 5.090187e-01
9.290000e+02 6.693454e-01
9.300000e+02 1.866532e-01
9.310000e+02 1.164797e-03
9.320000e+02 5.590573e-01
9.330000e+02 2.963024e-02
9.340000e+02 1.081848e-02
9.350000e+02 4.381313e-03
9.360000e+02 2.250308e-03
9.370000e+02 7.580800e-04
9.380000e+02 2.674648e-03
9.390000e+02 4.885190e-03
9.400000e+02 2.354330e-01
9.410000e+02 4.589233e-02
9.420000e+02 1.783952e+00
9.430000e+02 7.063106e-03
9.440000e+02 2.096257e+00
9.450000e+02 1.580889e+00
9.460000e+02 8.460781e-02
9.470000e+02 6.298926e-04
9.480000e+02 5.703403e-01
9.490000e+02 1.153988e-01
9.500000e+02 4.498656e-03
9.510000e+02 6.881005e-02
9.520000e+02 1.263304e-01
9.530000e+02 1.990173e-03
9.540000e+02 7.523382e-04
9.550000e+02 1.859760e-02
9.560000e+02 1.848799e+00
9.570000e+02 1.036845e-02
9.580000e+02 4.896149e-04
9.590000e+02 7.609126e-01
9.600000e+02 8.097425e-03
9.610000e+02 1.010032e-01
9.620000e+02 4.153486e-02
9.630000e+02 1.533931e-02
9.640000e+02 2.469923e-03
9.650000e+02 1.691937e-03
9.660000e+02 2.041852e-02
9.670000e+02 5.091876e-03
9.680000e+02 3.445864e-03
9.690000e+02 9.784663e-02
9.700000e+02 8.551053e-02
9.710000e+02 6.456408e-03
9.720000e+02 4.804768e-03
9.730000e+02 3.434576e-02
9.740000e+02 1.104313e-01
9.750000e+02 3.620036e-02
9.760000e+02 6.979509e-01
9.770000e+02 3.601593e-01
9.780000e+02 1.352157e-01
9.790000e+02 5.913436e+00
9.800000e+02 5.372905e+00
9.810000e+02 1.146238e-01
9.820000e+02 2.551740e-02
9.830000e+02 2.276793e+00
9.840000e+02 4.403976e-01
9.850000e+02 6.267420e-02
9.860000e+02 8.895285e-02
9.870000e+02 2.786388e+00
9.880000e+02 4.326582e-03
9.890000e+02 4.156177e-01
9.900000e+02 9.361736e-01
9.910000e+02 2.253792e-02
9.920000e+02 2.514662e-03
9.930000e+02 1.177217e+01
9.940000e+02 5.545586e-03
9.950000e+02 7.829582e-01
9.960000e+02 1.102114e-02
9.970000e+02 7.069076e-01
9.980000e+02 1.201676e+00
9.990000e+02 4.409349e-02
1.000000e+03 1.868233e+01
1.001000e+03 1.474000e+01
1.002000e+03 7.042494e+00
1.003000e+03 4.981327e-02
1.004000e+03 7.966042e-03
1.005000e+03 1.265373e-01
1.006000e+03 4.289762e+00
1.007000e+03 9.015812e+00
1.008000e+03 2.081080e+00
1.009000e+03 7.707010e-02
1.010000e+03 2.298342e+00
1.011000e+03 4.611508e+00
1.012000e+03 2.729197e+00
1.013000e+03 2.352801e+00
1.014000e+03 6.915331e-03
1.015000e+03 1.203656e-02
1.016000e+03 1.465967e-01
1.017000e+03 7.504940e-03
1.018000e+03 7.838440e-02
1.019000e+03 1.271057e-02
1.020000e+03 7.815209e+00
1.021000e+03 9.873009e-02
1.022000e+03 1.476583e-01
1.023000e+03 2.031088e-02
1.024000e+03 2.339589e+00
1.025000e+03 1.037996e-02
1.026000e+03 2.209181e-02
1.027000e+03 5.054204e-01
1.028000e+03 1.251585e-01
1.029000e+03 1.332521e-02
1.030000e+03 6.489582e-01
1.031000e+03 7.214119e-01
1.032000e+03 7.425837e+00
1.033000e+03 8.877633e-01
1.034000e+03 1.164038e+00
1.035000e+03 8.550119e-02
1.036000e+03 1.941848e-02
1.037000e+03 5.797847e+00
1.038000e+03 3.466681e+01
1.039000e+03 6.202049e+00
1.040000e+03 7.681806e+00
1.041000e+03 5.799624e+01
1.042000e+03 2.090775e+01
1.043000e+03 2.120179e+01
1.044000e+03 1.365910e+02
1.045000e+03 6.924972e-02
1.046000e+03 8.628044e+00
1.047000e+03 2.182087e+00
1.048000e+03 1.117282e-01
1.049000e+03 2.682064e+00
1.050000e+03 1.103357e+00
1.051000e+03 6.427097e-01
1.052000e+03 2.218224e+01
1.053000e+03 5.521884e+01
1.054000e+03 3.969955e-02
1.055000e+03 7.755245e+01
1.056000e+03 7.784690e+01
1.057000e+03 5.599784e+00
1.058000e+03 7.424556e-01
1.059000e+03 4.153328e-01
1.060000e+03 1.749249e-01
1.061000e+03 8.184189e+00
1.062000e+03 4.309432e-01
1.063000e+03 8.038465e+00
1.064000e+03 1.213989e-01
1.065000e+03 6.411743e-02
1.066000e+03 1.144886e+01
1.067000e+03 3.719232e-01
1.068000e+03 2.018982e+02
1.069000e+03 1.505543e-01
1.070000e+03 4.617142e+00
1.071000e+03 5.696266e+01
1.072000e+03 9.981405e+01
1.073000e+03 1.003571e-01
1.074000e+03 5.931436e+00
1.075000e+03 3.698517e+00
1.076000e+03 1.181748e+02
1.077000e+03 5.608177e-01
1.078000e+03 9.584961e-01
1.079000e+03 3.376279e+00
1.080000e+03 8.778514e+00
1.081000e+03 2.650193e+01
1.082000e+03 1.767728e+01
1.083000e+03 1.044493e+01
1.084000e+03 3.613071e+02
1.085000e+03 3.467667e+00
1.086000e+03 2.397285e+02
1.087000e+03 8.951111e-01
1.088000e+03 5.829677e+02
1.089000e+03 5.411789e+02
1.090000e+03 2.827880e+00
1.091000e+03 3.544067e+00
1.092000e+03 3.003389e+02
1.093000e+03 3.603425e+02
1.094000e+03 2.788450e+01
1.095000e+03 6.598243e+02
1.096000e+03 1.108960e+02
1.097000e+03 7.302181e+01
1.098000e+03 5.602923e+02
1.099000e+03 9.899109e+00
1.100000e+03 5.005150e-01
1.101000e+03 9.731098e-01
1.102000e+03 5.655873e+00
1.103000e+03 3.900612e+02
1.104000e+03 8.808719e+02
1.105000e+03 5.645133e+02
1.106000e+03 2.311896e+01
1.107000e+03 6.398010e-01
1.108000e+03 1.068483e+02
1.109000e+03 3.593506e+00
1.110000e+03 1.094212e+03
1.111000e+03 3.102958e+02
1.112000e+03 5.573092e+01
1.113000e+03 6.238934e+02
1.114000e+03 3.685150e+01
1.115000e+03 5.299814e+00
1.116000e+03 3.077481e+00
1.117000e+03 2.952077e+02
1.118000e+03 5.616058e+00
1.119000e+03 7.637863e+01
1.120000e+03 3.457184e+00
1.121000e+03 2.309683e+02
1.122000e+03 1.046957e+03
1.123000e+03 4.323171e+02
1.124000e+03 4.753077e+02
1.125000e+03 2.216533e+02
1.126000e+03 2.376295e+03
1.127000e+03 3.746765e+02
1.128000e+03 1.246443e+03
1.129000e+03 1.588996e+02
1.130000e+03 7.135043e+02
1.131000e+03 1.259574e+03
1.132000e+03 6.103790e+00
1.133000e+03 2.024573e+01
1.134000e+03 1.681312e+02
1.135000e+03 8.426041e+02
1.136000e+03 4.452332e+01
1.137000e+03 6.060504e+02
1.138000e+03 1.498507e+02
1.139000e+03 1.311007e+03
1.140000e+03 1.618426e+03
1.141000e+03 9.808252e+02
1.142000e+03 1.833989e+03
1.143000e+03 2.695972e+02
1.144000e+03 1.724631e+03
1.145000e+03 3.702942e+00
1.146000e+03 2.177026e+03
1.147000e+03 1.322110e+03
1.148000e+03 1.610779e+01
1.149000e+03 7.037235e+02
1.150000e+03 4.115637e+02
1.151000e+03 2.074826e+03
1.152000e+03 1.121901e+03
1.153000e+03 1.385072e+03
1.154000e+03 2.259367e+03
1.155000e+03 5.780092e+02
1.156000e+03 1.983168e+03
1.157000e+03 2.232569e+03
1.158000e+03 2.875925e+02
1.159000e+03 1.710067e+03
1.160000e+03 2.904966e+02
1.161000e+03 1.503163e+03
1.162000e+03 5.728967e+01
1.163000e+03 1.504231e+02
1.164000e+03 2.310309e+01
1.165000e+03 8.763068e+02
1.166000e+03 5.059341e+02
1.167000e+03 4.639305e+02
1.168000e+03 2.329484e+03
1.169000e+03 2.538350e+03
1.170000e+03 3.812385e+02
1.171000e+03 1.127150e+03
1.172000e+03 4.000482e+02
1.173000e+03 1.187334e+03
1.174000e+03 1.698528e+01
1.175000e+03 1.521246e+01
1.176000e+03 6.182922e+00
1.177000e+03 3.093684e+03
1.178000e+03 3.060527e+03
1.179000e+03 2.320258e+03
1.180000e+03 8.139665e+02
1.181000e+03 2.819876e+03
1.182000e+03 2.100318e+03
1.183000e+03 9.459468e+02
1.184000e+03 7.638981e+02
1.185000e+03 1.068188e+03
1.186000e+03 6.948627e+01
1.187000e+03 1.531642e+03
1.188000e+03 5.522328e+02
1.189000e+03 2.429180e+03
1.190000e+03 2.261654e+03
1.191000e+03 1.369183e+03
1.192000e+03 1.865891e+03
1.193000e+03 1.177413e+03
1.194000e+03 1.773529e+03
1.195000e+03 1.711861e+03
1.196000e+03 4.337250e+03
1.197000e+03 9.455789e+03
1.198000e+03 1.761622e+02
1.199000e+03 9.165662e+03
1.200000e+03 4.087079e+02
1.201000e+03 7.413628e+03
1.202000e+03 1.563063e+03
1.203000e+03 4.915742e+03
1.204000e+03 3.792238e+02
1.205000e+03 3.591157e+03
1.206000e+03 4.047428e+03
1.207000e+03 1.371639e+03
1.208000e+03 2.526597e+03
1.209000e+03 2.605300e+03
1.210000e+03 2.429041e+01
1.211000e+03 1.227796e+03
1.212000e+03 5.254528e+02
1.213000e+03 3.831626e+02
1.214000e+03 1.325779e+02
1.215000e+03 2.335643e+01
1.216000e+03 1.525058e+01
1.217000e+03 8.598073e+01
1.218000e+03 3.223265e+02
1.219000e+03 7.368633e+02
1.220000e+03 3.956811e+02
1.221000e+03 2.150217e+03
1.222000e+03 2.263208e+03
1.223000e+03 2.242170e+03
1.224000e+03 5.480003e+03
1.225000e+03 2.556987e+02
1.226000e+03 9.047896e+03
1.227000e+03 9.050909e+03
1.228000e+03 1.215301e+03
1.229000e+03 6.920804e+03
1.230000e+03 4.830737e+03
1.231000e+03 8.259004e+02
1.232000e+03 1.880154e+04
1.233000e+03 2.121175e+04
1.234000e+03 1.949324e+04
1.235000e+03 1.621154e+04
1.236000e+03 1.718047e+03
1.237000e+03 2.345274e+04
1.238000e+03 1.788600e+04
1.239000e+03 8.946564e+03
1.240000e+03 1.663288e+04
1.241000e+03 8.389154e+03
1.242000e+03 1.670502e+04
1.243000e+03 2.994723e+04
1.244000e+03 3.438758e+04
1.245000e+03 2.706097e+04
1.246000e+03 1.590799e+04
1.247000e+03 2.183311e+04
1.248000e+03 3.386729e+04
1.249000e+03 4.199435e+04
1.250000e+03 2.679117e+04
1.251000e+03 3.971113e+04
1.252000e+03 2.632702e+04
1.253000e+03 4.301128e+04
1.254000e+03 2.880886e+04
1.255000e+03 2.325059e+04
1.256000e+03 2.437980e+04
1.257000e+03 3.367759e+04
1.258000e+03 1.162899e+04
1.259000e+03 1.973013e+04
1.260000e+03 4.427628e+04
1.261000e+03 4.558934e+03
1.262000e+03 5.170759e+04
1.263000e+03 3.733140e+04
1.264000e+03 1.555991e+04
1.265000e+03 6.302172e+03
1.266000e+03 4.670588e+04
1.267000e+03 2.179367e+04
