# wavelength_A flux
5.000000e+02 1.083217e-14
5.010000e+02 1.265268e-14
5.020000e+02 1.476973e-14
5.030000e+02 1.723009e-14
5.040000e+02 2.008763e-14
5.050000e+02 2.411625e-14
5.060000e+02 2.807520e-14
5.070000e+02 3.266388e-14
5.080000e+02 3.797924e-14
5.090000e+02 4.413331e-14
5.100000e+02 5.125254e-14
5.110000e+02 5.948479e-14
5.120000e+02 6.899773e-14
5.130000e+02 7.998434e-14
5.140000e+02 9.266550e-14
5.150000e+02 1.072924e-13
5.160000e+02 1.241592e-13
5.170000e+02 1.435850e-13
5.180000e+02 1.659701e-13
5.190000e+02 1.917255e-13
5.200000e+02 2.213510e-13
5.210000e+02 2.554086e-13
5.220000e+02 2.945010e-13
5.230000e+02 3.394760e-13
5.240000e+02 3.910521e-13
5.250000e+02 4.502142e-13
5.260000e+02 5.180387e-13
5.270000e+02 5.957534e-13
5.280000e+02 6.847535e-13
5.290000e+02 7.863883e-13
5.300000e+02 9.031568e-13
5.310000e+02 1.036402e-12
5.320000e+02 1.188675e-12
5.330000e+02 1.362592e-12
5.340000e+02 1.561131e-12
5.350000e+02 1.787659e-12
5.360000e+02 2.045973e-12
5.370000e+02 2.304686e-12
5.380000e+02 2.675837e-12
5.390000e+02 3.057742e-12
5.400000e+02 3.492571e-12
5.410000e+02 3.986735e-12
5.420000e+02 4.549252e-12
5.430000e+02 5.188121e-12
5.440000e+02 5.913761e-12
5.450000e+02 6.737552e-12
5.460000e+02 7.670844e-12
5.470000e+02 8.732483e-12
5.480000e+02 9.934279e-12
5.490000e+02 1.129605e-11
5.500000e+02 1.283825e-11
5.510000e+02 1.458403e-11
5.520000e+02 1.655930e-11
5.530000e+02 1.879318e-11
5.540000e+02 2.131836e-11
5.550000e+02 2.417150e-11
5.560000e+02 2.739371e-11
5.570000e+02 3.103105e-11
5.580000e+02 3.513514e-11
5.590000e+02 3.976378e-11
5.600000e+02 4.498164e-11
5.610000e+02 5.086110e-11
5.620000e+02 5.748309e-11
5.630000e+02 6.493806e-11
5.640000e+02 7.332710e-11
5.650000e+02 8.276284e-11
5.660000e+02 9.337207e-11
5.670000e+02 1.052945e-10
5.680000e+02 1.186877e-10
5.690000e+02 1.337261e-10
5.700000e+02 1.506046e-10
5.710000e+02 1.695409e-10
5.720000e+02 1.907762e-10
5.730000e+02 2.145799e-10
5.740000e+02 2.412514e-10
5.750000e+02 2.711290e-10
5.760000e+02 3.045197e-10
5.770000e+02 3.420001e-10
5.780000e+02 3.838670e-10
5.790000e+02 4.306812e-10
5.800000e+02 4.830062e-10
5.810000e+02 5.414669e-10
5.820000e+02 6.067554e-10
5.830000e+02 6.796337e-10
5.840000e+02 7.607120e-10
5.850000e+02 8.516448e-10
5.860000e+02 9.528809e-10
5.870000e+02 1.065656e-09
5.880000e+02 1.191304e-09
5.890000e+02 1.331215e-09
5.900000e+02 1.487038e-09
5.910000e+02 1.660413e-09
5.920000e+02 1.853308e-09
5.930000e+02 2.067806e-09
5.940000e+02 2.306249e-09
5.950000e+02 2.571171e-09
5.960000e+02 2.865530e-09
5.970000e+02 3.192338e-09
5.980000e+02 3.555089e-09
5.990000e+02 3.957586e-09
6.000000e+02 4.404021e-09
6.010000e+02 4.897474e-09
6.020000e+02 5.447638e-09
6.030000e+02 6.055481e-09
6.040000e+02 6.728735e-09
6.050000e+02 7.474126e-09
6.060000e+02 8.299106e-09
6.070000e+02 9.211853e-09
6.080000e+02 1.022135e-08
6.090000e+02 1.133745e-08
6.100000e+02 1.257098e-08
6.110000e+02 1.393389e-08
6.120000e+02 1.543914e-08
6.130000e+02 1.710107e-08
6.140000e+02 1.893535e-08
6.150000e+02 2.095918e-08
6.160000e+02 2.319139e-08
6.170000e+02 2.565260e-08
6.180000e+02 2.836541e-08
6.190000e+02 3.135454e-08
6.200000e+02 3.464705e-08
6.210000e+02 3.827252e-08
6.220000e+02 4.226334e-08
6.230000e+02 4.665487e-08
6.240000e+02 5.148580e-08
6.250000e+02 5.679836e-08
6.260000e+02 6.263870e-08
6.270000e+02 6.905718e-08
6.280000e+02 7.610885e-08
6.290000e+02 8.385363e-08
6.300000e+02 9.235703e-08
6.310000e+02 1.016826e-07
6.320000e+02 1.119316e-07
6.330000e+02 1.231646e-07
6.340000e+02 1.354843e-07
6.350000e+02 1.489885e-07
6.360000e+02 1.636984e-07
6.370000e+02 1.800027e-07
6.380000e+02 1.977613e-07
6.390000e+02 2.172054e-07
6.400000e+02 2.384887e-07
6.410000e+02 2.617781e-07
6.420000e+02 2.872552e-07
6.430000e+02 3.151173e-07
6.440000e+02 3.455785e-07
6.450000e+02 3.788716e-07
6.460000e+02 4.152494e-07
6.470000e+02 4.549858e-07
6.480000e+02 4.983788e-07
6.490000e+02 5.457509e-07
6.500000e+02 5.974520e-07
6.510000e+02 6.538622e-07
6.520000e+02 7.153931e-07
6.530000e+02 7.824896e-07
6.540000e+02 8.556353e-07
6.550000e+02 9.353530e-07
6.560000e+02 1.022209e-06
6.570000e+02 1.116792e-06
6.580000e+02 1.219839e-06
6.590000e+02 1.331993e-06
6.600000e+02 1.454048e-06
6.610000e+02 1.586867e-06
6.620000e+02 1.731332e-06
6.630000e+02 1.888433e-06
6.640000e+02 2.059229e-06
6.650000e+02 2.244857e-06
6.660000e+02 2.446573e-06
6.670000e+02 2.665690e-06
6.680000e+02 2.903656e-06
6.690000e+02 3.162024e-06
6.700000e+02 3.442469e-06
6.710000e+02 3.746799e-06
6.720000e+02 4.076963e-06
6.730000e+02 4.435062e-06
6.740000e+02 4.823360e-06
6.750000e+02 5.244295e-06
6.760000e+02 5.700495e-06
6.770000e+02 6.194791e-06
6.780000e+02 6.730227e-06
6.790000e+02 7.310083e-06
6.800000e+02 7.937887e-06
6.810000e+02 8.617436e-06
6.820000e+02 9.352812e-06
6.830000e+02 1.014841e-05
6.840000e+02 1.100894e-05
6.850000e+02 1.193940e-05
6.860000e+02 1.294549e-05
6.870000e+02 1.403278e-05
6.880000e+02 1.520775e-05
6.890000e+02 1.647706e-05
6.900000e+02 1.784797e-05
6.910000e+02 1.932830e-05
6.920000e+02 2.092637e-05
6.930000e+02 2.265116e-05
6.940000e+02 2.451228e-05
6.950000e+02 2.652002e-05
6.960000e+02 2.868545e-05
6.970000e+02 3.102003e-05
6.980000e+02 3.353757e-05
6.990000e+02 3.625055e-05
7.000000e+02 3.917391e-05
7.010000e+02 4.232325e-05
7.020000e+02 4.571527e-05
7.030000e+02 4.936783e-05
7.040000e+02 5.330010e-05
7.050000e+02 5.753251e-05
7.060000e+02 6.208685e-05
7.070000e+02 6.698693e-05
7.080000e+02 7.225740e-05
7.090000e+02 7.792465e-05
7.100000e+02 8.401883e-05
7.110000e+02 9.056899e-05
7.120000e+02 9.760832e-05
7.130000e+02 1.051717e-04
7.140000e+02 1.132964e-04
7.150000e+02 1.220221e-04
7.160000e+02 1.313917e-04
7.170000e+02 1.414496e-04
7.180000e+02 1.522441e-04
7.190000e+02 1.638303e-04
7.200000e+02 1.762589e-04
7.210000e+02 1.895902e-04
7.220000e+02 2.038867e-04
7.230000e+02 2.192153e-04
7.240000e+02 2.356469e-04
7.250000e+02 2.532575e-04
7.260000e+02 2.721262e-04
7.270000e+02 2.923433e-04
7.280000e+02 3.139963e-04
7.290000e+02 3.371837e-04
7.300000e+02 3.620097e-04
7.310000e+02 3.885846e-04
7.320000e+02 4.170259e-04
7.330000e+02 4.474586e-04
7.340000e+02 4.800159e-04
7.350000e+02 5.148391e-04
7.360000e+02 5.520782e-04
7.370000e+02 5.918946e-04
7.380000e+02 6.344567e-04
7.390000e+02 6.799457e-04
7.400000e+02 7.285504e-04
7.410000e+02 7.804839e-04
7.420000e+02 8.359494e-04
7.430000e+02 8.951922e-04
7.440000e+02 9.584441e-04
7.450000e+02 1.025968e-03
7.460000e+02 1.098040e-03
7.470000e+02 1.174951e-03
7.480000e+02 1.257011e-03
7.490000e+02 1.344549e-03
7.500000e+02 1.437912e-03
7.510000e+02 1.537470e-03
7.520000e+02 1.643615e-03
7.530000e+02 1.756762e-03
7.540000e+02 1.877350e-03
7.550000e+02 2.005847e-03
7.560000e+02 2.142745e-03
7.570000e+02 2.288502e-03
7.580000e+02 2.443871e-03
7.590000e+02 2.609230e-03
7.600000e+02 2.785296e-03
7.610000e+02 2.972696e-03
7.620000e+02 3.172140e-03
7.630000e+02 3.384357e-03
7.640000e+02 3.610131e-03
7.650000e+02 3.850281e-03
7.660000e+02 4.105690e-03
7.670000e+02 4.377270e-03
7.680000e+02 4.665975e-03
7.690000e+02 4.972904e-03
7.700000e+02 5.299078e-03
7.710000e+02 5.645669e-03
7.720000e+02 6.013894e-03
7.730000e+02 6.405037e-03
7.740000e+02 6.820456e-03
7.750000e+02 7.261581e-03
7.760000e+02 7.728878e-03
7.770000e+02 8.227093e-03
7.780000e+02 8.754764e-03
7.790000e+02 9.314717e-03
7.800000e+02 9.908832e-03
7.810000e+02 1.053909e-02
7.820000e+02 1.120758e-02
7.830000e+02 1.191650e-02
7.840000e+02 1.266820e-02
7.850000e+02 1.346510e-02
7.860000e+02 1.430977e-02
7.870000e+02 1.520506e-02
7.880000e+02 1.615367e-02
7.890000e+02 1.715871e-02
7.900000e+02 1.822335e-02
7.910000e+02 1.935096e-02
7.920000e+02 2.054507e-02
7.930000e+02 2.180940e-02
7.940000e+02 2.314788e-02
7.950000e+02 2.456464e-02
7.960000e+02 2.606403e-02
7.970000e+02 2.765061e-02
7.980000e+02 2.932921e-02
7.990000e+02 3.110489e-02
8.000000e+02 3.298299e-02
8.010000e+02 3.496902e-02
8.020000e+02 3.706913e-02
8.030000e+02 3.928928e-02
8.040000e+02 4.163606e-02
8.050000e+02 4.411633e-02
8.060000e+02 4.673730e-02
8.070000e+02 4.950653e-02
8.080000e+02 5.243199e-02
8.090000e+02 5.552203e-02
8.100000e+02 5.878544e-02
8.110000e+02 6.223145e-02
8.120000e+02 6.586972e-02
8.130000e+02 6.971049e-02
8.140000e+02 7.376438e-02
8.150000e+02 7.804262e-02
8.160000e+02 8.255700e-02
8.170000e+02 8.731972e-02
8.180000e+02 9.234418e-02
8.190000e+02 9.764355e-02
8.200000e+02 1.032323e-01
8.210000e+02 1.091253e-01
8.220000e+02 1.153383e-01
8.230000e+02 1.218877e-01
8.240000e+02 1.287910e-01
8.250000e+02 1.360660e-01
8.260000e+02 1.437319e-01
8.270000e+02 1.518085e-01
8.280000e+02 1.603166e-01
8.290000e+02 1.692780e-01
8.300000e+02 1.787158e-01
8.310000e+02 1.886538e-01
8.320000e+02 1.991172e-01
8.330000e+02 2.101321e-01
8.340000e+02 2.217263e-01
8.350000e+02 2.339155e-01
8.360000e+02 2.467681e-01
8.370000e+02 2.602790e-01
8.380000e+02 2.744871e-01
8.390000e+02 2.894424e-01
8.400000e+02 3.051666e-01
8.410000e+02 3.217023e-01
8.420000e+02 3.390856e-01
8.430000e+02 3.573688e-01
8.440000e+02 3.765844e-01
8.450000e+02 3.967814e-01
8.460000e+02 4.180071e-01
8.470000e+02 4.403111e-01
8.480000e+02 4.637453e-01
8.490000e+02 4.883637e-01
8.500000e+02 5.142231e-01
8.510000e+02 5.413825e-01
8.520000e+02 5.699028e-01
8.530000e+02 5.998512e-01
8.540000e+02 6.312946e-01
8.550000e+02 6.643003e-01
8.560000e+02 6.989437e-01
8.570000e+02 7.353020e-01
8.580000e+02 7.734549e-01
8.590000e+02 8.134865e-01
8.600000e+02 8.554839e-01
8.610000e+02 8.995385e-01
8.620000e+02 9.457455e-01
8.630000e+02 9.942028e-01
8.640000e+02 1.045018e+00
8.650000e+02 1.098292e+00
8.660000e+02 1.154149e+00
8.670000e+02 1.212696e+00
8.680000e+02 1.274060e+00
8.690000e+02 1.338369e+00
8.700000e+02 1.405756e+00
8.710000e+02 1.476359e+00
8.720000e+02 1.550324e+00
8.730000e+02 1.627803e+00
8.740000e+02 1.708952e+00
8.750000e+02 1.793935e+00
8.760000e+02 1.882924e+00
8.770000e+02 1.976092e+00
8.780000e+02 2.073640e+00
8.790000e+02 2.175745e+00
8.800000e+02 2.282614e+00
8.810000e+02 2.394456e+00
8.820000e+02 2.511491e+00
8.830000e+02 2.633945e+00
8.840000e+02 2.762055e+00
8.850000e+02 2.896067e+00
8.860000e+02 3.036238e+00
8.870000e+02 3.182835e+00
8.880000e+02 3.336134e+00
8.890000e+02 3.496427e+00
8.900000e+02 3.664012e+00
8.910000e+02 3.839202e+00
8.920000e+02 4.019549e+00
8.930000e+02 4.213714e+00
8.940000e+02 4.413725e+00
8.950000e+02 4.622723e+00
8.960000e+02 4.841090e+00
8.970000e+02 5.069219e+00
8.980000e+02 5.307522e+00
8.990000e+02 5.556426e+00
9.000000e+02 5.816376e+00
9.010000e+02 6.087833e+00
9.020000e+02 6.371277e+00
9.030000e+02 6.667204e+00
9.040000e+02 6.976121e+00
9.050000e+02 7.298596e+00
9.060000e+02 7.635186e+00
9.070000e+02 7.986348e+00
9.080000e+02 8.352975e+00
9.090000e+02 8.735419e+00
9.100000e+02 9.134421e+00
9.110000e+02 9.550680e+00
9.120000e+02 9.984993e+00
9.130000e+02 1.037238e+01
9.140000e+02 1.112865e+01
9.150000e+02 6.646469e+01
9.160000e+02 9.700306e+01
9.170000e+02 1.008496e+02
9.180000e+02 1.046905e+02
9.190000e+02 1.090287e+02
9.200000e+02 1.133206e+02
9.210000e+02 1.472157e+01
9.220000e+02 1.222387e+02
9.230000e+02 1.267189e+02
9.240000e+02 1.289813e+02
9.250000e+02 1.357238e+02
9.260000e+02 1.420811e+02
9.270000e+02 1.477763e+02
9.280000e+02 1.536447e+02
9.290000e+02 1.542421e+02
9.300000e+02 1.637175e+02
9.310000e+02 1.707461e+02
9.320000e+02 1.786204e+02
9.330000e+02 1.851611e+02
9.340000e+02 1.920850e+02
9.350000e+02 5.955527e+01
9.360000e+02 1.943706e+02
9.370000e+02 4.910210e+01
9.380000e+02 9.437371e+01
9.390000e+02 2.312298e+02
9.400000e+02 2.403247e+02
9.410000e+02 9.827898e+01
9.420000e+02 2.587124e+02
9.430000e+02 2.670092e+02
9.440000e+02 2.319646e+02
9.450000e+02 2.885433e+02
9.460000e+02 2.992560e+02
9.470000e+02 2.222980e+02
9.480000e+02 2.208892e+02
9.490000e+02 3.315646e+02
9.500000e+02 7.692880e+01
9.510000e+02 3.544834e+02
9.520000e+02 3.719714e+02
9.530000e+02 3.811948e+02
9.540000e+02 3.412029e+02
9.550000e+02 4.144376e+02
9.560000e+02 2.422664e+02
9.570000e+02 3.089698e+02
9.580000e+02 4.536544e+02
9.590000e+02 4.797299e+02
9.600000e+02 1.235080e+02
9.610000e+02 5.122772e+02
9.620000e+02 5.331310e+02
9.630000e+02 5.525468e+02
9.640000e+02 9.291843e+01
9.650000e+02 5.548273e+02
9.660000e+02 6.139244e+02
9.670000e+02 6.300018e+02
9.680000e+02 6.545822e+02
9.690000e+02 6.786683e+02
9.700000e+02 7.043714e+02
9.710000e+02 7.239148e+02
9.720000e+02 7.084775e+02
9.730000e+02 7.206028e+02
9.740000e+02 8.003905e+02
9.750000e+02 8.367203e+02
9.760000e+02 8.673439e+02
9.770000e+02 8.987988e+02
9.780000e+02 9.281845e+02
9.790000e+02 9.628947e+02
9.800000e+02 9.959683e+02
9.810000e+02 1.030588e+03
9.820000e+02 1.064349e+03
9.830000e+02 1.102637e+03
9.840000e+02 6.401315e+02
9.850000e+02 1.179233e+03
9.860000e+02 1.219292e+03
9.870000e+02 1.261652e+03
9.880000e+02 1.293770e+03
9.890000e+02 1.234472e+03
9.900000e+02 3.122261e+02
9.910000e+02 1.430422e+03
9.920000e+02 1.310460e+03
9.930000e+02 1.467979e+03
9.940000e+02 3.487999e+02
9.950000e+02 7.021671e+02
9.960000e+02 1.611439e+03
9.970000e+02 4.619861e+02
9.980000e+02 1.813121e+03
9.990000e+02 1.847351e+03
1.000000e+03 1.938442e+03
1.001000e+03 2.003076e+03
1.002000e+03 2.068897e+03
1.003000e+03 2.099086e+03
1.004000e+03 2.195219e+03
1.005000e+03 2.209138e+03
1.006000e+03 2.354305e+03
1.007000e+03 2.421843e+03
1.008000e+03 2.504966e+03
1.009000e+03 2.572493e+03
1.010000e+03 2.675411e+03
1.011000e+03 2.761789e+03
1.012000e+03 2.850662e+03
1.013000e+03 2.942188e+03
1.014000e+03 2.950177e+03
1.015000e+03 3.093998e+03
1.016000e+03 3.226784e+03
1.017000e+03 3.250660e+03
1.018000e+03 3.433959e+03
1.019000e+03 3.517342e+03
1.020000e+03 3.652184e+03
1.021000e+03 1.976618e+03
1.022000e+03 3.500543e+03
1.023000e+03 3.912622e+03
1.024000e+03 3.312761e+03
1.025000e+03 3.219610e+03
1.026000e+03 1.870367e+03
1.027000e+03 3.806813e+03
1.028000e+03 1.464808e+03
1.029000e+03 4.667047e+03
1.030000e+03 4.858360e+03
1.031000e+03 5.123322e+03
1.032000e+03 5.232177e+03
1.033000e+03 2.693445e+03
1.034000e+03 5.638917e+03
1.035000e+03 1.596981e+03
1.036000e+03 5.260000e+03
1.037000e+03 2.726349e+03
1.038000e+03 6.378726e+03
1.039000e+03 6.534713e+03
1.040000e+03 6.777294e+03
1.041000e+03 6.865519e+03
1.042000e+03 7.191546e+03
1.043000e+03 7.136241e+03
1.044000e+03 7.641428e+03
1.045000e+03 7.868490e+03
1.046000e+03 8.117114e+03
1.047000e+03 8.358896e+03
1.048000e+03 8.575020e+03
1.049000e+03 8.525320e+03
1.050000e+03 9.134865e+03
1.051000e+03 9.407070e+03
1.052000e+03 9.695866e+03
1.053000e+03 9.963547e+03
1.054000e+03 9.907627e+03
1.055000e+03 9.707314e+03
1.056000e+03 1.090230e+04
1.057000e+03 1.122222e+04
1.058000e+03 1.154880e+04
1.059000e+03 1.187342e+04
1.060000e+03 1.219478e+04
1.061000e+03 1.260433e+04
1.062000e+03 1.296379e+04
1.063000e+03 4.685439e+03
1.064000e+03 3.735022e+03
1.065000e+03 1.388586e+04
1.066000e+03 9.160490e+03
1.067000e+03 1.489678e+04
1.068000e+03 1.542581e+04
1.069000e+03 1.527248e+04
1.070000e+03 1.630327e+04
1.071000e+03 1.680229e+04
1.072000e+03 1.728401e+04
1.073000e+03 1.754276e+04
1.074000e+03 1.828276e+04
1.075000e+03 1.880146e+04
1.076000e+03 1.934326e+04
1.077000e+03 1.976441e+04
1.078000e+03 2.044355e+04
1.079000e+03 2.101249e+04
1.080000e+03 2.162598e+04
1.081000e+03 2.223864e+04
1.082000e+03 2.285425e+04
1.083000e+03 2.349692e+04
1.084000e+03 2.416220e+04
1.085000e+03 1.843540e+04
1.086000e+03 2.552467e+04
1.087000e+03 2.617348e+04
1.088000e+03 2.689544e+04
1.089000e+03 2.770040e+04
1.090000e+03 2.844039e+04
1.091000e+03 2.909669e+04
1.092000e+03 3.004182e+04
1.093000e+03 3.085157e+04
1.094000e+03 3.171067e+04
1.095000e+03 3.257226e+04
1.096000e+03 3.343500e+04
1.097000e+03 3.273085e+04
1.098000e+03 3.398881e+04
1.099000e+03 3.624114e+04
1.100000e+03 3.371261e+04
1.101000e+03 3.546296e+04
1.102000e+03 6.906675e+04
1.103000e+03 1.828309e+05
1.104000e+03 9.177273e+04
1.105000e+03 3.946044e+04
1.106000e+03 4.288964e+05
1.107000e+03 3.231604e+05
1.108000e+03 4.272921e+05
1.109000e+03 2.658962e+05
1.110000e+03 1.933551e+05
1.111000e+03 8.494562e+04
1.112000e+03 3.944644e+05
1.113000e+03 5.022866e+05
1.114000e+03 3.611778e+04
1.115000e+03 4.870196e+05
1.116000e+03 4.972392e+05
1.117000e+03 4.303662e+04
1.118000e+03 3.486334e+05
1.119000e+03 5.636339e+05
1.120000e+03 5.441483e+05
1.121000e+03 5.689521e+05
1.122000e+03 1.902988e+04
1.123000e+03 6.829156e+04
1.124000e+03 6.245989e+05
1.125000e+03 4.396529e+05
1.126000e+03 6.529113e+05
1.127000e+03 6.457655e+05
1.128000e+03 3.957499e+05
1.129000e+03 6.734448e+05
1.130000e+03 5.311528e+05
1.131000e+03 7.237009e+05
1.132000e+03 5.266400e+04
1.133000e+03 6.303531e+05
1.134000e+03 6.807711e+05
1.135000e+03 3.172219e+04
1.136000e+03 7.851596e+05
1.137000e+03 8.173501e+05
1.138000e+03 8.304475e+05
1.139000e+03 8.328532e+05
1.140000e+03 3.785562e+04
1.141000e+03 8.869961e+05
1.142000e+03 9.035549e+05
1.143000e+03 9.214039e+05
1.144000e+03 9.425914e+05
1.145000e+03 7.361419e+05
1.146000e+03 9.815513e+05
1.147000e+03 9.885955e+05
1.148000e+03 9.741626e+05
1.149000e+03 1.040676e+06
1.150000e+03 1.057664e+06
1.151000e+03 1.078505e+06
1.152000e+03 1.106910e+06
1.153000e+03 5.296706e+05
1.154000e+03 3.479726e+05
1.155000e+03 1.069217e+06
1.156000e+03 2.294602e+05
1.157000e+03 1.218633e+06
1.158000e+03 5.967110e+04
1.159000e+03 9.773374e+05
1.160000e+03 1.281309e+06
1.161000e+03 1.324125e+06
1.162000e+03 5.275281e+05
1.163000e+03 1.362235e+06
1.164000e+03 8.360712e+04
1.165000e+03 1.434112e+06
1.166000e+03 1.463997e+06
1.167000e+03 1.494829e+06
1.168000e+03 1.535355e+06
1.169000e+03 1.510353e+06
1.170000e+03 1.603351e+06
1.171000e+03 1.641273e+06
1.172000e+03 1.670237e+06
1.173000e+03 1.715035e+06
1.174000e+03 1.646860e+06
1.175000e+03 1.062621e+05
1.176000e+03 9.448975e+04
1.177000e+03 1.868776e+06
1.178000e+03 1.888578e+06
1.179000e+03 1.948558e+06
1.180000e+03 1.717942e+06
1.181000e+03 2.027106e+06
1.182000e+03 2.080515e+06
1.183000e+03 2.119736e+06
1.184000e+03 2.160118e+06
1.185000e+03 2.194214e+06
1.186000e+03 2.209487e+06
1.187000e+03 2.282719e+06
1.188000e+03 2.311252e+06
1.189000e+03 1.295032e+05
1.190000e+03 3.309628e+05
1.191000e+03 2.399086e+06
1.192000e+03 2.431850e+06
1.193000e+03 1.223900e+05
1.194000e+03 1.525288e+05
1.195000e+03 2.242327e+06
1.196000e+03 2.552616e+06
1.197000e+03 3.928327e+06
1.198000e+03 3.904657e+06
1.199000e+03 3.876665e+06
1.200000e+03 3.493927e+06
1.201000e+03 3.678729e+06
1.202000e+03 3.643840e+06
1.203000e+03 4.717876e+06
1.204000e+03 4.248826e+06
1.205000e+03 3.961948e+06
1.206000e+03 3.788057e+06
1.207000e+03 5.659733e+05
1.208000e+03 2.784773e+06
1.209000e+03 2.160799e+06
1.210000e+03 2.272088e+05
1.211000e+03 1.319857e+06
1.212000e+03 8.776809e+05
1.213000e+03 6.004315e+05
1.214000e+03 3.797791e+05
1.215000e+03 2.519054e+05
1.216000e+03 2.292945e+05
1.217000e+03 3.468557e+05
1.218000e+03 5.716531e+05
1.219000e+03 9.291664e+05
1.220000e+03 1.421616e+06
1.221000e+03 2.037677e+06
1.222000e+03 2.754638e+06
1.223000e+03 3.545986e+06
1.224000e+03 4.435721e+06
1.225000e+03 5.277408e+06
1.226000e+03 6.364776e+06
1.227000e+03 7.279530e+06
1.228000e+03 8.408891e+06
1.229000e+03 9.576704e+06
1.230000e+03 9.971580e+06
1.231000e+03 1.159455e+07
1.232000e+03 1.299499e+07
1.233000e+03 1.415666e+07
1.234000e+03 8.652781e+06
1.235000e+03 1.643680e+07
1.236000e+03 1.710813e+07
1.237000e+03 1.868351e+07
1.238000e+03 1.977701e+07
1.239000e+03 2.082966e+07
1.240000e+03 1.966102e+07
1.241000e+03 3.192053e+07
1.242000e+03 2.079976e+07
1.243000e+03 2.868721e+07
1.244000e+03 1.418265e+07
1.245000e+03 2.024025e+07
1.246000e+03 4.776858e+07
1.247000e+03 4.836608e+07
1.248000e+03 1.535189e+07
1.249000e+03 1.900473e+07
1.250000e+03 5.710702e+07
1.251000e+03 6.055683e+07
1.252000e+03 6.246444e+07
1.253000e+03 6.575724e+07
1.254000e+03 6.758990e+07
1.255000e+03 6.844023e+07
1.256000e+03 7.136610e+07
1.257000e+03 7.442186e+07
1.258000e+03 7.422954e+07
1.259000e+03 7.620727e+07
1.260000e+03 6.112810e+07
1.261000e+03 6.356626e+05
1.262000e+03 1.067128e+07
1.263000e+03 8.391530e+07
1.264000e+03 7.652414e+07
1.265000e+03 6.616720e+05
1.266000e+03 9.187816e+07
1.267000e+03 9.625346e+07
