# wavelength_A flux
5.000000e+02 2.480298e-43
5.010000e+02 3.307064e-43
5.020000e+02 4.400077e-43
5.030000e+02 5.843415e-43
5.040000e+02 7.763193e-43
5.050000e+02 1.029954e-42
5.060000e+02 1.366266e-42
5.070000e+02 1.807675e-42
5.080000e+02 2.390615e-42
5.090000e+02 3.157125e-42
5.100000e+02 4.164659e-42
5.110000e+02 5.488886e-42
5.120000e+02 7.225095e-42
5.130000e+02 9.500804e-42
5.140000e+02 1.247856e-41
5.150000e+02 1.637417e-41
5.160000e+02 2.146089e-41
5.170000e+02 2.809884e-41
5.180000e+02 3.675045e-41
5.190000e+02 4.801549e-41
5.200000e+02 6.266887e-41
5.210000e+02 8.170831e-41
5.220000e+02 1.064202e-40
5.230000e+02 1.384665e-40
5.240000e+02 1.799772e-40
5.250000e+02 2.336945e-40
5.260000e+02 3.031387e-40
5.270000e+02 3.928232e-40
5.280000e+02 5.085326e-40
5.290000e+02 6.576714e-40
5.300000e+02 8.497082e-40
5.310000e+02 1.096742e-39
5.320000e+02 1.414211e-39
5.330000e+02 1.821809e-39
5.340000e+02 2.344613e-39
5.350000e+02 3.014552e-39
5.360000e+02 3.872214e-39
5.370000e+02 4.968990e-39
5.380000e+02 6.370852e-39
5.390000e+02 8.160254e-39
5.400000e+02 1.044249e-38
5.410000e+02 1.335062e-38
5.420000e+02 1.705288e-38
5.430000e+02 2.176181e-38
5.440000e+02 2.774569e-38
5.450000e+02 3.534287e-38
5.460000e+02 4.497961e-38
5.470000e+02 5.719256e-38
5.480000e+02 7.265665e-38
5.490000e+02 9.222006e-38
5.500000e+02 1.169477e-37
5.510000e+02 1.481755e-37
5.520000e+02 1.875779e-37
5.530000e+02 2.372517e-37
5.540000e+02 2.998207e-37
5.550000e+02 3.785651e-37
5.560000e+02 4.775822e-37
5.570000e+02 6.019861e-37
5.580000e+02 7.581540e-37
5.590000e+02 9.540324e-37
5.600000e+02 1.199514e-36
5.610000e+02 1.506906e-36
5.620000e+02 1.891506e-36
5.630000e+02 2.372310e-36
5.640000e+02 2.972896e-36
5.650000e+02 3.722495e-36
5.660000e+02 4.657327e-36
5.670000e+02 5.822230e-36
5.680000e+02 7.272670e-36
5.690000e+02 9.077205e-36
5.700000e+02 1.132051e-35
5.710000e+02 1.410708e-35
5.720000e+02 1.756578e-35
5.730000e+02 2.185541e-35
5.740000e+02 2.717147e-35
5.750000e+02 3.375451e-35
5.760000e+02 4.190027e-35
5.770000e+02 5.197205e-35
5.780000e+02 6.441584e-35
5.790000e+02 7.977872e-35
5.800000e+02 9.873124e-35
5.810000e+02 1.220948e-34
5.820000e+02 1.508746e-34
5.830000e+02 1.863003e-34
5.840000e+02 2.298744e-34
5.850000e+02 2.834324e-34
5.860000e+02 3.492140e-34
5.870000e+02 4.299507e-34
5.880000e+02 5.289712e-34
5.890000e+02 6.503297e-34
5.900000e+02 7.989594e-34
5.910000e+02 9.808604e-34
5.920000e+02 1.203324e-33
5.930000e+02 1.475204e-33
5.940000e+02 1.807249e-33
5.950000e+02 2.212489e-33
5.960000e+02 2.706720e-33
5.970000e+02 3.309071e-33
5.980000e+02 4.042694e-33
5.990000e+02 4.935592e-33
6.000000e+02 6.021611e-33
6.010000e+02 7.341634e-33
6.020000e+02 8.945009e-33
6.030000e+02 1.089126e-32
6.040000e+02 1.325216e-32
6.050000e+02 1.611416e-32
6.060000e+02 1.958133e-32
6.070000e+02 2.377892e-32
6.080000e+02 2.885750e-32
6.090000e+02 3.499800e-32
6.100000e+02 4.241771e-32
6.110000e+02 5.137740e-32
6.120000e+02 6.218981e-32
6.130000e+02 7.522980e-32
6.140000e+02 9.094641e-32
6.150000e+02 1.098772e-31
6.160000e+02 1.326652e-31
6.170000e+02 1.600794e-31
6.180000e+02 1.930387e-31
6.190000e+02 2.326403e-31
6.200000e+02 2.801936e-31
6.210000e+02 3.372608e-31
6.220000e+02 4.057036e-31
6.230000e+02 4.877405e-31
6.240000e+02 5.860123e-31
6.250000e+02 7.036619e-31
6.260000e+02 8.444267e-31
6.270000e+02 1.012749e-30
6.280000e+02 1.213904e-30
6.290000e+02 1.454158e-30
6.300000e+02 1.740942e-30
6.310000e+02 2.083070e-30
6.320000e+02 2.490986e-30
6.330000e+02 2.977062e-30
6.340000e+02 3.555943e-30
6.350000e+02 4.244957e-30
6.360000e+02 5.064594e-30
6.370000e+02 6.039066e-30
6.380000e+02 7.196976e-30
6.390000e+02 8.572087e-30
6.400000e+02 1.020424e-29
6.410000e+02 1.214040e-29
6.420000e+02 1.443594e-29
6.430000e+02 1.715607e-29
6.440000e+02 2.037758e-29
6.450000e+02 2.419082e-29
6.460000e+02 2.870203e-29
6.470000e+02 3.403610e-29
6.480000e+02 4.033977e-29
6.490000e+02 4.778531e-29
6.500000e+02 5.657492e-29
6.510000e+02 6.694576e-29
6.520000e+02 7.917586e-29
6.530000e+02 9.359105e-29
6.540000e+02 1.105729e-28
6.550000e+02 1.305680e-28
6.560000e+02 1.540989e-28
6.570000e+02 1.817768e-28
6.580000e+02 2.143158e-28
6.590000e+02 2.525503e-28
6.600000e+02 2.974545e-28
6.610000e+02 3.501654e-28
6.620000e+02 4.120091e-28
6.630000e+02 4.845320e-28
6.640000e+02 5.695358e-28
6.650000e+02 6.691192e-28
6.660000e+02 7.857258e-28
6.670000e+02 9.221984e-28
6.680000e+02 1.081844e-27
6.690000e+02 1.268507e-27
6.700000e+02 1.486653e-27
6.710000e+02 1.741472e-27
6.720000e+02 2.038984e-27
6.730000e+02 2.386178e-27
6.740000e+02 2.791158e-27
6.750000e+02 3.263318e-27
6.760000e+02 3.813546e-27
6.770000e+02 4.454448e-27
6.780000e+02 5.200619e-27
6.790000e+02 6.068946e-27
6.800000e+02 7.078963e-27
6.810000e+02 8.253249e-27
6.820000e+02 9.617898e-27
6.830000e+02 1.120304e-26
6.840000e+02 1.304348e-26
6.850000e+02 1.517937e-26
6.860000e+02 1.765700e-26
6.870000e+02 2.052980e-26
6.880000e+02 2.385928e-26
6.890000e+02 2.771635e-26
6.900000e+02 3.218263e-26
6.910000e+02 3.735207e-26
6.920000e+02 4.333275e-26
6.930000e+02 5.024897e-26
6.940000e+02 5.824361e-26
6.950000e+02 6.748081e-26
6.960000e+02 7.814913e-26
6.970000e+02 9.046501e-26
6.980000e+02 1.046768e-25
6.990000e+02 1.210695e-25
7.000000e+02 1.399696e-25
7.010000e+02 1.617517e-25
7.020000e+02 1.868445e-25
7.030000e+02 2.157394e-25
7.040000e+02 2.489985e-25
7.050000e+02 2.872651e-25
7.060000e+02 3.312752e-25
7.070000e+02 3.818699e-25
7.080000e+02 4.400106e-25
7.090000e+02 5.067958e-25
7.100000e+02 5.834796e-25
7.110000e+02 6.714936e-25
7.120000e+02 7.724715e-25
7.130000e+02 8.882763e-25
7.140000e+02 1.021032e-24
7.150000e+02 1.173161e-24
7.160000e+02 1.347419e-24
7.170000e+02 1.546949e-24
7.180000e+02 1.775325e-24
7.190000e+02 2.036616e-24
7.200000e+02 2.335451e-24
7.210000e+02 2.677091e-24
7.220000e+02 3.067519e-24
7.230000e+02 3.513529e-24
7.240000e+02 4.022840e-24
7.250000e+02 4.604217e-24
7.260000e+02 5.267604e-24
7.270000e+02 6.024286e-24
7.280000e+02 6.887058e-24
7.290000e+02 7.870428e-24
7.300000e+02 8.990836e-24
7.310000e+02 1.026691e-23
7.320000e+02 1.171973e-23
7.330000e+02 1.337318e-23
7.340000e+02 1.525427e-23
7.350000e+02 1.739358e-23
7.360000e+02 1.982564e-23
7.370000e+02 2.258954e-23
7.380000e+02 2.572942e-23
7.390000e+02 2.929515e-23
7.400000e+02 3.334303e-23
7.410000e+02 3.793662e-23
7.420000e+02 4.314766e-23
7.430000e+02 4.905706e-23
7.440000e+02 5.575604e-23
7.450000e+02 6.334746e-23
7.460000e+02 7.194721e-23
7.470000e+02 8.168583e-23
7.480000e+02 9.271036e-23
7.490000e+02 1.051863e-22
7.500000e+02 1.192998e-22
7.510000e+02 1.352606e-22
7.520000e+02 1.533040e-22
7.530000e+02 1.736952e-22
7.540000e+02 1.967316e-22
7.550000e+02 2.227478e-22
7.560000e+02 2.521194e-22
7.570000e+02 2.852682e-22
7.580000e+02 3.226673e-22
7.590000e+02 3.648478e-22
7.600000e+02 4.124055e-22
7.610000e+02 4.660081e-22
7.620000e+02 5.264044e-22
7.630000e+02 5.944333e-22
7.640000e+02 6.710344e-22
7.650000e+02 7.572602e-22
7.660000e+02 8.542887e-22
7.670000e+02 9.634384e-22
7.680000e+02 1.086185e-21
7.690000e+02 1.224177e-21
7.700000e+02 1.379260e-21
7.710000e+02 1.553495e-21
7.720000e+02 1.749188e-21
7.730000e+02 1.968910e-21
7.740000e+02 2.215537e-21
7.750000e+02 2.492276e-21
7.760000e+02 2.802708e-21
7.770000e+02 3.150829e-21
7.780000e+02 3.541095e-21
7.790000e+02 3.978473e-21
7.800000e+02 4.468503e-21
7.810000e+02 5.017356e-21
7.820000e+02 5.631908e-21
7.830000e+02 6.319817e-21
7.840000e+02 7.089608e-21
7.850000e+02 7.950770e-21
7.860000e+02 8.913864e-21
7.870000e+02 9.990636e-21
7.880000e+02 1.119415e-20
7.890000e+02 1.253892e-20
7.900000e+02 1.404110e-20
7.910000e+02 1.571862e-20
7.920000e+02 1.759140e-20
7.930000e+02 1.968157e-20
7.940000e+02 2.201368e-20
7.950000e+02 2.461500e-20
7.960000e+02 2.751577e-20
7.970000e+02 3.074955e-20
7.980000e+02 3.435354e-20
7.990000e+02 3.836898e-20
8.000000e+02 4.284160e-20
8.010000e+02 4.782204e-20
8.020000e+02 5.336642e-20
8.030000e+02 5.953687e-20
8.040000e+02 6.640218e-20
8.050000e+02 7.403849e-20
8.060000e+02 8.253007e-20
8.070000e+02 9.197008e-20
8.080000e+02 1.024616e-19
8.090000e+02 1.141186e-19
8.100000e+02 1.270671e-19
8.110000e+02 1.414461e-19
8.120000e+02 1.574096e-19
8.130000e+02 1.751272e-19
8.140000e+02 1.947866e-19
8.150000e+02 2.165948e-19
8.160000e+02 2.407801e-19
8.170000e+02 2.675946e-19
8.180000e+02 2.973163e-19
8.190000e+02 3.302518e-19
8.200000e+02 3.667390e-19
8.210000e+02 4.071505e-19
8.220000e+02 4.518967e-19
8.230000e+02 5.014297e-19
8.240000e+02 5.562476e-19
8.250000e+02 6.168986e-19
8.260000e+02 6.839863e-19
8.270000e+02 7.581750e-19
8.280000e+02 8.401954e-19
8.290000e+02 9.308514e-19
8.300000e+02 1.031027e-18
8.310000e+02 1.141694e-18
8.320000e+02 1.263921e-18
8.330000e+02 1.398881e-18
8.340000e+02 1.547864e-18
8.350000e+02 1.712287e-18
8.360000e+02 1.893705e-18
8.370000e+02 2.093825e-18
8.380000e+02 2.314522e-18
8.390000e+02 2.557852e-18
8.400000e+02 2.826071e-18
8.410000e+02 3.121653e-18
8.420000e+02 3.447311e-18
8.430000e+02 3.806020e-18
8.440000e+02 4.201039e-18
8.450000e+02 4.635940e-18
8.460000e+02 5.114636e-18
8.470000e+02 5.641413e-18
8.480000e+02 6.220962e-18
8.490000e+02 6.858422e-18
8.500000e+02 7.559414e-18
8.510000e+02 8.330091e-18
8.520000e+02 9.177183e-18
8.530000e+02 1.010805e-17
8.540000e+02 1.113074e-17
8.550000e+02 1.225406e-17
8.560000e+02 1.348762e-17
8.570000e+02 1.484194e-17
8.580000e+02 1.632849e-17
8.590000e+02 1.795982e-17
8.600000e+02 1.974962e-17
8.610000e+02 2.171285e-17
8.620000e+02 2.386582e-17
8.630000e+02 2.622636e-17
8.640000e+02 2.881388e-17
8.650000e+02 3.164960e-17
8.660000e+02 3.475663e-17
8.670000e+02 3.816017e-17
8.680000e+02 4.188770e-17
8.690000e+02 4.596919e-17
8.700000e+02 5.043725e-17
8.710000e+02 5.532744e-17
8.720000e+02 6.067849e-17
8.730000e+02 6.653256e-17
8.740000e+02 7.293555e-17
8.750000e+02 7.993746e-17
8.760000e+02 8.759264e-17
8.770000e+02 9.596028e-17
8.780000e+02 1.051047e-16
8.790000e+02 1.150960e-16
8.800000e+02 1.260103e-16
8.810000e+02 1.379302e-16
8.820000e+02 1.509459e-16
8.830000e+02 1.651549e-16
8.840000e+02 1.806635e-16
8.850000e+02 1.975871e-16
8.860000e+02 2.160510e-16
8.870000e+02 2.361911e-16
8.880000e+02 2.581553e-16
8.890000e+02 2.821037e-16
8.900000e+02 3.082104e-16
8.910000e+02 3.366640e-16
8.920000e+02 3.676694e-16
8.930000e+02 4.014485e-16
8.940000e+02 4.382420e-16
8.950000e+02 4.783110e-16
8.960000e+02 5.219384e-16
8.970000e+02 5.694308e-16
8.980000e+02 6.211202e-16
8.990000e+02 6.773665e-16
9.000000e+02 7.385594e-16
9.010000e+02 8.051209e-16
9.020000e+02 8.775079e-16
9.030000e+02 9.562148e-16
9.040000e+02 1.041777e-15
9.050000e+02 1.134773e-15
9.060000e+02 1.235830e-15
9.070000e+02 1.345625e-15
9.080000e+02 1.464891e-15
9.090000e+02 1.594421e-15
9.100000e+02 1.735070e-15
9.110000e+02 1.887764e-15
9.120000e+02 2.053504e-15
9.130000e+02 2.233371e-15
9.140000e+02 2.475396e-15
9.150000e+02 4.976142e-13
9.160000e+02 3.860777e-12
9.170000e+02 1.186904e-12
9.180000e+02 6.652745e-13
9.190000e+02 1.219025e-11
9.200000e+02 3.918444e-11
9.210000e+02 4.342492e-15
9.220000e+02 5.840389e-11
9.230000e+02 3.187743e-13
9.240000e+02 3.337934e-12
9.250000e+02 4.057421e-11
9.260000e+02 1.088635e-12
9.270000e+02 3.407562e-12
9.280000e+02 3.217020e-10
9.290000e+02 2.990201e-10
9.300000e+02 5.396472e-11
9.310000e+02 9.079917e-13
9.320000e+02 2.360372e-10
9.330000e+02 5.397016e-10
9.340000e+02 2.630755e-10
9.350000e+02 8.626433e-13
9.360000e+02 2.093900e-11
9.370000e+02 2.558613e-13
9.380000e+02 3.169494e-13
9.390000e+02 4.574352e-11
9.400000e+02 7.057449e-10
9.410000e+02 9.742596e-12
9.420000e+02 1.314557e-09
9.430000e+02 1.421688e-10
9.440000e+02 1.529694e-09
9.450000e+02 1.515052e-09
9.460000e+02 1.058198e-09
9.470000e+02 1.349310e-12
9.480000e+02 1.755507e-10
9.490000e+02 2.896513e-11
9.500000e+02 2.354008e-13
9.510000e+02 2.018350e-10
9.520000e+02 9.328471e-10
9.530000e+02 3.157563e-11
9.540000e+02 1.834829e-12
9.550000e+02 3.079434e-10
9.560000e+02 4.712044e-10
9.570000e+02 7.414069e-11
9.580000e+02 5.767609e-13
9.590000e+02 3.858369e-09
9.600000e+02 1.814993e-12
9.610000e+02 3.781440e-09
9.620000e+02 2.342268e-09
9.630000e+02 1.210960e-10
9.640000e+02 2.239431e-11
9.650000e+02 5.739853e-12
9.660000e+02 5.390142e-10
9.670000e+02 5.371659e-11
9.680000e+02 3.759459e-11
9.690000e+02 1.419139e-09
9.700000e+02 1.428126e-09
9.710000e+02 6.213290e-11
9.720000e+02 6.297702e-12
9.730000e+02 7.392162e-12
9.740000e+02 3.788955e-10
9.750000e+02 7.930450e-10
9.760000e+02 5.000487e-09
9.770000e+02 6.932366e-09
9.780000e+02 6.518603e-09
9.790000e+02 1.289508e-08
9.800000e+02 1.490409e-08
9.810000e+02 6.744838e-09
9.820000e+02 1.304496e-09
9.830000e+02 1.939061e-08
9.840000e+02 4.360567e-10
9.850000e+02 3.049044e-09
9.860000e+02 2.418091e-09
9.870000e+02 2.466210e-08
9.880000e+02 2.328271e-11
9.890000e+02 2.243960e-08
9.900000e+02 1.960712e-08
9.910000e+02 1.394724e-09
9.920000e+02 4.123958e-12
9.930000e+02 2.384592e-08
9.940000e+02 1.803002e-12
9.950000e+02 1.084712e-09
9.960000e+02 1.121876e-10
9.970000e+02 2.967643e-11
9.980000e+02 4.168704e-08
9.990000e+02 1.921793e-09
1.000000e+03 5.585825e-08
1.001000e+03 4.991756e-08
1.002000e+03 6.395083e-08
1.003000e+03 1.984191e-09
1.004000e+03 4.337508e-11
1.005000e+03 1.213937e-08
1.006000e+03 7.528487e-08
1.007000e+03 8.180651e-08
1.008000e+03 7.891486e-08
1.009000e+03 1.595729e-09
1.010000e+03 7.967047e-08
1.011000e+03 8.170911e-08
1.012000e+03 9.310112e-08
1.013000e+03 9.365193e-08
1.014000e+03 1.993783e-11
1.015000e+03 9.772094e-11
1.016000e+03 9.804964e-09
1.017000e+03 1.436717e-11
1.018000e+03 2.982645e-09
1.019000e+03 1.025597e-10
1.020000e+03 5.928076e-08
1.021000e+03 1.440025e-09
1.022000e+03 5.857656e-09
1.023000e+03 3.644978e-10
1.024000e+03 2.239201e-09
1.025000e+03 1.462946e-11
1.026000e+03 1.331855e-11
1.027000e+03 1.094575e-09
1.028000e+03 1.106271e-10
1.029000e+03 3.455369e-11
1.030000e+03 3.893317e-08
1.031000e+03 1.274366e-07
1.032000e+03 2.144723e-07
1.033000e+03 1.758735e-09
1.034000e+03 1.770112e-07
1.035000e+03 5.229595e-11
1.036000e+03 1.173817e-10
1.037000e+03 1.115234e-06
1.038000e+03 1.496332e-06
1.039000e+03 1.419550e-06
1.040000e+03 1.275629e-06
1.041000e+03 1.628963e-06
1.042000e+03 2.165175e-06
1.043000e+03 1.145949e-06
1.044000e+03 2.719299e-06
1.045000e+03 1.002884e-10
1.046000e+03 1.632007e-06
1.047000e+03 1.048785e-06
1.048000e+03 8.141797e-09
1.049000e+03 1.049606e-06
1.050000e+03 1.152632e-07
1.051000e+03 3.968444e-08
1.052000e+03 4.121620e-06
1.053000e+03 4.716644e-06
1.054000e+03 2.178240e-10
1.055000e+03 3.300314e-06
1.056000e+03 5.224088e-06
1.057000e+03 2.240769e-06
1.058000e+03 6.548432e-08
1.059000e+03 2.401157e-08
1.060000e+03 8.240931e-09
1.061000e+03 5.667180e-06
1.062000e+03 3.100465e-08
1.063000e+03 3.215123e-09
1.064000e+03 1.627996e-10
1.065000e+03 3.728928e-10
1.066000e+03 3.255955e-07
1.067000e+03 6.158866e-08
1.068000e+03 1.025723e-05
1.069000e+03 1.025104e-08
1.070000e+03 1.198397e-06
1.071000e+03 1.025874e-05
1.072000e+03 1.222431e-05
1.073000e+03 1.409717e-09
1.074000e+03 5.908842e-06
1.075000e+03 4.270944e-06
1.076000e+03 3.600083e-06
1.077000e+03 8.850293e-09
1.078000e+03 1.062144e-07
1.079000e+03 1.009710e-06
1.080000e+03 3.636568e-06
1.081000e+03 1.717891e-05
1.082000e+03 1.303274e-05
1.083000e+03 9.351957e-06
1.084000e+03 1.809606e-05
1.085000e+03 1.479719e-06
1.086000e+03 2.425452e-05
1.087000e+03 1.699500e-07
1.088000e+03 2.653340e-05
1.089000e+03 2.728084e-05
1.090000e+03 1.384871e-06
1.091000e+03 3.042838e-06
1.092000e+03 1.986687e-05
1.093000e+03 2.937830e-05
1.094000e+03 1.232011e-05
1.095000e+03 3.641226e-05
1.096000e+03 5.875336e-07
1.097000e+03 3.721176e-05
1.098000e+03 3.395902e-05
1.099000e+03 3.992976e-06
1.100000e+03 2.708509e-08
1.101000e+03 8.274333e-08
1.102000e+03 4.693372e-06
1.103000e+03 5.129048e-05
1.104000e+03 5.428388e-05
1.105000e+03 5.645643e-05
1.106000e+03 1.937986e-05
1.107000e+03 8.466304e-08
1.108000e+03 6.019586e-05
1.109000e+03 2.085893e-06
1.110000e+03 6.350450e-05
1.111000e+03 6.401088e-05
1.112000e+03 5.681049e-05
1.113000e+03 5.413854e-05
1.114000e+03 2.544492e-05
1.115000e+03 1.516972e-06
1.116000e+03 3.037367e-07
1.117000e+03 9.261482e-05
1.118000e+03 3.871748e-06
1.119000e+03 6.306724e-05
1.120000e+03 8.158167e-07
1.121000e+03 1.043102e-04
1.122000e+03 9.955522e-05
1.123000e+03 1.630783e-04
1.124000e+03 2.036884e-04
1.125000e+03 1.677968e-04
1.126000e+03 1.605376e-04
1.127000e+03 1.497317e-04
1.128000e+03 1.264336e-04
1.129000e+03 1.130146e-04
1.130000e+03 1.299125e-04
1.131000e+03 1.028683e-04
1.132000e+03 1.222412e-06
1.133000e+03 3.209613e-05
1.134000e+03 1.050783e-04
1.135000e+03 5.229950e-05
1.136000e+03 4.023208e-05
1.137000e+03 8.329949e-05
1.138000e+03 9.176106e-05
1.139000e+03 1.049803e-04
1.140000e+03 1.019167e-04
1.141000e+03 9.068958e-05
1.142000e+03 1.026574e-04
1.143000e+03 7.857133e-05
1.144000e+03 9.673984e-05
1.145000e+03 7.728595e-07
1.146000e+03 1.070540e-04
1.147000e+03 1.080705e-04
1.148000e+03 1.288175e-05
1.149000e+03 1.055706e-04
1.150000e+03 1.044647e-04
1.151000e+03 1.049786e-04
1.152000e+03 1.025927e-04
1.153000e+03 1.010390e-04
1.154000e+03 9.713079e-05
1.155000e+03 9.657630e-05
1.156000e+03 6.789555e-05
1.157000e+03 9.284558e-05
1.158000e+03 8.671293e-05
1.159000e+03 9.453487e-05
1.160000e+03 8.974544e-05
1.161000e+03 8.698616e-05
1.162000e+03 3.236119e-05
1.163000e+03 6.262738e-05
1.164000e+03 2.319357e-07
1.165000e+03 4.848722e-05
1.166000e+03 2.464300e-05
1.167000e+03 1.583433e-05
1.168000e+03 1.004920e-04
1.169000e+03 1.021806e-04
1.170000e+03 1.699769e-05
1.171000e+03 4.435905e-05
1.172000e+03 3.557841e-05
1.173000e+03 2.994252e-05
1.174000e+03 5.667964e-06
1.175000e+03 2.599991e-07
1.176000e+03 7.794370e-08
1.177000e+03 1.355766e-04
1.178000e+03 1.276363e-04
1.179000e+03 1.213036e-04
1.180000e+03 1.112889e-04
1.181000e+03 1.092422e-04
1.182000e+03 1.058873e-04
1.183000e+03 1.001525e-04
1.184000e+03 9.685312e-05
1.185000e+03 9.340902e-05
1.186000e+03 2.684479e-05
1.187000e+03 8.822042e-05
1.188000e+03 8.469388e-05
1.189000e+03 8.441097e-05
1.190000e+03 8.211275e-05
1.191000e+03 7.769580e-05
1.192000e+03 6.996452e-05
1.193000e+03 6.961641e-05
1.194000e+03 6.733419e-05
1.195000e+03 6.442954e-05
1.196000e+03 1.401688e-03
1.197000e+03 1.308874e-03
1.198000e+03 2.162540e-04
1.199000e+03 1.090137e-03
1.200000e+03 5.093417e-04
1.201000e+03 8.428930e-04
1.202000e+03 6.957615e-04
1.203000e+03 6.041751e-04
1.204000e+03 3.526941e-04
1.205000e+03 3.859943e-04
1.206000e+03 2.927722e-04
1.207000e+03 3.092029e-05
1.208000e+03 1.308483e-04
1.209000e+03 9.494213e-05
1.210000e+03 5.135189e-07
1.211000e+03 3.256381e-05
1.212000e+03 1.606912e-05
1.213000e+03 6.885751e-06
1.214000e+03 2.056419e-06
1.215000e+03 3.933167e-07
1.216000e+03 3.583623e-07
1.217000e+03 1.283197e-06
1.218000e+03 5.923602e-06
1.219000e+03 1.623475e-05
1.220000e+03 3.650991e-05
1.221000e+03 7.222399e-05
1.222000e+03 1.343858e-04
1.223000e+03 2.187511e-04
1.224000e+03 3.213239e-04
1.225000e+03 2.182696e-04
1.226000e+03 7.164364e-04
1.227000e+03 9.909134e-04
1.228000e+03 1.173283e-03
1.229000e+03 1.686891e-03
1.230000e+03 4.854575e-04
1.231000e+03 1.293291e-03
1.232000e+03 2.997095e-03
1.233000e+03 3.539804e-03
1.234000e+03 3.321300e-03
1.235000e+03 4.647474e-03
1.236000e+03 4.342834e-03
1.237000e+03 5.810272e-03
1.238000e+03 6.419200e-03
1.239000e+03 6.739055e-03
1.240000e+03 6.536478e-04
1.241000e+03 7.306056e-03
1.242000e+03 8.845094e-03
1.243000e+03 9.503040e-03
1.244000e+03 1.019780e-02
1.245000e+03 1.037085e-02
1.246000e+03 1.117351e-02
1.247000e+03 1.171894e-02
1.248000e+03 5.163564e-03
1.249000e+03 1.285467e-02
1.250000e+03 1.227887e-02
1.251000e+03 1.466672e-02
1.252000e+03 1.407266e-02
1.253000e+03 1.557391e-02
1.254000e+03 1.537702e-02
1.255000e+03 2.212399e-03
1.256000e+03 1.440900e-02
1.257000e+03 1.011180e-02
1.258000e+03 1.483712e-02
1.259000e+03 1.736652e-02
1.260000e+03 1.848887e-02
1.261000e+03 3.908519e-04
1.262000e+03 1.924587e-02
1.263000e+03 1.441536e-02
1.264000e+03 1.842690e-02
1.265000e+03 1.571334e-02
1.266000e+03 2.358083e-02
1.267000e+03 2.530814e-02
