# wavelength_A flux
5.000000e+02 1.417560e-08
5.010000e+02 1.610157e-08
5.020000e+02 1.827958e-08
5.030000e+02 2.074134e-08
5.040000e+02 2.352239e-08
5.050000e+02 2.708506e-08
5.060000e+02 3.068099e-08
5.070000e+02 3.473663e-08
5.080000e+02 3.930845e-08
5.090000e+02 4.445973e-08
5.100000e+02 5.026074e-08
5.110000e+02 5.679042e-08
5.120000e+02 6.413666e-08
5.130000e+02 7.239758e-08
5.140000e+02 8.168259e-08
5.150000e+02 9.211305e-08
5.160000e+02 1.038265e-07
5.170000e+02 1.169694e-07
5.180000e+02 1.317204e-07
5.190000e+02 1.482570e-07
5.200000e+02 1.667910e-07
5.210000e+02 1.875537e-07
5.220000e+02 2.107875e-07
5.230000e+02 2.368237e-07
5.240000e+02 2.659338e-07
5.250000e+02 2.984882e-07
5.260000e+02 3.348727e-07
5.270000e+02 3.755220e-07
5.280000e+02 4.209159e-07
5.290000e+02 4.715136e-07
5.300000e+02 5.281200e-07
5.310000e+02 5.911697e-07
5.320000e+02 6.614559e-07
5.330000e+02 7.397739e-07
5.340000e+02 8.270046e-07
5.350000e+02 9.241203e-07
5.360000e+02 1.032192e-06
5.370000e+02 1.143535e-06
5.380000e+02 1.286078e-06
5.390000e+02 1.434675e-06
5.400000e+02 1.599745e-06
5.410000e+02 1.782957e-06
5.420000e+02 1.986539e-06
5.430000e+02 2.212354e-06
5.440000e+02 2.462807e-06
5.450000e+02 2.740491e-06
5.460000e+02 3.047894e-06
5.470000e+02 3.389183e-06
5.480000e+02 3.766736e-06
5.490000e+02 4.184682e-06
5.500000e+02 4.647146e-06
5.510000e+02 5.158677e-06
5.520000e+02 5.724260e-06
5.530000e+02 6.349364e-06
5.540000e+02 7.039990e-06
5.550000e+02 7.802712e-06
5.560000e+02 8.644740e-06
5.570000e+02 9.573965e-06
5.580000e+02 1.059903e-05
5.590000e+02 1.172941e-05
5.600000e+02 1.297545e-05
5.610000e+02 1.434848e-05
5.620000e+02 1.586088e-05
5.630000e+02 1.752620e-05
5.640000e+02 1.935922e-05
5.650000e+02 2.137611e-05
5.660000e+02 2.359453e-05
5.670000e+02 2.603371e-05
5.680000e+02 2.871469e-05
5.690000e+02 3.166039e-05
5.700000e+02 3.489579e-05
5.710000e+02 3.844820e-05
5.720000e+02 4.234725e-05
5.730000e+02 4.662532e-05
5.740000e+02 5.131762e-05
5.750000e+02 5.646303e-05
5.760000e+02 6.209912e-05
5.770000e+02 6.828123e-05
5.780000e+02 7.504928e-05
5.790000e+02 8.246007e-05
5.800000e+02 9.057195e-05
5.810000e+02 9.944826e-05
5.820000e+02 1.091578e-04
5.830000e+02 1.197746e-04
5.840000e+02 1.313596e-04
5.850000e+02 1.440607e-04
5.860000e+02 1.579229e-04
5.870000e+02 1.730567e-04
5.880000e+02 1.895786e-04
5.890000e+02 2.076095e-04
5.900000e+02 2.272845e-04
5.910000e+02 2.487432e-04
5.920000e+02 2.721412e-04
5.930000e+02 2.976459e-04
5.940000e+02 3.254382e-04
5.950000e+02 3.557132e-04
5.960000e+02 3.886854e-04
5.970000e+02 4.245809e-04
5.980000e+02 4.636484e-04
5.990000e+02 5.061551e-04
6.000000e+02 5.523899e-04
6.010000e+02 6.026625e-04
6.020000e+02 6.573164e-04
6.030000e+02 7.167083e-04
6.040000e+02 7.812322e-04
6.050000e+02 8.513121e-04
6.060000e+02 9.274016e-04
6.070000e+02 1.009997e-03
6.080000e+02 1.099624e-03
6.090000e+02 1.196855e-03
6.100000e+02 1.302304e-03
6.110000e+02 1.416635e-03
6.120000e+02 1.540560e-03
6.130000e+02 1.674845e-03
6.140000e+02 1.820317e-03
6.150000e+02 1.977864e-03
6.160000e+02 2.148440e-03
6.170000e+02 2.333072e-03
6.180000e+02 2.532863e-03
6.190000e+02 2.748999e-03
6.200000e+02 2.982753e-03
6.210000e+02 3.235494e-03
6.220000e+02 3.508688e-03
6.230000e+02 3.803914e-03
6.240000e+02 4.122862e-03
6.250000e+02 4.467347e-03
6.260000e+02 4.839315e-03
6.270000e+02 5.240853e-03
6.280000e+02 5.674200e-03
6.290000e+02 6.141752e-03
6.300000e+02 6.646079e-03
6.310000e+02 7.188808e-03
6.320000e+02 7.776264e-03
6.330000e+02 8.408200e-03
6.340000e+02 9.089194e-03
6.350000e+02 9.822751e-03
6.360000e+02 1.061202e-02
6.370000e+02 1.146359e-02
6.380000e+02 1.237936e-02
6.390000e+02 1.336491e-02
6.400000e+02 1.442530e-02
6.410000e+02 1.556593e-02
6.420000e+02 1.679258e-02
6.430000e+02 1.811141e-02
6.440000e+02 1.952900e-02
6.450000e+02 2.105238e-02
6.460000e+02 2.268907e-02
6.470000e+02 2.444703e-02
6.480000e+02 2.633487e-02
6.490000e+02 2.836165e-02
6.500000e+02 3.053709e-02
6.510000e+02 3.287157e-02
6.520000e+02 3.537611e-02
6.530000e+02 3.806248e-02
6.540000e+02 4.094323e-02
6.550000e+02 4.403170e-02
6.560000e+02 4.734211e-02
6.570000e+02 5.088924e-02
6.580000e+02 5.469032e-02
6.590000e+02 5.876138e-02
6.600000e+02 6.312104e-02
6.610000e+02 6.778876e-02
6.620000e+02 7.278514e-02
6.630000e+02 7.813215e-02
6.640000e+02 8.385316e-02
6.650000e+02 8.997291e-02
6.660000e+02 9.651792e-02
6.670000e+02 1.035161e-01
6.680000e+02 1.109972e-01
6.690000e+02 1.189928e-01
6.700000e+02 1.275365e-01
6.710000e+02 1.366641e-01
6.720000e+02 1.464131e-01
6.730000e+02 1.568238e-01
6.740000e+02 1.679387e-01
6.750000e+02 1.798030e-01
6.760000e+02 1.924646e-01
6.770000e+02 2.059742e-01
6.780000e+02 2.203856e-01
6.790000e+02 2.357560e-01
6.800000e+02 2.521456e-01
6.810000e+02 2.696187e-01
6.820000e+02 2.882429e-01
6.830000e+02 3.080902e-01
6.840000e+02 3.292365e-01
6.850000e+02 3.517624e-01
6.860000e+02 3.757533e-01
6.870000e+02 4.012988e-01
6.880000e+02 4.284952e-01
6.890000e+02 4.574428e-01
6.900000e+02 4.882483e-01
6.910000e+02 5.210250e-01
6.920000e+02 5.558919e-01
6.930000e+02 5.929753e-01
6.940000e+02 6.324084e-01
6.950000e+02 6.743320e-01
6.960000e+02 7.188951e-01
6.970000e+02 7.662488e-01
6.980000e+02 8.165770e-01
6.990000e+02 8.700371e-01
7.000000e+02 9.268199e-01
7.010000e+02 9.871209e-01
7.020000e+02 1.051146e+00
7.030000e+02 1.119113e+00
7.040000e+02 1.191251e+00
7.050000e+02 1.267801e+00
7.060000e+02 1.349020e+00
7.070000e+02 1.435176e+00
7.080000e+02 1.526552e+00
7.090000e+02 1.623447e+00
7.100000e+02 1.726178e+00
7.110000e+02 1.835074e+00
7.120000e+02 1.950486e+00
7.130000e+02 2.072782e+00
7.140000e+02 2.202350e+00
7.150000e+02 2.339599e+00
7.160000e+02 2.484957e+00
7.170000e+02 2.638874e+00
7.180000e+02 2.801820e+00
7.190000e+02 2.974335e+00
7.200000e+02 3.156900e+00
7.210000e+02 3.350086e+00
7.220000e+02 3.554476e+00
7.230000e+02 3.770683e+00
7.240000e+02 3.999351e+00
7.250000e+02 4.241159e+00
7.260000e+02 4.496818e+00
7.270000e+02 4.767076e+00
7.280000e+02 5.052721e+00
7.290000e+02 5.354577e+00
7.300000e+02 5.673513e+00
7.310000e+02 6.010439e+00
7.320000e+02 6.366313e+00
7.330000e+02 6.742137e+00
7.340000e+02 7.138968e+00
7.350000e+02 7.557911e+00
7.360000e+02 8.000125e+00
7.370000e+02 8.466836e+00
7.380000e+02 8.959313e+00
7.390000e+02 9.478902e+00
7.400000e+02 1.002700e+01
7.410000e+02 1.060510e+01
7.420000e+02 1.121472e+01
7.430000e+02 1.185751e+01
7.440000e+02 1.253515e+01
7.450000e+02 1.324942e+01
7.460000e+02 1.400219e+01
7.470000e+02 1.479540e+01
7.480000e+02 1.563112e+01
7.490000e+02 1.651147e+01
7.500000e+02 1.743870e+01
7.510000e+02 1.841516e+01
7.520000e+02 1.944332e+01
7.530000e+02 2.052574e+01
7.540000e+02 2.166512e+01
7.550000e+02 2.286428e+01
7.560000e+02 2.412617e+01
7.570000e+02 2.545381e+01
7.580000e+02 2.685061e+01
7.590000e+02 2.831973e+01
7.600000e+02 2.986487e+01
7.610000e+02 3.148962e+01
7.620000e+02 3.319786e+01
7.630000e+02 3.499363e+01
7.640000e+02 3.688114e+01
7.650000e+02 3.886479e+01
7.660000e+02 4.094920e+01
7.670000e+02 4.313916e+01
7.680000e+02 4.543962e+01
7.690000e+02 4.785605e+01
7.700000e+02 5.039371e+01
7.710000e+02 5.305838e+01
7.720000e+02 5.585604e+01
7.730000e+02 5.879291e+01
7.740000e+02 6.187550e+01
7.750000e+02 6.511059e+01
7.760000e+02 6.850452e+01
7.770000e+02 7.206693e+01
7.780000e+02 7.580328e+01
7.790000e+02 7.972234e+01
7.800000e+02 8.383251e+01
7.810000e+02 8.814254e+01
7.820000e+02 9.266153e+01
7.830000e+02 9.739897e+01
7.840000e+02 1.023648e+02
7.850000e+02 1.075693e+02
7.860000e+02 1.130233e+02
7.870000e+02 1.187380e+02
7.880000e+02 1.247250e+02
7.890000e+02 1.309965e+02
7.900000e+02 1.375652e+02
7.910000e+02 1.444442e+02
7.920000e+02 1.516474e+02
7.930000e+02 1.591889e+02
7.940000e+02 1.670839e+02
7.950000e+02 1.753476e+02
7.960000e+02 1.839963e+02
7.970000e+02 1.930468e+02
7.980000e+02 2.025165e+02
7.990000e+02 2.124237e+02
8.000000e+02 2.227872e+02
8.010000e+02 2.336267e+02
8.020000e+02 2.449628e+02
8.030000e+02 2.568166e+02
8.040000e+02 2.692103e+02
8.050000e+02 2.821670e+02
8.060000e+02 2.957105e+02
8.070000e+02 3.098658e+02
8.080000e+02 3.246586e+02
8.090000e+02 3.401159e+02
8.100000e+02 3.562655e+02
8.110000e+02 3.731364e+02
8.120000e+02 3.907589e+02
8.130000e+02 4.091641e+02
8.140000e+02 4.283846e+02
8.150000e+02 4.484540e+02
8.160000e+02 4.694078e+02
8.170000e+02 4.912820e+02
8.180000e+02 5.141145e+02
8.190000e+02 5.379445e+02
8.200000e+02 5.628127e+02
8.210000e+02 5.887615e+02
8.220000e+02 6.158345e+02
8.230000e+02 6.440775e+02
8.240000e+02 6.735375e+02
8.250000e+02 7.042637e+02
8.260000e+02 7.363066e+02
8.270000e+02 7.697191e+02
8.280000e+02 8.045558e+02
8.290000e+02 8.408733e+02
8.300000e+02 8.787304e+02
8.310000e+02 9.181881e+02
8.320000e+02 9.593094e+02
8.330000e+02 1.002160e+03
8.340000e+02 1.046807e+03
8.350000e+02 1.093289e+03
8.360000e+02 1.141774e+03
8.370000e+02 1.192247e+03
8.380000e+02 1.244810e+03
8.390000e+02 1.299549e+03
8.400000e+02 1.356546e+03
8.410000e+02 1.415889e+03
8.420000e+02 1.477657e+03
8.430000e+02 1.541974e+03
8.440000e+02 1.608905e+03
8.450000e+02 1.678562e+03
8.460000e+02 1.751047e+03
8.470000e+02 1.826467e+03
8.480000e+02 1.904933e+03
8.490000e+02 1.986559e+03
8.500000e+02 2.071465e+03
8.510000e+02 2.159772e+03
8.520000e+02 2.251607e+03
8.530000e+02 2.347104e+03
8.540000e+02 2.446398e+03
8.550000e+02 2.549626e+03
8.560000e+02 2.656935e+03
8.570000e+02 2.768475e+03
8.580000e+02 2.884403e+03
8.590000e+02 3.004877e+03
8.600000e+02 3.130065e+03
8.610000e+02 3.260138e+03
8.620000e+02 3.395272e+03
8.630000e+02 3.535652e+03
8.640000e+02 3.681466e+03
8.650000e+02 3.832910e+03
8.660000e+02 3.990187e+03
8.670000e+02 4.153505e+03
8.680000e+02 4.323080e+03
8.690000e+02 4.499133e+03
8.700000e+02 4.681893e+03
8.710000e+02 4.871607e+03
8.720000e+02 5.068510e+03
8.730000e+02 5.272859e+03
8.740000e+02 5.484915e+03
8.750000e+02 5.704948e+03
8.760000e+02 5.933237e+03
8.770000e+02 6.170067e+03
8.780000e+02 6.415743e+03
8.790000e+02 6.670562e+03
8.800000e+02 6.934845e+03
8.810000e+02 7.208916e+03
8.820000e+02 7.493113e+03
8.830000e+02 7.787783e+03
8.840000e+02 8.093283e+03
8.850000e+02 8.409982e+03
8.860000e+02 8.738264e+03
8.870000e+02 9.078518e+03
8.880000e+02 9.431150e+03
8.890000e+02 9.796579e+03
8.900000e+02 1.017523e+04
8.910000e+02 1.056756e+04
8.920000e+02 1.097006e+04
8.930000e+02 1.139507e+04
8.940000e+02 1.183121e+04
8.950000e+02 1.228293e+04
8.960000e+02 1.275076e+04
8.970000e+02 1.323522e+04
8.980000e+02 1.373686e+04
8.990000e+02 1.425625e+04
9.000000e+02 1.479397e+04
9.010000e+02 1.535061e+04
9.020000e+02 1.592680e+04
9.030000e+02 1.652317e+04
9.040000e+02 1.714036e+04
9.050000e+02 1.777907e+04
9.060000e+02 1.843997e+04
9.070000e+02 1.912375e+04
9.080000e+02 1.983126e+04
9.090000e+02 2.056313e+04
9.100000e+02 2.132019e+04
9.110000e+02 2.210326e+04
9.120000e+02 2.291323e+04
9.130000e+02 2.370187e+04
9.140000e+02 2.475103e+04
9.150000e+02 6.712354e+04
9.160000e+02 1.357524e+05
9.170000e+02 1.402325e+05
9.180000e+02 1.185152e+05
9.190000e+02 2.369350e+05
9.200000e+02 2.983153e+05
9.210000e+02 3.148051e+04
9.220000e+02 3.331362e+05
9.230000e+02 1.518920e+05
9.240000e+02 2.850769e+05
9.250000e+02 3.473878e+05
9.260000e+02 2.286031e+05
9.270000e+02 3.119362e+05
9.280000e+02 4.258313e+05
9.290000e+02 3.884497e+05
9.300000e+02 4.215776e+05
9.310000e+02 2.531251e+05
9.320000e+02 4.744806e+05
9.330000e+02 4.734810e+05
9.340000e+02 4.692842e+05
9.350000e+02 9.675950e+04
9.360000e+02 3.836790e+05
9.370000e+02 8.210681e+04
9.380000e+02 2.353608e+05
9.390000e+02 4.355732e+05
9.400000e+02 6.017985e+05
9.410000e+02 2.507435e+05
9.420000e+02 6.409046e+05
9.430000e+02 5.242764e+05
9.440000e+02 5.263379e+05
9.450000e+02 6.972818e+05
9.460000e+02 6.958219e+05
9.470000e+02 4.423022e+05
9.480000e+02 6.994316e+05
9.490000e+02 7.156249e+05
9.500000e+02 1.448883e+05
9.510000e+02 7.412478e+05
9.520000e+02 8.094516e+05
9.530000e+02 4.778963e+05
9.540000e+02 5.011587e+05
9.550000e+02 8.169886e+05
9.560000e+02 9.016652e+05
9.570000e+02 4.991873e+05
9.580000e+02 4.077409e+05
9.590000e+02 1.026412e+06
9.600000e+02 1.717168e+05
9.610000e+02 1.029198e+06
9.620000e+02 9.824501e+05
9.630000e+02 1.035657e+06
9.640000e+02 1.383802e+05
9.650000e+02 7.167874e+05
9.660000e+02 1.083777e+06
9.670000e+02 9.226418e+05
9.680000e+02 7.526358e+05
9.690000e+02 1.209559e+06
9.700000e+02 1.213737e+06
9.710000e+02 9.514290e+05
9.720000e+02 1.033647e+06
9.730000e+02 1.143388e+06
9.740000e+02 1.382212e+06
9.750000e+02 1.354099e+06
9.760000e+02 1.583722e+06
9.770000e+02 1.600542e+06
9.780000e+02 1.523132e+06
9.790000e+02 1.748731e+06
9.800000e+02 1.794898e+06
9.810000e+02 1.709968e+06
9.820000e+02 1.463722e+06
9.830000e+02 1.927659e+06
9.840000e+02 8.319243e+05
9.850000e+02 1.814820e+06
9.860000e+02 1.826146e+06
9.870000e+02 2.133613e+06
9.880000e+02 1.246850e+06
9.890000e+02 1.724372e+06
9.900000e+02 3.605512e+05
9.910000e+02 1.509159e+06
9.920000e+02 9.525614e+05
9.930000e+02 2.413120e+06
9.940000e+02 3.826462e+05
9.950000e+02 7.680998e+05
9.960000e+02 1.634240e+06
9.970000e+02 6.792062e+05
9.980000e+02 2.722803e+06
9.990000e+02 2.150804e+06
1.000000e+03 2.972199e+06
1.001000e+03 3.058999e+06
1.002000e+03 3.115048e+06
1.003000e+03 2.454850e+06
1.004000e+03 2.025953e+06
1.005000e+03 2.653701e+06
1.006000e+03 3.427864e+06
1.007000e+03 3.532348e+06
1.008000e+03 3.559523e+06
1.009000e+03 3.040842e+06
1.010000e+03 3.734033e+06
1.011000e+03 3.870298e+06
1.012000e+03 3.903128e+06
1.013000e+03 3.967415e+06
1.014000e+03 1.589861e+06
1.015000e+03 2.276758e+06
1.016000e+03 3.359463e+06
1.017000e+03 1.776793e+06
1.018000e+03 3.715841e+06
1.019000e+03 2.583590e+06
1.020000e+03 4.797848e+06
1.021000e+03 2.514631e+06
1.022000e+03 3.625328e+06
1.023000e+03 2.742430e+06
1.024000e+03 4.904436e+06
1.025000e+03 1.896717e+06
1.026000e+03 1.889638e+06
1.027000e+03 4.712578e+06
1.028000e+03 1.260563e+06
1.029000e+03 2.449082e+06
1.030000e+03 5.621777e+06
1.031000e+03 5.106064e+06
1.032000e+03 6.228485e+06
1.033000e+03 2.245926e+06
1.034000e+03 6.193380e+06
1.035000e+03 1.337984e+06
1.036000e+03 2.995562e+06
1.037000e+03 6.086583e+06
1.038000e+03 7.351622e+06
1.039000e+03 7.347434e+06
1.040000e+03 7.552916e+06
1.041000e+03 7.880188e+06
1.042000e+03 7.978858e+06
1.043000e+03 7.873738e+06
1.044000e+03 8.482301e+06
1.045000e+03 8.518067e+06
1.046000e+03 8.826161e+06
1.047000e+03 8.150602e+06
1.048000e+03 5.767867e+06
1.049000e+03 8.971479e+06
1.050000e+03 8.895612e+06
1.051000e+03 8.421070e+06
1.052000e+03 1.000901e+07
1.053000e+03 1.029415e+07
1.054000e+03 4.350644e+06
1.055000e+03 1.085955e+07
1.056000e+03 1.111585e+07
1.057000e+03 1.063810e+07
1.058000e+03 1.058307e+07
1.059000e+03 8.241848e+06
1.060000e+03 7.785542e+06
1.061000e+03 1.170392e+07
1.062000e+03 1.074427e+07
1.063000e+03 6.107766e+06
1.064000e+03 2.682669e+06
1.065000e+03 6.083264e+06
1.066000e+03 1.255481e+07
1.067000e+03 9.271595e+06
1.068000e+03 1.455574e+07
1.069000e+03 7.550429e+06
1.070000e+03 1.439875e+07
1.071000e+03 1.550755e+07
1.072000e+03 1.578992e+07
1.073000e+03 7.968394e+06
1.074000e+03 1.475323e+07
1.075000e+03 1.446167e+07
1.076000e+03 1.722458e+07
1.077000e+03 1.342806e+07
1.078000e+03 1.561798e+07
1.079000e+03 1.704516e+07
1.080000e+03 1.777809e+07
1.081000e+03 1.850787e+07
1.082000e+03 1.890192e+07
1.083000e+03 1.893565e+07
1.084000e+03 2.048838e+07
1.085000e+03 1.682425e+07
1.086000e+03 2.133693e+07
1.087000e+03 1.536226e+07
1.088000e+03 2.223780e+07
1.089000e+03 2.274955e+07
1.090000e+03 1.952951e+07
1.091000e+03 1.956202e+07
1.092000e+03 2.413708e+07
1.093000e+03 2.461396e+07
1.094000e+03 2.450749e+07
1.095000e+03 2.570496e+07
1.096000e+03 2.572074e+07
1.097000e+03 2.591934e+07
1.098000e+03 2.722947e+07
1.099000e+03 2.629201e+07
1.100000e+03 1.817228e+07
1.101000e+03 2.039912e+07
1.102000e+03 3.700116e+07
1.103000e+03 1.684343e+08
1.104000e+03 6.739434e+07
1.105000e+03 2.939440e+07
1.106000e+03 1.453044e+08
1.107000e+03 2.300080e+07
1.108000e+03 2.302922e+08
1.109000e+03 4.970248e+07
1.110000e+03 1.125598e+08
1.111000e+03 6.387466e+07
1.112000e+03 1.969138e+08
1.113000e+03 3.417464e+08
1.114000e+03 2.437296e+07
1.115000e+03 8.833398e+07
1.116000e+03 7.145885e+07
1.117000e+03 2.421837e+07
1.118000e+03 6.503181e+07
1.119000e+03 2.482801e+08
1.120000e+03 7.905990e+07
1.121000e+03 2.985183e+08
1.122000e+03 9.855328e+06
1.123000e+03 7.266262e+07
1.124000e+03 3.434997e+08
1.125000e+03 2.254951e+08
1.126000e+03 4.350168e+08
1.127000e+03 3.885364e+08
1.128000e+03 1.564323e+08
1.129000e+03 2.688922e+08
1.130000e+03 3.690812e+08
1.131000e+03 4.384958e+08
1.132000e+03 3.181066e+07
1.133000e+03 9.533434e+07
1.134000e+03 2.739770e+08
1.135000e+03 2.322246e+07
1.136000e+03 1.759169e+08
1.137000e+03 4.512561e+08
1.138000e+03 2.782177e+08
1.139000e+03 4.740474e+08
1.140000e+03 1.793604e+07
1.141000e+03 4.570484e+08
1.142000e+03 5.286653e+08
1.143000e+03 4.399226e+08
1.144000e+03 5.518906e+08
1.145000e+03 7.123469e+07
1.146000e+03 5.812146e+08
1.147000e+03 5.327128e+08
1.148000e+03 1.346171e+08
1.149000e+03 5.309424e+08
1.150000e+03 3.852982e+08
1.151000e+03 6.164276e+08
1.152000e+03 5.739053e+08
1.153000e+03 2.903036e+08
1.154000e+03 3.811965e+08
1.155000e+03 4.888810e+08
1.156000e+03 3.225234e+08
1.157000e+03 6.701923e+08
1.158000e+03 3.231987e+07
1.159000e+03 5.661824e+08
1.160000e+03 3.785012e+08
1.161000e+03 6.691350e+08
1.162000e+03 1.499188e+08
1.163000e+03 3.230797e+08
1.164000e+03 3.253395e+07
1.165000e+03 7.118646e+08
1.166000e+03 6.209846e+08
1.167000e+03 5.754541e+08
1.168000e+03 7.840289e+08
1.169000e+03 7.830970e+08
1.170000e+03 6.882798e+08
1.171000e+03 7.081372e+08
1.172000e+03 4.373269e+08
1.173000e+03 8.275570e+08
1.174000e+03 1.836609e+08
1.175000e+03 3.792000e+07
1.176000e+03 3.449242e+07
1.177000e+03 9.033126e+08
1.178000e+03 8.987505e+08
1.179000e+03 8.825937e+08
1.180000e+03 5.460144e+08
1.181000e+03 9.527427e+08
1.182000e+03 8.822427e+08
1.183000e+03 7.897287e+08
1.184000e+03 7.430524e+08
1.185000e+03 8.833282e+08
1.186000e+03 4.257509e+08
1.187000e+03 8.816333e+08
1.188000e+03 5.826291e+08
1.189000e+03 4.763104e+07
1.190000e+03 3.198972e+08
1.191000e+03 8.520900e+08
1.192000e+03 9.993409e+08
1.193000e+03 4.446784e+07
1.194000e+03 5.408589e+07
1.195000e+03 8.015089e+08
1.196000e+03 9.720756e+08
1.197000e+03 1.435197e+09
1.198000e+03 7.130916e+08
1.199000e+03 1.413890e+09
1.200000e+03 7.388417e+08
1.201000e+03 1.335008e+09
1.202000e+03 9.265709e+08
1.203000e+03 1.439867e+09
1.204000e+03 6.175882e+08
1.205000e+03 1.204409e+09
1.206000e+03 1.197668e+09
1.207000e+03 2.577969e+08
1.208000e+03 9.348602e+08
1.209000e+03 7.748603e+08
1.210000e+03 6.997674e+07
1.211000e+03 4.765821e+08
1.212000e+03 3.268404e+08
1.213000e+03 2.221713e+08
1.214000e+03 1.346508e+08
1.215000e+03 8.252330e+07
1.216000e+03 7.356287e+07
1.217000e+03 1.185425e+08
1.218000e+03 2.049200e+08
1.219000e+03 3.347437e+08
1.220000e+03 4.173745e+08
1.221000e+03 6.980949e+08
1.222000e+03 8.607319e+08
1.223000e+03 1.099147e+09
1.224000e+03 1.388238e+09
1.225000e+03 7.283376e+08
1.226000e+03 1.855167e+09
1.227000e+03 2.010508e+09
1.228000e+03 1.327113e+09
1.229000e+03 2.054991e+09
1.230000e+03 1.879924e+09
1.231000e+03 1.414658e+09
1.232000e+03 3.070402e+09
1.233000e+03 3.299321e+09
1.234000e+03 2.488783e+09
1.235000e+03 3.444201e+09
1.236000e+03 1.685078e+09
1.237000e+03 3.790312e+09
1.238000e+03 3.367303e+09
1.239000e+03 3.403937e+09
1.240000e+03 3.598531e+09
1.241000e+03 3.601044e+09
1.242000e+03 3.359970e+09
1.243000e+03 4.922381e+09
1.244000e+03 3.101764e+09
1.245000e+03 3.668124e+09
1.246000e+03 5.358443e+09
1.247000e+03 5.297123e+09
1.248000e+03 3.133136e+09
1.249000e+03 4.010301e+09
1.250000e+03 6.168706e+09
1.251000e+03 7.403517e+09
1.252000e+03 6.470042e+09
1.253000e+03 7.412681e+09
1.254000e+03 6.415199e+09
1.255000e+03 7.879047e+09
1.256000e+03 6.661392e+09
1.257000e+03 7.709343e+09
1.258000e+03 5.033099e+09
1.259000e+03 6.864788e+09
1.260000e+03 7.859082e+09
1.261000e+03 1.642387e+08
1.262000e+03 2.117244e+09
1.263000e+03 8.354640e+09
1.264000e+03 5.828828e+09
1.265000e+03 1.711258e+08
1.266000e+03 8.196859e+09
1.267000e+03 6.554846e+09
