# wavelength_A flux
5.000000e+02 4.506487e-23
5.010000e+02 5.471445e-23
5.020000e+02 6.637777e-23
5.030000e+02 8.046409e-23
5.040000e+02 9.746359e-23
5.050000e+02 1.208367e-22
5.060000e+02 1.460862e-22
5.070000e+02 1.764367e-22
5.080000e+02 2.129960e-22
5.090000e+02 2.568958e-22
5.100000e+02 3.007117e-22
5.110000e+02 3.728722e-22
5.120000e+02 4.486272e-22
5.130000e+02 5.396103e-22
5.140000e+02 6.484337e-22
5.150000e+02 7.786322e-22
5.160000e+02 9.342946e-22
5.170000e+02 1.120312e-21
5.180000e+02 1.342389e-21
5.190000e+02 1.607343e-21
5.200000e+02 1.923238e-21
5.210000e+02 2.299600e-21
5.220000e+02 2.747340e-21
5.230000e+02 3.280847e-21
5.240000e+02 3.914788e-21
5.250000e+02 4.667996e-21
5.260000e+02 5.562331e-21
5.270000e+02 6.623525e-21
5.280000e+02 7.881869e-21
5.290000e+02 9.372851e-21
5.300000e+02 1.113881e-20
5.310000e+02 1.322854e-20
5.320000e+02 1.569997e-20
5.330000e+02 1.862094e-20
5.340000e+02 2.207098e-20
5.350000e+02 2.614327e-20
5.360000e+02 3.094680e-20
5.370000e+02 3.626807e-20
5.380000e+02 4.328140e-20
5.390000e+02 5.113704e-20
5.400000e+02 6.037995e-20
5.410000e+02 7.124675e-20
5.420000e+02 8.402161e-20
5.430000e+02 9.902301e-20
5.440000e+02 1.166308e-19
5.450000e+02 1.372854e-19
5.460000e+02 1.614982e-19
5.470000e+02 1.898689e-19
5.480000e+02 2.230874e-19
5.490000e+02 2.619606e-19
5.500000e+02 3.074239e-19
5.510000e+02 3.605635e-19
5.520000e+02 4.226391e-19
5.530000e+02 4.951111e-19
5.540000e+02 5.796717e-19
5.550000e+02 6.782806e-19
5.560000e+02 7.932057e-19
5.570000e+02 9.270705e-19
5.580000e+02 1.082908e-18
5.590000e+02 1.264223e-18
5.600000e+02 1.475061e-18
5.610000e+02 1.720094e-18
5.620000e+02 2.004709e-18
5.630000e+02 2.335119e-18
5.640000e+02 2.718480e-18
5.650000e+02 3.163037e-18
5.660000e+02 3.678278e-18
5.670000e+02 4.275118e-18
5.680000e+02 4.966110e-18
5.690000e+02 5.765678e-18
5.700000e+02 6.690392e-18
5.710000e+02 7.759273e-18
5.720000e+02 8.994146e-18
5.730000e+02 1.042004e-17
5.740000e+02 1.206566e-17
5.750000e+02 1.396386e-17
5.760000e+02 1.615218e-17
5.770000e+02 1.867428e-17
5.780000e+02 2.157866e-17
5.790000e+02 2.492199e-17
5.800000e+02 2.876867e-17
5.810000e+02 3.319226e-17
5.820000e+02 3.827669e-17
5.830000e+02 4.411761e-17
5.840000e+02 5.081716e-17
5.850000e+02 5.852097e-17
5.860000e+02 6.735351e-17
5.870000e+02 7.747874e-17
5.880000e+02 8.908230e-17
5.890000e+02 1.023738e-16
5.900000e+02 1.175915e-16
5.910000e+02 1.350063e-16
5.920000e+02 1.549260e-16
5.930000e+02 1.776999e-16
5.940000e+02 2.037251e-16
5.950000e+02 2.334515e-16
5.960000e+02 2.673900e-16
5.970000e+02 3.061193e-16
5.980000e+02 3.502955e-16
5.990000e+02 4.006615e-16
6.000000e+02 4.580584e-16
6.010000e+02 5.234379e-16
6.020000e+02 5.978769e-16
6.030000e+02 6.825925e-16
6.040000e+02 7.789605e-16
6.050000e+02 8.885348e-16
6.060000e+02 1.013070e-15
6.070000e+02 1.154547e-15
6.080000e+02 1.315200e-15
6.090000e+02 1.497548e-15
6.100000e+02 1.704432e-15
6.110000e+02 1.939051e-15
6.120000e+02 2.205011e-15
6.130000e+02 2.506368e-15
6.140000e+02 2.847688e-15
6.150000e+02 3.234108e-15
6.160000e+02 3.671403e-15
6.170000e+02 4.166063e-15
6.180000e+02 4.725380e-15
6.190000e+02 5.357544e-15
6.200000e+02 6.071746e-15
6.210000e+02 6.878304e-15
6.220000e+02 7.788786e-15
6.230000e+02 8.816165e-15
6.240000e+02 9.974981e-15
6.250000e+02 1.128152e-14
6.260000e+02 1.275403e-14
6.270000e+02 1.441293e-14
6.280000e+02 1.628106e-14
6.290000e+02 1.838399e-14
6.300000e+02 2.075029e-14
6.310000e+02 2.340790e-14
6.320000e+02 2.640456e-14
6.330000e+02 2.976806e-14
6.340000e+02 3.354697e-14
6.350000e+02 3.779073e-14
6.360000e+02 4.255529e-14
6.370000e+02 4.790192e-14
6.380000e+02 5.389968e-14
6.390000e+02 6.062534e-14
6.400000e+02 6.816439e-14
6.410000e+02 7.661206e-14
6.420000e+02 8.607435e-14
6.430000e+02 9.666919e-14
6.440000e+02 1.085278e-13
6.450000e+02 1.217960e-13
6.460000e+02 1.366360e-13
6.470000e+02 1.532279e-13
6.480000e+02 1.717719e-13
6.490000e+02 1.924902e-13
6.500000e+02 2.156295e-13
6.510000e+02 2.414635e-13
6.520000e+02 2.702956e-13
6.530000e+02 3.024626e-13
6.540000e+02 3.383376e-13
6.550000e+02 3.783341e-13
6.560000e+02 4.229099e-13
6.570000e+02 4.725721e-13
6.580000e+02 5.278823e-13
6.590000e+02 5.894615e-13
6.600000e+02 6.579968e-13
6.610000e+02 7.342481e-13
6.620000e+02 8.190554e-13
6.630000e+02 9.133470e-13
6.640000e+02 1.018148e-12
6.650000e+02 1.134592e-12
6.660000e+02 1.263930e-12
6.670000e+02 1.407539e-12
6.680000e+02 1.566944e-12
6.690000e+02 1.743823e-12
6.700000e+02 1.940028e-12
6.710000e+02 2.157599e-12
6.720000e+02 2.398787e-12
6.730000e+02 2.666068e-12
6.740000e+02 2.962170e-12
6.750000e+02 3.290097e-12
6.760000e+02 3.653153e-12
6.770000e+02 4.054974e-12
6.780000e+02 4.499561e-12
6.790000e+02 4.991309e-12
6.800000e+02 5.535054e-12
6.810000e+02 6.136105e-12
6.820000e+02 6.800297e-12
6.830000e+02 7.534038e-12
6.840000e+02 8.344361e-12
6.850000e+02 9.238986e-12
6.860000e+02 1.022639e-11
6.870000e+02 1.131585e-11
6.880000e+02 1.251756e-11
6.890000e+02 1.384270e-11
6.900000e+02 1.530349e-11
6.910000e+02 1.691336e-11
6.920000e+02 1.868699e-11
6.930000e+02 2.064046e-11
6.940000e+02 2.279138e-11
6.950000e+02 2.515901e-11
6.960000e+02 2.776442e-11
6.970000e+02 3.063068e-11
6.980000e+02 3.378299e-11
6.990000e+02 3.724890e-11
7.000000e+02 4.105852e-11
7.010000e+02 4.524474e-11
7.020000e+02 4.984350e-11
7.030000e+02 5.489402e-11
7.040000e+02 6.043913e-11
7.050000e+02 6.652554e-11
7.060000e+02 7.320374e-11
7.070000e+02 8.053091e-11
7.080000e+02 8.856610e-11
7.090000e+02 9.737594e-11
7.100000e+02 1.070325e-10
7.110000e+02 1.176142e-10
7.120000e+02 1.292066e-10
7.130000e+02 1.419028e-10
7.140000e+02 1.558042e-10
7.150000e+02 1.710210e-10
7.160000e+02 1.876733e-10
7.170000e+02 2.058917e-10
7.180000e+02 2.258183e-10
7.190000e+02 2.476074e-10
7.200000e+02 2.714269e-10
7.210000e+02 2.974591e-10
7.220000e+02 3.259023e-10
7.230000e+02 3.569717e-10
7.240000e+02 3.909010e-10
7.250000e+02 4.279440e-10
7.260000e+02 4.683761e-10
7.270000e+02 5.124962e-10
7.280000e+02 5.606284e-10
7.290000e+02 6.131243e-10
7.300000e+02 6.703652e-10
7.310000e+02 7.327642e-10
7.320000e+02 8.007695e-10
7.330000e+02 8.748663e-10
7.340000e+02 9.555801e-10
7.350000e+02 1.043480e-09
7.360000e+02 1.139183e-09
7.370000e+02 1.243356e-09
7.380000e+02 1.356721e-09
7.390000e+02 1.480059e-09
7.400000e+02 1.614215e-09
7.410000e+02 1.760103e-09
7.420000e+02 1.918712e-09
7.430000e+02 2.091109e-09
7.440000e+02 2.278449e-09
7.450000e+02 2.481978e-09
7.460000e+02 2.703043e-09
7.470000e+02 2.943100e-09
7.480000e+02 3.203720e-09
7.490000e+02 3.486597e-09
7.500000e+02 3.793561e-09
7.510000e+02 4.126588e-09
7.520000e+02 4.487805e-09
7.530000e+02 4.879512e-09
7.540000e+02 5.304184e-09
7.550000e+02 5.764491e-09
7.560000e+02 6.263311e-09
7.570000e+02 6.803744e-09
7.580000e+02 7.389132e-09
7.590000e+02 8.023072e-09
7.600000e+02 8.709438e-09
7.610000e+02 9.452401e-09
7.620000e+02 1.025645e-08
7.630000e+02 1.112642e-08
7.640000e+02 1.206751e-08
7.650000e+02 1.308530e-08
7.660000e+02 1.418582e-08
7.670000e+02 1.537553e-08
7.680000e+02 1.666138e-08
7.690000e+02 1.805082e-08
7.700000e+02 1.955194e-08
7.710000e+02 2.117331e-08
7.720000e+02 2.292421e-08
7.730000e+02 2.481459e-08
7.740000e+02 2.685513e-08
7.750000e+02 2.905730e-08
7.760000e+02 3.143341e-08
7.770000e+02 3.399666e-08
7.780000e+02 3.676122e-08
7.790000e+02 3.974228e-08
7.800000e+02 4.295615e-08
7.810000e+02 4.642030e-08
7.820000e+02 5.015344e-08
7.830000e+02 5.417566e-08
7.840000e+02 5.850847e-08
7.850000e+02 6.317492e-08
7.860000e+02 6.819966e-08
7.870000e+02 7.360916e-08
7.880000e+02 7.943170e-08
7.890000e+02 8.569759e-08
7.900000e+02 9.243924e-08
7.910000e+02 9.969136e-08
7.920000e+02 1.074910e-07
7.930000e+02 1.158781e-07
7.940000e+02 1.248949e-07
7.950000e+02 1.345868e-07
7.960000e+02 1.450025e-07
7.970000e+02 1.561939e-07
7.980000e+02 1.682163e-07
7.990000e+02 1.811291e-07
8.000000e+02 1.949955e-07
8.010000e+02 2.098831e-07
8.020000e+02 2.258642e-07
8.030000e+02 2.430159e-07
8.040000e+02 2.614204e-07
8.050000e+02 2.811581e-07
8.060000e+02 3.023451e-07
8.070000e+02 3.250591e-07
8.080000e+02 3.494142e-07
8.090000e+02 3.755241e-07
8.100000e+02 4.035103e-07
8.110000e+02 4.335019e-07
8.120000e+02 4.656370e-07
8.130000e+02 5.000625e-07
8.140000e+02 5.369350e-07
8.150000e+02 5.764213e-07
8.160000e+02 6.186992e-07
8.170000e+02 6.639580e-07
8.180000e+02 7.123992e-07
8.190000e+02 7.642374e-07
8.200000e+02 8.197013e-07
8.210000e+02 8.790337e-07
8.220000e+02 9.424936e-07
8.230000e+02 1.010356e-06
8.240000e+02 1.082915e-06
8.250000e+02 1.160480e-06
8.260000e+02 1.243384e-06
8.270000e+02 1.331978e-06
8.280000e+02 1.426637e-06
8.290000e+02 1.527759e-06
8.300000e+02 1.635767e-06
8.310000e+02 1.751110e-06
8.320000e+02 1.874266e-06
8.330000e+02 2.005742e-06
8.340000e+02 2.146076e-06
8.350000e+02 2.295838e-06
8.360000e+02 2.455642e-06
8.370000e+02 2.626126e-06
8.380000e+02 2.807976e-06
8.390000e+02 3.001917e-06
8.400000e+02 3.208721e-06
8.410000e+02 3.429205e-06
8.420000e+02 3.664234e-06
8.430000e+02 3.914728e-06
8.440000e+02 4.181662e-06
8.450000e+02 4.466069e-06
8.460000e+02 4.769043e-06
8.470000e+02 5.091747e-06
8.480000e+02 5.435410e-06
8.490000e+02 5.801335e-06
8.500000e+02 6.190903e-06
8.510000e+02 6.605576e-06
8.520000e+02 7.046903e-06
8.530000e+02 7.516525e-06
8.540000e+02 8.016177e-06
8.550000e+02 8.547698e-06
8.560000e+02 9.113032e-06
8.570000e+02 9.714238e-06
8.580000e+02 1.035349e-05
8.590000e+02 1.103311e-05
8.600000e+02 1.175551e-05
8.610000e+02 1.252329e-05
8.620000e+02 1.333916e-05
8.630000e+02 1.420601e-05
8.640000e+02 1.512689e-05
8.650000e+02 1.610502e-05
8.660000e+02 1.714380e-05
8.670000e+02 1.824682e-05
8.680000e+02 1.941790e-05
8.690000e+02 2.066104e-05
8.700000e+02 2.198048e-05
8.710000e+02 2.338071e-05
8.720000e+02 2.486645e-05
8.730000e+02 2.644270e-05
8.740000e+02 2.811473e-05
8.750000e+02 2.988810e-05
8.760000e+02 3.176868e-05
8.770000e+02 3.376267e-05
8.780000e+02 3.587660e-05
8.790000e+02 3.811739e-05
8.800000e+02 4.049229e-05
8.810000e+02 4.300897e-05
8.820000e+02 4.567554e-05
8.830000e+02 4.850051e-05
8.840000e+02 5.149288e-05
8.850000e+02 5.466213e-05
8.860000e+02 5.801825e-05
8.870000e+02 6.157176e-05
8.880000e+02 6.533375e-05
8.890000e+02 6.931590e-05
8.900000e+02 7.353054e-05
8.910000e+02 7.799061e-05
8.920000e+02 8.270977e-05
8.930000e+02 8.770239e-05
8.940000e+02 9.298361e-05
8.950000e+02 9.856936e-05
8.960000e+02 1.044764e-04
8.970000e+02 1.107224e-04
8.980000e+02 1.173258e-04
8.990000e+02 1.243064e-04
9.000000e+02 1.316845e-04
9.010000e+02 1.394818e-04
9.020000e+02 1.477210e-04
9.030000e+02 1.564261e-04
9.040000e+02 1.656223e-04
9.050000e+02 1.753358e-04
9.060000e+02 1.855945e-04
9.070000e+02 1.964277e-04
9.080000e+02 2.078659e-04
9.090000e+02 2.199414e-04
9.100000e+02 2.326882e-04
9.110000e+02 2.461418e-04
9.120000e+02 2.603396e-04
9.130000e+02 2.753201e-04
9.140000e+02 2.959389e-04
9.150000e+02 3.370673e-02
9.160000e+02 1.359640e-01
9.170000e+02 6.976866e-03
9.180000e+02 4.514645e-02
9.190000e+02 3.425253e-01
9.200000e+02 7.777250e-01
9.210000e+02 4.287825e-04
9.220000e+02 2.507146e-01
9.230000e+02 7.480061e-03
9.240000e+02 1.354539e-02
9.250000e+02 5.895695e-02
9.260000e+02 6.008030e-02
9.270000e+02 9.825167e-03
9.280000e+02 2.583677e+00
9.290000e+02 3.077395e+00
9.300000e+02 9.549676e-01
9.310000e+02 9.243424e-03
9.320000e+02 2.632413e+00
9.330000e+02 2.401493e-01
9.340000e+02 9.197092e-02
9.350000e+02 2.283471e-02
9.360000e+02 1.930655e-02
9.370000e+02 5.596053e-03
9.380000e+02 1.493648e-02
9.390000e+02 3.856016e-02
9.400000e+02 1.626992e+00
9.410000e+02 3.227930e-01
9.420000e+02 7.900634e+00
9.430000e+02 5.656016e-02
9.440000e+02 9.012803e+00
9.450000e+02 7.612529e+00
9.460000e+02 6.626245e-01
9.470000e+02 6.201908e-03
9.480000e+02 3.107816e+00
9.490000e+02 6.007439e-01
9.500000e+02 2.179280e-02
9.510000e+02 4.772546e-01
9.520000e+02 8.946443e-01
9.530000e+02 1.652870e-02
9.540000e+02 7.413356e-03
9.550000e+02 1.512651e-01
9.560000e+02 9.964634e+00
9.570000e+02 8.109725e-02
9.580000e+02 4.676804e-03
9.590000e+02 5.674008e+00
9.600000e+02 3.903842e-02
9.610000e+02 7.585635e-01
9.620000e+02 3.123314e-01
9.630000e+02 1.332436e-01
9.640000e+02 1.279199e-02
9.650000e+02 1.578522e-02
9.660000e+02 1.656265e-01
9.670000e+02 4.388595e-02
9.680000e+02 2.928972e-02
9.690000e+02 7.255678e-01
9.700000e+02 5.896462e-01
9.710000e+02 5.221958e-02
9.720000e+02 3.928718e-02
9.730000e+02 1.645308e-01
9.740000e+02 7.370848e-01
9.750000e+02 2.757761e-01
9.760000e+02 4.493773e+00
9.770000e+02 2.521463e+00
9.780000e+02 9.388275e-01
9.790000e+02 2.736901e+01
9.800000e+02 2.698149e+01
9.810000e+02 8.580637e-01
9.820000e+02 1.936588e-01
9.830000e+02 1.385526e+01
9.840000e+02 2.137805e+00
9.850000e+02 4.791555e-01
9.860000e+02 6.468332e-01
9.870000e+02 1.693369e+01
9.880000e+02 3.789711e-02
9.890000e+02 2.870274e+00
9.900000e+02 3.814081e+00
9.910000e+02 1.623032e-01
9.920000e+02 2.174349e-02
9.930000e+02 5.198719e+01
9.940000e+02 3.136623e-02
9.950000e+02 4.482522e+00
9.960000e+02 8.935165e-02
9.970000e+02 3.589962e+00
9.980000e+02 7.617387e+00
9.990000e+02 3.171869e-01
1.000000e+03 7.660909e+01
1.001000e+03 6.575311e+01
1.002000e+03 3.834485e+01
1.003000e+03 3.770523e-01
1.004000e+03 6.961441e-02
1.005000e+03 8.814545e-01
1.006000e+03 2.595069e+01
1.007000e+03 4.883115e+01
1.008000e+03 1.344129e+01
1.009000e+03 5.766885e-01
1.010000e+03 1.481563e+01
1.011000e+03 2.950054e+01
1.012000e+03 1.681871e+01
1.013000e+03 1.441381e+01
1.014000e+03 5.611706e-02
1.015000e+03 9.984398e-02
1.016000e+03 9.790077e-01
1.017000e+03 5.992889e-02
1.018000e+03 5.919876e-01
1.019000e+03 1.064529e-01
1.020000e+03 4.368776e+01
1.021000e+03 6.593323e-01
1.022000e+03 9.920616e-01
1.023000e+03 1.608086e-01
1.024000e+03 1.051794e+01
1.025000e+03 7.848269e-02
1.026000e+03 1.255032e-01
1.027000e+03 2.786264e+00
1.028000e+03 5.610867e-01
1.029000e+03 1.046181e-01
1.030000e+03 4.510643e+00
1.031000e+03 4.351847e+00
1.032000e+03 4.165507e+01
1.033000e+03 4.012075e+00
1.034000e+03 7.544521e+00
1.035000e+03 3.910141e-01
1.036000e+03 1.521492e-01
1.037000e+03 3.454611e+01
1.038000e+03 1.766963e+02
1.039000e+03 3.811853e+01
1.040000e+03 4.820228e+01
1.041000e+03 2.942347e+02
1.042000e+03 1.213803e+02
1.043000e+03 1.177200e+02
1.044000e+03 5.418814e+02
1.045000e+03 3.615454e-01
1.046000e+03 5.937396e+01
1.047000e+03 1.311472e+01
1.048000e+03 7.911377e-01
1.049000e+03 1.719542e+01
1.050000e+03 7.432167e+00
1.051000e+03 4.338005e+00
1.052000e+03 1.232852e+02
1.053000e+03 2.959730e+02
1.054000e+03 2.939301e-01
1.055000e+03 3.976911e+02
1.056000e+03 3.977080e+02
1.057000e+03 3.276853e+01
1.058000e+03 5.257315e+00
1.059000e+03 2.445786e+00
1.060000e+03 1.228271e+00
1.061000e+03 4.659796e+01
1.062000e+03 3.072756e+00
1.063000e+03 4.338724e+01
1.064000e+03 6.341553e-01
1.065000e+03 4.695435e-01
1.066000e+03 6.394000e+01
1.067000e+03 2.411903e+00
1.068000e+03 8.987143e+02
1.069000e+03 1.058988e+00
1.070000e+03 3.031683e+01
1.071000e+03 3.451428e+02
1.072000e+03 4.852965e+02
1.073000e+03 7.388306e-01
1.074000e+03 3.352532e+01
1.075000e+03 2.111035e+01
1.076000e+03 5.753855e+02
1.077000e+03 3.500698e+00
1.078000e+03 6.543854e+00
1.079000e+03 2.187223e+01
1.080000e+03 5.195839e+01
1.081000e+03 1.438758e+02
1.082000e+03 1.007791e+02
1.083000e+03 6.046497e+01
1.084000e+03 1.458633e+03
1.085000e+03 2.081213e+01
1.086000e+03 1.107426e+03
1.087000e+03 5.634155e+00
1.088000e+03 2.143724e+03
1.089000e+03 2.033378e+03
1.090000e+03 1.698993e+01
1.091000e+03 2.044971e+01
1.092000e+03 1.305293e+03
1.093000e+03 1.477435e+03
1.094000e+03 1.613448e+02
1.095000e+03 2.375617e+03
1.096000e+03 4.235167e+02
1.097000e+03 3.644049e+02
1.098000e+03 2.174670e+03
1.099000e+03 5.924561e+01
1.100000e+03 3.495651e+00
1.101000e+03 6.445375e+00
1.102000e+03 3.202889e+01
1.103000e+03 1.657816e+03
1.104000e+03 3.142289e+03
1.105000e+03 2.257321e+03
1.106000e+03 1.297127e+02
1.107000e+03 4.220947e+00
1.108000e+03 5.527562e+02
1.109000e+03 2.067542e+01
1.110000e+03 3.817665e+03
1.111000e+03 1.441991e+03
1.112000e+03 3.010882e+02
1.113000e+03 2.459239e+03
1.114000e+03 2.006885e+02
1.115000e+03 3.146339e+01
1.116000e+03 1.980970e+01
1.117000e+03 1.352762e+03
1.118000e+03 3.165808e+01
1.119000e+03 4.258993e+02
1.120000e+03 2.142432e+01
1.121000e+03 1.147694e+03
1.122000e+03 2.736368e+03
1.123000e+03 1.976121e+03
1.124000e+03 2.133867e+03
1.125000e+03 1.079669e+03
1.126000e+03 7.198985e+03
1.127000e+03 1.863550e+03
1.128000e+03 4.016375e+03
1.129000e+03 7.986149e+02
1.130000e+03 2.934946e+03
1.131000e+03 4.500099e+03
1.132000e+03 3.713464e+01
1.133000e+03 1.031533e+02
1.134000e+03 8.136072e+02
1.135000e+03 2.485785e+03
1.136000e+03 2.313701e+02
1.137000e+03 2.666744e+03
1.138000e+03 7.355527e+02
1.139000e+03 4.789510e+03
1.140000e+03 5.595756e+03
1.141000e+03 3.779625e+03
1.142000e+03 6.138603e+03
1.143000e+03 1.395367e+03
1.144000e+03 5.927790e+03
1.145000e+03 2.266772e+01
1.146000e+03 7.043994e+03
1.147000e+03 4.935851e+03
1.148000e+03 8.808130e+01
1.149000e+03 3.077804e+03
1.150000e+03 1.829914e+03
1.151000e+03 6.983358e+03
1.152000e+03 4.578008e+03
1.153000e+03 5.129882e+03
1.154000e+03 7.256977e+03
1.155000e+03 2.515772e+03
1.156000e+03 6.480550e+03
1.157000e+03 7.164603e+03
1.158000e+03 1.436436e+03
1.159000e+03 6.005636e+03
1.160000e+03 1.344161e+03
1.161000e+03 5.536911e+03
1.162000e+03 2.948975e+02
1.163000e+03 7.217637e+02
1.164000e+03 8.495361e+01
1.165000e+03 3.615122e+03
1.166000e+03 2.138426e+03
1.167000e+03 1.889795e+03
1.168000e+03 7.771076e+03
1.169000e+03 8.206588e+03
1.170000e+03 1.682880e+03
1.171000e+03 4.175760e+03
1.172000e+03 1.694710e+03
1.173000e+03 4.180263e+03
1.174000e+03 9.723267e+01
1.175000e+03 6.022473e+01
1.176000e+03 2.932098e+01
1.177000e+03 9.897226e+03
1.178000e+03 9.770725e+03
1.179000e+03 8.050766e+03
1.180000e+03 3.408519e+03
1.181000e+03 9.139880e+03
1.182000e+03 7.395602e+03
1.183000e+03 3.989463e+03
1.184000e+03 3.298824e+03
1.185000e+03 4.493355e+03
1.186000e+03 3.743361e+02
1.187000e+03 5.777595e+03
1.188000e+03 2.377416e+03
1.189000e+03 7.965813e+03
1.190000e+03 7.672726e+03
1.191000e+03 5.207731e+03
1.192000e+03 6.574910e+03
1.193000e+03 4.224763e+03
1.194000e+03 6.246531e+03
1.195000e+03 6.132509e+03
1.196000e+03 1.600400e+04
1.197000e+03 2.777018e+04
1.198000e+03 9.234722e+02
1.199000e+03 2.694196e+04
1.200000e+03 1.980914e+03
1.201000e+03 2.318332e+04
1.202000e+03 6.543889e+03
1.203000e+03 1.695409e+04
1.204000e+03 1.746888e+03
1.205000e+03 1.292353e+04
1.206000e+03 1.392993e+04
1.207000e+03 4.717326e+03
1.208000e+03 9.014858e+03
1.209000e+03 8.709476e+03
1.210000e+03 1.034463e+02
1.211000e+03 4.273782e+03
1.212000e+03 1.996303e+03
1.213000e+03 1.325058e+03
1.214000e+03 4.640157e+02
1.215000e+03 1.032690e+02
1.216000e+03 7.773649e+01
1.217000e+03 3.089514e+02
1.218000e+03 1.108932e+03
1.219000e+03 2.534605e+03
1.220000e+03 1.686889e+03
1.221000e+03 7.350770e+03
1.222000e+03 8.323068e+03
1.223000e+03 8.974569e+03
1.224000e+03 1.758327e+04
1.225000e+03 1.253303e+03
1.226000e+03 2.767898e+04
1.227000e+03 2.897953e+04
1.228000e+03 5.415529e+03
1.229000e+03 2.455459e+04
1.230000e+03 1.815116e+04
1.231000e+03 3.877957e+03
1.232000e+03 5.345655e+04
1.233000e+03 5.911402e+04
1.234000e+03 5.313300e+04
1.235000e+03 5.151609e+04
1.236000e+03 7.550721e+03
1.237000e+03 6.701965e+04
1.238000e+03 5.558363e+04
1.239000e+03 3.469858e+04
1.240000e+03 4.830982e+04
1.241000e+03 3.182907e+04
1.242000e+03 5.502779e+04
1.243000e+03 8.375049e+04
1.244000e+03 9.303056e+04
1.245000e+03 7.911664e+04
1.246000e+03 5.576997e+04
1.247000e+03 6.965353e+04
1.248000e+03 8.996009e+04
1.249000e+03 1.098891e+05
1.250000e+03 7.608796e+04
1.251000e+03 1.083599e+05
1.252000e+03 8.209374e+04
1.253000e+03 1.149008e+05
1.254000e+03 8.829570e+04
1.255000e+03 6.874487e+04
1.256000e+03 7.859217e+04
1.257000e+03 9.633752e+04
1.258000e+03 4.423685e+04
1.259000e+03 6.946627e+04
1.260000e+03 1.226994e+05
1.261000e+03 1.479388e+04
1.262000e+03 1.374421e+05
1.263000e+03 1.117179e+05
1.264000e+03 5.762303e+04
1.265000e+03 8.018062e+03
1.266000e+03 1.317163e+05
1.267000e+03 7.614548e+04
