# wavelength_A flux
5.000000e+02 1.669125e-02
5.010000e+02 1.843676e-02
5.020000e+02 2.035636e-02
5.030000e+02 2.246653e-02
5.040000e+02 2.478529e-02
5.050000e+02 2.783105e-02
5.060000e+02 3.067454e-02
5.070000e+02 3.379498e-02
5.080000e+02 3.721797e-02
5.090000e+02 4.097244e-02
5.100000e+02 4.508676e-02
5.110000e+02 4.959476e-02
5.120000e+02 5.453220e-02
5.130000e+02 5.993794e-02
5.140000e+02 6.585417e-02
5.150000e+02 7.232615e-02
5.160000e+02 7.940504e-02
5.170000e+02 8.714068e-02
5.180000e+02 9.559933e-02
5.190000e+02 1.048369e-01
5.200000e+02 1.149243e-01
5.210000e+02 1.259354e-01
5.220000e+02 1.379397e-01
5.230000e+02 1.510577e-01
5.240000e+02 1.653487e-01
5.250000e+02 1.809299e-01
5.260000e+02 1.979059e-01
5.270000e+02 2.163973e-01
5.280000e+02 2.365324e-01
5.290000e+02 2.584091e-01
5.300000e+02 2.822988e-01
5.310000e+02 3.082410e-01
5.320000e+02 3.364514e-01
5.330000e+02 3.671159e-01
5.340000e+02 4.004376e-01
5.350000e+02 4.366346e-01
5.360000e+02 4.759398e-01
5.370000e+02 5.136747e-01
5.380000e+02 5.649139e-01
5.390000e+02 6.151589e-01
5.400000e+02 6.696449e-01
5.410000e+02 7.286767e-01
5.420000e+02 7.927283e-01
5.430000e+02 8.620954e-01
5.440000e+02 9.372228e-01
5.450000e+02 1.018569e+00
5.460000e+02 1.106492e+00
5.470000e+02 1.201900e+00
5.480000e+02 1.304965e+00
5.490000e+02 1.416429e+00
5.500000e+02 1.536928e+00
5.510000e+02 1.667159e+00
5.520000e+02 1.807864e+00
5.530000e+02 1.959838e+00
5.540000e+02 2.123938e+00
5.550000e+02 2.301075e+00
5.560000e+02 2.492230e+00
5.570000e+02 2.698450e+00
5.580000e+02 2.920857e+00
5.590000e+02 3.160651e+00
5.600000e+02 3.419116e+00
5.610000e+02 3.697627e+00
5.620000e+02 3.997649e+00
5.630000e+02 4.320753e+00
5.640000e+02 4.668615e+00
5.650000e+02 5.043022e+00
5.660000e+02 5.445899e+00
5.670000e+02 5.879274e+00
5.680000e+02 6.345334e+00
5.690000e+02 6.846402e+00
5.700000e+02 7.384934e+00
5.710000e+02 7.963642e+00
5.720000e+02 8.585275e+00
5.730000e+02 9.252892e+00
5.740000e+02 9.969679e+00
5.750000e+02 1.073917e+01
5.760000e+02 1.156376e+01
5.770000e+02 1.245046e+01
5.780000e+02 1.340036e+01
5.790000e+02 1.441888e+01
5.800000e+02 1.551068e+01
5.810000e+02 1.668071e+01
5.820000e+02 1.793423e+01
5.830000e+02 1.927677e+01
5.840000e+02 2.071037e+01
5.850000e+02 2.225296e+01
5.860000e+02 2.390146e+01
5.870000e+02 2.566445e+01
5.880000e+02 2.755033e+01
5.890000e+02 2.956691e+01
5.900000e+02 3.172373e+01
5.910000e+02 3.402895e+01
5.920000e+02 3.649253e+01
5.930000e+02 3.912471e+01
5.940000e+02 4.193634e+01
5.950000e+02 4.493779e+01
5.960000e+02 4.814470e+01
5.970000e+02 5.156651e+01
5.980000e+02 5.521814e+01
5.990000e+02 5.911406e+01
6.000000e+02 6.326964e+01
6.010000e+02 6.769892e+01
6.020000e+02 7.242577e+01
6.030000e+02 7.746175e+01
6.040000e+02 8.282837e+01
6.050000e+02 8.854607e+01
6.060000e+02 9.463615e+01
6.070000e+02 1.011221e+02
6.080000e+02 1.080274e+02
6.090000e+02 1.153776e+02
6.100000e+02 1.231996e+02
6.110000e+02 1.315222e+02
6.120000e+02 1.403753e+02
6.130000e+02 1.497901e+02
6.140000e+02 1.598008e+02
6.150000e+02 1.704428e+02
6.160000e+02 1.817530e+02
6.170000e+02 1.937708e+02
6.180000e+02 2.065380e+02
6.190000e+02 2.200982e+02
6.200000e+02 2.344977e+02
6.210000e+02 2.497852e+02
6.220000e+02 2.660119e+02
6.230000e+02 2.832321e+02
6.240000e+02 3.015026e+02
6.250000e+02 3.208836e+02
6.260000e+02 3.414383e+02
6.270000e+02 3.632331e+02
6.280000e+02 3.863384e+02
6.290000e+02 4.108274e+02
6.300000e+02 4.367787e+02
6.310000e+02 4.642641e+02
6.320000e+02 4.933979e+02
6.330000e+02 5.242416e+02
6.340000e+02 5.569014e+02
6.350000e+02 5.914753e+02
6.360000e+02 6.275182e+02
6.370000e+02 6.667939e+02
6.380000e+02 7.077650e+02
6.390000e+02 7.511045e+02
6.400000e+02 7.969405e+02
6.410000e+02 8.454073e+02
6.420000e+02 8.966462e+02
6.430000e+02 9.508057e+02
6.440000e+02 1.008041e+03
6.450000e+02 1.068515e+03
6.460000e+02 1.132399e+03
6.470000e+02 1.199872e+03
6.480000e+02 1.271130e+03
6.490000e+02 1.346361e+03
6.500000e+02 1.425776e+03
6.510000e+02 1.509590e+03
6.520000e+02 1.598033e+03
6.530000e+02 1.691347e+03
6.540000e+02 1.789777e+03
6.550000e+02 1.893588e+03
6.560000e+02 2.003054e+03
6.570000e+02 2.118436e+03
6.580000e+02 2.240112e+03
6.590000e+02 2.368320e+03
6.600000e+02 2.503413e+03
6.610000e+02 2.645745e+03
6.620000e+02 2.795668e+03
6.630000e+02 2.953562e+03
6.640000e+02 3.119825e+03
6.650000e+02 3.294863e+03
6.660000e+02 3.479123e+03
6.670000e+02 3.673043e+03
6.680000e+02 3.877100e+03
6.690000e+02 4.091788e+03
6.700000e+02 4.317622e+03
6.710000e+02 4.555138e+03
6.720000e+02 4.804755e+03
6.730000e+02 5.067514e+03
6.740000e+02 5.343564e+03
6.750000e+02 5.633715e+03
6.760000e+02 5.938628e+03
6.770000e+02 6.259004e+03
6.780000e+02 6.595571e+03
6.790000e+02 6.949091e+03
6.800000e+02 7.320358e+03
6.810000e+02 7.710203e+03
6.820000e+02 8.119488e+03
6.830000e+02 8.549115e+03
6.840000e+02 9.000025e+03
6.850000e+02 9.473187e+03
6.860000e+02 9.969630e+03
6.870000e+02 1.049038e+04
6.880000e+02 1.103670e+04
6.890000e+02 1.160958e+04
6.900000e+02 1.221026e+04
6.910000e+02 1.284005e+04
6.920000e+02 1.350021e+04
6.930000e+02 1.419212e+04
6.940000e+02 1.491719e+04
6.950000e+02 1.567687e+04
6.960000e+02 1.647274e+04
6.970000e+02 1.730622e+04
6.980000e+02 1.817948e+04
6.990000e+02 1.909373e+04
7.000000e+02 2.005095e+04
7.010000e+02 2.105301e+04
7.020000e+02 2.210187e+04
7.030000e+02 2.319953e+04
7.040000e+02 2.434812e+04
7.050000e+02 2.554982e+04
7.060000e+02 2.680691e+04
7.070000e+02 2.812176e+04
7.080000e+02 2.949674e+04
7.090000e+02 3.093452e+04
7.100000e+02 3.243783e+04
7.110000e+02 3.400927e+04
7.120000e+02 3.565175e+04
7.130000e+02 3.736826e+04
7.140000e+02 3.916188e+04
7.150000e+02 4.103575e+04
7.160000e+02 4.299333e+04
7.170000e+02 4.503791e+04
7.180000e+02 4.717283e+04
7.190000e+02 4.940305e+04
7.200000e+02 5.173111e+04
7.210000e+02 5.416145e+04
7.220000e+02 5.669821e+04
7.230000e+02 5.934576e+04
7.240000e+02 6.210851e+04
7.250000e+02 6.499110e+04
7.260000e+02 6.799836e+04
7.270000e+02 7.113527e+04
7.280000e+02 7.440697e+04
7.290000e+02 7.781884e+04
7.300000e+02 8.137641e+04
7.310000e+02 8.508544e+04
7.320000e+02 8.895187e+04
7.330000e+02 9.298188e+04
7.340000e+02 9.718172e+04
7.350000e+02 1.015583e+05
7.360000e+02 1.061182e+05
7.370000e+02 1.108686e+05
7.380000e+02 1.158170e+05
7.390000e+02 1.209709e+05
7.400000e+02 1.263379e+05
7.410000e+02 1.319269e+05
7.420000e+02 1.377453e+05
7.430000e+02 1.438029e+05
7.440000e+02 1.501079e+05
7.450000e+02 1.566700e+05
7.460000e+02 1.634986e+05
7.470000e+02 1.706040e+05
7.480000e+02 1.779958e+05
7.490000e+02 1.856858e+05
7.500000e+02 1.936845e+05
7.510000e+02 2.020033e+05
7.520000e+02 2.106538e+05
7.530000e+02 2.196486e+05
7.540000e+02 2.290001e+05
7.550000e+02 2.387212e+05
7.560000e+02 2.488258e+05
7.570000e+02 2.593245e+05
7.580000e+02 2.702402e+05
7.590000e+02 2.815786e+05
7.600000e+02 2.933599e+05
7.610000e+02 3.055982e+05
7.620000e+02 3.183092e+05
7.630000e+02 3.315116e+05
7.640000e+02 3.452219e+05
7.650000e+02 3.594581e+05
7.660000e+02 3.742388e+05
7.670000e+02 3.895832e+05
7.680000e+02 4.055097e+05
7.690000e+02 4.220422e+05
7.700000e+02 4.391983e+05
7.710000e+02 4.570007e+05
7.720000e+02 4.754720e+05
7.730000e+02 4.946350e+05
7.740000e+02 5.145136e+05
7.750000e+02 5.351323e+05
7.760000e+02 5.564924e+05
7.770000e+02 5.786902e+05
7.780000e+02 6.016841e+05
7.790000e+02 6.255239e+05
7.800000e+02 6.502383e+05
7.810000e+02 6.758567e+05
7.820000e+02 7.024093e+05
7.830000e+02 7.299269e+05
7.840000e+02 7.584432e+05
7.850000e+02 7.879899e+05
7.860000e+02 8.186011e+05
7.870000e+02 8.503143e+05
7.880000e+02 8.831622e+05
7.890000e+02 9.171838e+05
7.900000e+02 9.524172e+05
7.910000e+02 9.889022e+05
7.920000e+02 1.026679e+06
7.930000e+02 1.065790e+06
7.940000e+02 1.106279e+06
7.950000e+02 1.148189e+06
7.960000e+02 1.191566e+06
7.970000e+02 1.236456e+06
7.980000e+02 1.282910e+06
7.990000e+02 1.330975e+06
8.000000e+02 1.380704e+06
8.010000e+02 1.432148e+06
8.020000e+02 1.485364e+06
8.030000e+02 1.540399e+06
8.040000e+02 1.597322e+06
8.050000e+02 1.656186e+06
8.060000e+02 1.717053e+06
8.070000e+02 1.779984e+06
8.080000e+02 1.845043e+06
8.090000e+02 1.912294e+06
8.100000e+02 1.981802e+06
8.110000e+02 2.053646e+06
8.120000e+02 2.127894e+06
8.130000e+02 2.204616e+06
8.140000e+02 2.283889e+06
8.150000e+02 2.365786e+06
8.160000e+02 2.450398e+06
8.170000e+02 2.537794e+06
8.180000e+02 2.628064e+06
8.190000e+02 2.721292e+06
8.200000e+02 2.817567e+06
8.210000e+02 2.916980e+06
8.220000e+02 3.019624e+06
8.230000e+02 3.125593e+06
8.240000e+02 3.234990e+06
8.250000e+02 3.347910e+06
8.260000e+02 3.464459e+06
8.270000e+02 3.584743e+06
8.280000e+02 3.708858e+06
8.290000e+02 3.836941e+06
8.300000e+02 3.969095e+06
8.310000e+02 4.105436e+06
8.320000e+02 4.246086e+06
8.330000e+02 4.391168e+06
8.340000e+02 4.540810e+06
8.350000e+02 4.694886e+06
8.360000e+02 4.854268e+06
8.370000e+02 5.018396e+06
8.380000e+02 5.187597e+06
8.390000e+02 5.362068e+06
8.400000e+02 5.541918e+06
8.410000e+02 5.727308e+06
8.420000e+02 5.918338e+06
8.430000e+02 6.115352e+06
8.440000e+02 6.318321e+06
8.450000e+02 6.527477e+06
8.460000e+02 6.742992e+06
8.470000e+02 6.965039e+06
8.480000e+02 7.193800e+06
8.490000e+02 7.429458e+06
8.500000e+02 7.672201e+06
8.510000e+02 7.922224e+06
8.520000e+02 8.179684e+06
8.530000e+02 8.444862e+06
8.540000e+02 8.717952e+06
8.550000e+02 8.999081e+06
8.560000e+02 9.288560e+06
8.570000e+02 9.586578e+06
8.580000e+02 9.893363e+06
8.590000e+02 1.020915e+07
8.600000e+02 1.053418e+07
8.610000e+02 1.086868e+07
8.620000e+02 1.121293e+07
8.630000e+02 1.156716e+07
8.640000e+02 1.193165e+07
8.650000e+02 1.230665e+07
8.660000e+02 1.269247e+07
8.670000e+02 1.308935e+07
8.680000e+02 1.349760e+07
8.690000e+02 1.391750e+07
8.700000e+02 1.434935e+07
8.710000e+02 1.479350e+07
8.720000e+02 1.525021e+07
8.730000e+02 1.571983e+07
8.740000e+02 1.620268e+07
8.750000e+02 1.669903e+07
8.760000e+02 1.720936e+07
8.770000e+02 1.773392e+07
8.780000e+02 1.827317e+07
8.790000e+02 1.882738e+07
8.800000e+02 1.939696e+07
8.810000e+02 1.998229e+07
8.820000e+02 2.058376e+07
8.830000e+02 2.120178e+07
8.840000e+02 2.183676e+07
8.850000e+02 2.248911e+07
8.860000e+02 2.315927e+07
8.870000e+02 2.384767e+07
8.880000e+02 2.455476e+07
8.890000e+02 2.528099e+07
8.900000e+02 2.602684e+07
8.910000e+02 2.679278e+07
8.920000e+02 2.755867e+07
8.930000e+02 2.838687e+07
8.940000e+02 2.921604e+07
8.950000e+02 3.006715e+07
8.960000e+02 3.094107e+07
8.970000e+02 3.183807e+07
8.980000e+02 3.275886e+07
8.990000e+02 3.370393e+07
9.000000e+02 3.467386e+07
9.010000e+02 3.566924e+07
9.020000e+02 3.669067e+07
9.030000e+02 3.773876e+07
9.040000e+02 3.881391e+07
9.050000e+02 3.991742e+07
9.060000e+02 4.104933e+07
9.070000e+02 4.221006e+07
9.080000e+02 4.340148e+07
9.090000e+02 4.462312e+07
9.100000e+02 4.587608e+07
9.110000e+02 4.716117e+07
9.120000e+02 4.847952e+07
9.130000e+02 4.952189e+07
9.140000e+02 5.143090e+07
9.150000e+02 7.751604e+07
9.160000e+02 1.429528e+08
9.170000e+02 1.533707e+08
9.180000e+02 1.248423e+08
9.190000e+02 2.756850e+08
9.200000e+02 4.170229e+08
9.210000e+02 6.091103e+07
9.220000e+02 5.419873e+08
9.230000e+02 1.574433e+08
9.240000e+02 5.054191e+08
9.250000e+02 6.491436e+08
9.260000e+02 2.326159e+08
9.270000e+02 5.926922e+08
9.280000e+02 7.757468e+08
9.290000e+02 6.884416e+08
9.300000e+02 6.187158e+08
9.310000e+02 2.847217e+08
9.320000e+02 8.021112e+08
9.330000e+02 9.035911e+08
9.340000e+02 9.422152e+08
9.350000e+02 2.694475e+08
9.360000e+02 9.001178e+08
9.370000e+02 1.943740e+08
9.380000e+02 2.522376e+08
9.390000e+02 8.974371e+08
9.400000e+02 1.051393e+09
9.410000e+02 5.141550e+08
9.420000e+02 1.132818e+09
9.430000e+02 1.148682e+09
9.440000e+02 7.480556e+08
9.450000e+02 1.205927e+09
9.460000e+02 1.221370e+09
9.470000e+02 9.969106e+08
9.480000e+02 1.063479e+09
9.490000e+02 9.180919e+08
9.500000e+02 2.512868e+08
9.510000e+02 1.140056e+09
9.520000e+02 1.338373e+09
9.530000e+02 1.278049e+09
9.540000e+02 1.195572e+09
9.550000e+02 1.465378e+09
9.560000e+02 1.287716e+09
9.570000e+02 1.100362e+09
9.580000e+02 1.373267e+09
9.590000e+02 1.610271e+09
9.600000e+02 3.358468e+08
9.610000e+02 1.667125e+09
9.620000e+02 1.679593e+09
9.630000e+02 1.733117e+09
9.640000e+02 1.935071e+08
9.650000e+02 1.611195e+09
9.660000e+02 1.825460e+09
9.670000e+02 1.814525e+09
9.680000e+02 1.737533e+09
9.690000e+02 1.894956e+09
9.700000e+02 1.901226e+09
9.710000e+02 1.773134e+09
9.720000e+02 1.159377e+09
9.730000e+02 1.071322e+09
9.740000e+02 1.905731e+09
9.750000e+02 2.092328e+09
9.760000e+02 2.199852e+09
9.770000e+02 2.252443e+09
9.780000e+02 2.278682e+09
9.790000e+02 2.362655e+09
9.800000e+02 2.409913e+09
9.810000e+02 2.441278e+09
9.820000e+02 2.420663e+09
9.830000e+02 2.548681e+09
9.840000e+02 1.097732e+09
9.850000e+02 2.623099e+09
9.860000e+02 2.658230e+09
9.870000e+02 2.742488e+09
9.880000e+02 2.602324e+09
9.890000e+02 2.072127e+09
9.900000e+02 4.208116e+08
9.910000e+02 2.736771e+09
9.920000e+02 2.330458e+09
9.930000e+02 2.919259e+09
9.940000e+02 5.079757e+08
9.950000e+02 8.973334e+08
9.960000e+02 1.030613e+09
9.970000e+02 7.511836e+08
9.980000e+02 3.331786e+09
9.990000e+02 3.247722e+09
1.000000e+03 3.476780e+09
1.001000e+03 3.544571e+09
1.002000e+03 3.601266e+09
1.003000e+03 3.169812e+09
1.004000e+03 3.575801e+09
1.005000e+03 3.283452e+09
1.006000e+03 3.867188e+09
1.007000e+03 3.932234e+09
1.008000e+03 3.996367e+09
1.009000e+03 3.864847e+09
1.010000e+03 4.139722e+09
1.011000e+03 4.216160e+09
1.012000e+03 4.279692e+09
1.013000e+03 4.350197e+09
1.014000e+03 3.498810e+09
1.015000e+03 4.078235e+09
1.016000e+03 4.420285e+09
1.017000e+03 3.845640e+09
1.018000e+03 4.645780e+09
1.019000e+03 4.482090e+09
1.020000e+03 4.882161e+09
1.021000e+03 3.051301e+09
1.022000e+03 4.537538e+09
1.023000e+03 4.487892e+09
1.024000e+03 4.527842e+09
1.025000e+03 2.866453e+09
1.026000e+03 1.528160e+09
1.027000e+03 4.350895e+09
1.028000e+03 1.502133e+09
1.029000e+03 4.670988e+09
1.030000e+03 5.624207e+09
1.031000e+03 5.692785e+09
1.032000e+03 5.930651e+09
1.033000e+03 2.946996e+09
1.034000e+03 6.197935e+09
1.035000e+03 1.405691e+09
1.036000e+03 5.221543e+09
1.037000e+03 1.073653e+09
1.038000e+03 6.700664e+09
1.039000e+03 6.716440e+09
1.040000e+03 6.903313e+09
1.041000e+03 6.999197e+09
1.042000e+03 6.898320e+09
1.043000e+03 7.075467e+09
1.044000e+03 7.366916e+09
1.045000e+03 7.505918e+09
1.046000e+03 7.656113e+09
1.047000e+03 7.652982e+09
1.048000e+03 7.256281e+09
1.049000e+03 7.846868e+09
1.050000e+03 8.107465e+09
1.051000e+03 8.120932e+09
1.052000e+03 8.420007e+09
1.053000e+03 8.352031e+09
1.054000e+03 6.942085e+09
1.055000e+03 8.813057e+09
1.056000e+03 9.005243e+09
1.057000e+03 9.050336e+09
1.058000e+03 9.221163e+09
1.059000e+03 8.828001e+09
1.060000e+03 8.970137e+09
1.061000e+03 9.658627e+09
1.062000e+03 9.766681e+09
1.063000e+03 4.159475e+09
1.064000e+03 2.202248e+09
1.065000e+03 8.839314e+09
1.066000e+03 9.052781e+09
1.067000e+03 9.500879e+09
1.068000e+03 1.104309e+10
1.069000e+03 9.314689e+09
1.070000e+03 1.100354e+10
1.071000e+03 1.157459e+10
1.072000e+03 1.174263e+10
1.073000e+03 1.042240e+10
1.074000e+03 1.188414e+10
1.075000e+03 1.199440e+10
1.076000e+03 1.248795e+10
1.077000e+03 1.234497e+10
1.078000e+03 1.272496e+10
1.079000e+03 1.291327e+10
1.080000e+03 1.316900e+10
1.081000e+03 1.338537e+10
1.082000e+03 1.361662e+10
1.083000e+03 1.376725e+10
1.084000e+03 1.367717e+10
1.085000e+03 1.133078e+10
1.086000e+03 1.453569e+10
1.087000e+03 1.392271e+10
1.088000e+03 1.494346e+10
1.089000e+03 1.519267e+10
1.090000e+03 1.505511e+10
1.091000e+03 1.520364e+10
1.092000e+03 1.588182e+10
1.093000e+03 1.610448e+10
1.094000e+03 1.630066e+10
1.095000e+03 1.657540e+10
1.096000e+03 1.681812e+10
1.097000e+03 1.688593e+10
1.098000e+03 1.690636e+10
1.099000e+03 1.746438e+10
1.100000e+03 1.652224e+10
1.101000e+03 1.619206e+10
1.102000e+03 3.077313e+10
1.103000e+03 8.106176e+10
1.104000e+03 4.045269e+10
1.105000e+03 1.770006e+10
1.106000e+03 1.274278e+11
1.107000e+03 4.357337e+10
1.108000e+03 1.412004e+11
1.109000e+03 6.563928e+10
1.110000e+03 3.605054e+10
1.111000e+03 3.626596e+10
1.112000e+03 1.291458e+11
1.113000e+03 1.599566e+11
1.114000e+03 1.385769e+10
1.115000e+03 1.187289e+11
1.116000e+03 1.046890e+11
1.117000e+03 1.551163e+10
1.118000e+03 8.804471e+10
1.119000e+03 1.543483e+11
1.120000e+03 1.209307e+11
1.121000e+03 1.424194e+11
1.122000e+03 5.173903e+09
1.123000e+03 2.743720e+10
1.124000e+03 1.709004e+11
1.125000e+03 8.793997e+10
1.126000e+03 1.841469e+11
1.127000e+03 1.790360e+11
1.128000e+03 7.629739e+10
1.129000e+03 1.637364e+11
1.130000e+03 1.517407e+11
1.131000e+03 1.920193e+11
1.132000e+03 1.491118e+10
1.133000e+03 1.041770e+11
1.134000e+03 1.724140e+11
1.135000e+03 7.981539e+09
1.136000e+03 1.541552e+11
1.137000e+03 2.037789e+11
1.138000e+03 1.803029e+11
1.139000e+03 2.030168e+11
1.140000e+03 8.833704e+09
1.141000e+03 2.075809e+11
1.142000e+03 2.049988e+11
1.143000e+03 2.105646e+11
1.144000e+03 2.238446e+11
1.145000e+03 1.058621e+11
1.146000e+03 2.289241e+11
1.147000e+03 2.240689e+11
1.148000e+03 1.555899e+11
1.149000e+03 2.315150e+11
1.150000e+03 2.046875e+11
1.151000e+03 2.401198e+11
1.152000e+03 2.339505e+11
1.153000e+03 7.805577e+10
1.154000e+03 2.555031e+10
1.155000e+03 2.038129e+11
1.156000e+03 7.912810e+10
1.157000e+03 2.557477e+11
1.158000e+03 1.200918e+10
1.159000e+03 2.153028e+11
1.160000e+03 2.142280e+11
1.161000e+03 2.635567e+11
1.162000e+03 6.218275e+10
1.163000e+03 2.161731e+11
1.164000e+03 1.686373e+10
1.165000e+03 2.769689e+11
1.166000e+03 2.681012e+11
1.167000e+03 2.505181e+11
1.168000e+03 2.870958e+11
1.169000e+03 2.841407e+11
1.170000e+03 2.879849e+11
1.171000e+03 2.846811e+11
1.172000e+03 2.373120e+11
1.173000e+03 3.000369e+11
1.174000e+03 2.010954e+11
1.175000e+03 1.836030e+10
1.176000e+03 1.524154e+10
1.177000e+03 3.114509e+11
1.178000e+03 2.879446e+11
1.179000e+03 3.169770e+11
1.180000e+03 2.239978e+11
1.181000e+03 3.226427e+11
1.182000e+03 3.213779e+11
1.183000e+03 3.197216e+11
1.184000e+03 3.174861e+11
1.185000e+03 3.186456e+11
1.186000e+03 2.957376e+11
1.187000e+03 3.302234e+11
1.188000e+03 2.859738e+11
1.189000e+03 1.793645e+10
1.190000e+03 6.841722e+10
1.191000e+03 3.250971e+11
1.192000e+03 3.406707e+11
1.193000e+03 1.590529e+10
1.194000e+03 2.022880e+10
1.195000e+03 2.244569e+11
1.196000e+03 3.364814e+11
1.197000e+03 3.993871e+11
1.198000e+03 3.702254e+11
1.199000e+03 3.948028e+11
1.200000e+03 3.347645e+11
1.201000e+03 3.752374e+11
1.202000e+03 3.434429e+11
1.203000e+03 3.886555e+11
1.204000e+03 3.123408e+11
1.205000e+03 3.414804e+11
1.206000e+03 2.849954e+11
1.207000e+03 1.135489e+11
1.208000e+03 2.617012e+11
1.209000e+03 2.106521e+11
1.210000e+03 2.657431e+10
1.211000e+03 1.431765e+11
1.212000e+03 1.017820e+11
1.213000e+03 6.882867e+10
1.214000e+03 4.174838e+10
1.215000e+03 2.577875e+10
1.216000e+03 2.306579e+10
1.217000e+03 3.628367e+10
1.218000e+03 6.220528e+10
1.219000e+03 9.967398e+10
1.220000e+03 1.417286e+11
1.221000e+03 1.946018e+11
1.222000e+03 2.433015e+11
1.223000e+03 2.963124e+11
1.224000e+03 3.478065e+11
1.225000e+03 3.545383e+11
1.226000e+03 4.363117e+11
1.227000e+03 4.781583e+11
1.228000e+03 4.842480e+11
1.229000e+03 5.356025e+11
1.230000e+03 5.482050e+11
1.231000e+03 5.700313e+11
1.232000e+03 6.631604e+11
1.233000e+03 6.965752e+11
1.234000e+03 5.607276e+11
1.235000e+03 7.449231e+11
1.236000e+03 6.626942e+11
1.237000e+03 7.950626e+11
1.238000e+03 7.792211e+11
1.239000e+03 8.102726e+11
1.240000e+03 7.911018e+11
1.241000e+03 1.093976e+12
1.242000e+03 7.523201e+11
1.243000e+03 1.035632e+12
1.244000e+03 5.225881e+11
1.245000e+03 7.155827e+11
1.246000e+03 1.452284e+12
1.247000e+03 1.435534e+12
1.248000e+03 5.452131e+11
1.249000e+03 6.604892e+11
1.250000e+03 1.647540e+12
1.251000e+03 1.784978e+12
1.252000e+03 1.678659e+12
1.253000e+03 1.801456e+12
1.254000e+03 1.696371e+12
1.255000e+03 1.910265e+12
1.256000e+03 1.773366e+12
1.257000e+03 1.930582e+12
1.258000e+03 1.652441e+12
1.259000e+03 1.849715e+12
1.260000e+03 1.871407e+12
1.261000e+03 4.349363e+10
1.262000e+03 3.294559e+11
1.263000e+03 2.141385e+12
1.264000e+03 1.728811e+12
1.265000e+03 4.302393e+10
1.266000e+03 2.063381e+12
1.267000e+03 1.954758e+12
