# wavelength_A flux
5.000000e+02 1.608394e-18
5.010000e+02 1.912091e-18
5.020000e+02 2.271522e-18
5.030000e+02 2.696620e-18
5.040000e+02 3.199035e-18
5.050000e+02 3.903274e-18
5.060000e+02 4.623215e-18
5.070000e+02 5.472194e-18
5.080000e+02 6.472663e-18
5.090000e+02 7.650900e-18
5.100000e+02 9.037444e-18
5.110000e+02 1.066821e-17
5.120000e+02 1.258484e-17
5.130000e+02 1.483597e-17
5.140000e+02 1.747829e-17
5.150000e+02 2.057741e-17
5.160000e+02 2.421110e-17
5.170000e+02 2.846631e-17
5.180000e+02 3.345093e-17
5.190000e+02 3.928151e-17
5.200000e+02 4.609909e-17
5.210000e+02 5.406565e-17
5.220000e+02 6.336113e-17
5.230000e+02 7.422736e-17
5.240000e+02 8.689287e-17
5.250000e+02 1.016566e-16
5.260000e+02 1.188555e-16
5.270000e+02 1.388796e-16
5.280000e+02 1.621788e-16
5.290000e+02 1.892184e-16
5.300000e+02 2.207593e-16
5.310000e+02 2.573335e-16
5.320000e+02 2.997893e-16
5.330000e+02 3.490422e-16
5.340000e+02 4.061489e-16
5.350000e+02 4.723234e-16
5.360000e+02 5.489574e-16
5.370000e+02 6.282236e-16
5.380000e+02 7.402725e-16
5.390000e+02 8.588801e-16
5.400000e+02 9.960253e-16
5.410000e+02 1.154267e-15
5.420000e+02 1.337093e-15
5.430000e+02 1.547903e-15
5.440000e+02 1.790958e-15
5.450000e+02 2.071037e-15
5.460000e+02 2.393190e-15
5.470000e+02 2.764910e-15
5.480000e+02 3.192076e-15
5.490000e+02 3.683267e-15
5.500000e+02 4.247755e-15
5.510000e+02 4.896155e-15
5.520000e+02 5.640537e-15
5.530000e+02 6.494668e-15
5.540000e+02 7.474220e-15
5.550000e+02 8.597033e-15
5.560000e+02 9.883396e-15
5.570000e+02 1.135638e-14
5.580000e+02 1.304221e-14
5.590000e+02 1.497065e-14
5.600000e+02 1.717553e-14
5.610000e+02 1.969521e-14
5.620000e+02 2.257320e-14
5.630000e+02 2.585884e-14
5.640000e+02 2.960802e-14
5.650000e+02 3.388394e-14
5.660000e+02 3.875860e-14
5.670000e+02 4.431268e-14
5.680000e+02 5.063822e-14
5.690000e+02 5.783867e-14
5.700000e+02 6.603118e-14
5.710000e+02 7.534820e-14
5.720000e+02 8.593891e-14
5.730000e+02 9.797187e-14
5.740000e+02 1.116371e-13
5.750000e+02 1.271512e-13
5.760000e+02 1.447251e-13
5.770000e+02 1.647109e-13
5.780000e+02 1.873366e-13
5.790000e+02 2.129727e-13
5.800000e+02 2.420064e-13
5.810000e+02 2.748734e-13
5.820000e+02 3.120624e-13
5.830000e+02 3.541200e-13
5.840000e+02 4.015409e-13
5.850000e+02 4.553784e-13
5.860000e+02 5.161085e-13
5.870000e+02 5.846413e-13
5.880000e+02 6.619840e-13
5.890000e+02 7.492150e-13
5.900000e+02 8.476058e-13
5.910000e+02 9.584770e-13
5.920000e+02 1.083407e-12
5.930000e+02 1.224087e-12
5.940000e+02 1.382448e-12
5.950000e+02 1.560629e-12
5.960000e+02 1.761055e-12
5.970000e+02 1.986380e-12
5.980000e+02 2.239604e-12
5.990000e+02 2.524065e-12
6.000000e+02 2.843487e-12
6.010000e+02 3.200645e-12
6.020000e+02 3.604295e-12
6.030000e+02 4.055453e-12
6.040000e+02 4.561265e-12
6.050000e+02 5.128095e-12
6.060000e+02 5.763065e-12
6.070000e+02 6.474085e-12
6.080000e+02 7.269953e-12
6.090000e+02 8.160450e-12
6.100000e+02 9.156415e-12
6.110000e+02 1.026999e-11
6.120000e+02 1.151451e-11
6.130000e+02 1.290486e-11
6.140000e+02 1.445754e-11
6.150000e+02 1.619085e-11
6.160000e+02 1.812509e-11
6.170000e+02 2.028273e-11
6.180000e+02 2.268869e-11
6.190000e+02 2.537054e-11
6.200000e+02 2.835884e-11
6.210000e+02 3.168736e-11
6.220000e+02 3.539351e-11
6.230000e+02 3.951861e-11
6.240000e+02 4.410838e-11
6.250000e+02 4.921333e-11
6.260000e+02 5.488924e-11
6.270000e+02 6.119772e-11
6.280000e+02 6.820684e-11
6.290000e+02 7.599158e-11
6.300000e+02 8.463479e-11
6.310000e+02 9.421426e-11
6.320000e+02 1.048713e-10
6.330000e+02 1.166744e-10
6.340000e+02 1.297650e-10
6.350000e+02 1.442715e-10
6.360000e+02 1.603165e-10
6.370000e+02 1.781483e-10
6.380000e+02 1.978604e-10
6.390000e+02 2.196789e-10
6.400000e+02 2.438210e-10
6.410000e+02 2.705250e-10
6.420000e+02 3.000533e-10
6.430000e+02 3.326936e-10
6.440000e+02 3.687622e-10
6.450000e+02 4.086060e-10
6.460000e+02 4.526061e-10
6.470000e+02 5.011803e-10
6.480000e+02 5.547865e-10
6.490000e+02 6.139277e-10
6.500000e+02 6.791531e-10
6.510000e+02 7.510691e-10
6.520000e+02 8.303337e-10
6.530000e+02 9.176711e-10
6.540000e+02 1.013875e-09
6.550000e+02 1.119810e-09
6.560000e+02 1.236426e-09
6.570000e+02 1.364732e-09
6.580000e+02 1.505945e-09
6.590000e+02 1.661222e-09
6.600000e+02 1.831934e-09
6.610000e+02 2.019594e-09
6.620000e+02 2.225785e-09
6.630000e+02 2.452281e-09
6.640000e+02 2.701009e-09
6.650000e+02 2.974060e-09
6.660000e+02 3.273751e-09
6.670000e+02 3.602555e-09
6.680000e+02 3.963210e-09
6.690000e+02 4.358678e-09
6.700000e+02 4.792198e-09
6.710000e+02 5.267293e-09
6.720000e+02 5.787800e-09
6.730000e+02 6.357896e-09
6.740000e+02 6.982127e-09
6.750000e+02 7.665441e-09
6.760000e+02 8.413217e-09
6.770000e+02 9.231306e-09
6.780000e+02 1.012607e-08
6.790000e+02 1.110442e-08
6.800000e+02 1.217387e-08
6.810000e+02 1.334258e-08
6.820000e+02 1.461941e-08
6.830000e+02 1.601398e-08
6.840000e+02 1.753674e-08
6.850000e+02 1.919885e-08
6.860000e+02 2.101307e-08
6.870000e+02 2.299225e-08
6.880000e+02 2.515105e-08
6.890000e+02 2.750510e-08
6.900000e+02 3.007137e-08
6.910000e+02 3.286828e-08
6.920000e+02 3.591574e-08
6.930000e+02 3.923532e-08
6.940000e+02 4.285038e-08
6.950000e+02 4.678621e-08
6.960000e+02 5.107015e-08
6.970000e+02 5.573121e-08
6.980000e+02 6.080313e-08
6.990000e+02 6.631878e-08
7.000000e+02 7.231613e-08
7.010000e+02 7.883561e-08
7.020000e+02 8.592088e-08
7.030000e+02 9.361904e-08
7.040000e+02 1.019813e-07
7.050000e+02 1.110623e-07
7.060000e+02 1.209213e-07
7.070000e+02 1.316232e-07
7.080000e+02 1.432363e-07
7.090000e+02 1.558343e-07
7.100000e+02 1.695008e-07
7.110000e+02 1.843192e-07
7.120000e+02 2.003841e-07
7.130000e+02 2.177961e-07
7.140000e+02 2.366637e-07
7.150000e+02 2.571032e-07
7.160000e+02 2.792416e-07
7.170000e+02 3.032124e-07
7.180000e+02 3.291614e-07
7.190000e+02 3.572512e-07
7.200000e+02 3.876432e-07
7.210000e+02 4.205218e-07
7.220000e+02 4.560819e-07
7.230000e+02 4.945335e-07
7.240000e+02 5.361022e-07
7.250000e+02 5.810304e-07
7.260000e+02 6.295718e-07
7.270000e+02 6.820266e-07
7.280000e+02 7.386748e-07
7.290000e+02 7.998458e-07
7.300000e+02 8.658863e-07
7.310000e+02 9.371677e-07
7.320000e+02 1.014089e-06
7.330000e+02 1.097078e-06
7.340000e+02 1.186594e-06
7.350000e+02 1.283128e-06
7.360000e+02 1.387208e-06
7.370000e+02 1.499402e-06
7.380000e+02 1.620313e-06
7.390000e+02 1.750592e-06
7.400000e+02 1.890927e-06
7.410000e+02 2.042085e-06
7.420000e+02 2.204831e-06
7.430000e+02 2.380058e-06
7.440000e+02 2.568648e-06
7.450000e+02 2.771591e-06
7.460000e+02 2.989934e-06
7.470000e+02 3.224794e-06
7.480000e+02 3.477370e-06
7.490000e+02 3.748943e-06
7.500000e+02 4.040880e-06
7.510000e+02 4.354644e-06
7.520000e+02 4.691798e-06
7.530000e+02 5.054013e-06
7.540000e+02 5.443072e-06
7.550000e+02 5.860881e-06
7.560000e+02 6.309474e-06
7.570000e+02 6.790829e-06
7.580000e+02 7.307841e-06
7.590000e+02 7.862389e-06
7.600000e+02 8.457371e-06
7.610000e+02 9.095530e-06
7.620000e+02 9.779901e-06
7.630000e+02 1.051367e-05
7.640000e+02 1.130027e-05
7.650000e+02 1.214330e-05
7.660000e+02 1.304671e-05
7.670000e+02 1.401458e-05
7.680000e+02 1.505125e-05
7.690000e+02 1.616162e-05
7.700000e+02 1.735048e-05
7.710000e+02 1.862321e-05
7.720000e+02 1.998548e-05
7.730000e+02 2.144331e-05
7.740000e+02 2.300311e-05
7.750000e+02 2.467171e-05
7.760000e+02 2.645269e-05
7.770000e+02 2.836477e-05
7.780000e+02 3.040517e-05
7.790000e+02 3.258627e-05
7.800000e+02 3.491735e-05
7.810000e+02 3.740829e-05
7.820000e+02 4.006954e-05
7.830000e+02 4.291224e-05
7.840000e+02 4.594824e-05
7.850000e+02 4.919008e-05
7.860000e+02 5.265099e-05
7.870000e+02 5.634558e-05
7.880000e+02 6.028833e-05
7.890000e+02 6.449543e-05
7.900000e+02 6.898380e-05
7.910000e+02 7.377141e-05
7.920000e+02 7.887732e-05
7.930000e+02 8.432176e-05
7.940000e+02 9.012614e-05
7.950000e+02 9.631323e-05
7.960000e+02 1.029071e-04
7.970000e+02 1.099333e-04
7.980000e+02 1.174189e-04
7.990000e+02 1.253926e-04
8.000000e+02 1.338849e-04
8.010000e+02 1.429274e-04
8.020000e+02 1.525554e-04
8.030000e+02 1.628040e-04
8.040000e+02 1.737117e-04
8.050000e+02 1.853189e-04
8.060000e+02 1.976685e-04
8.070000e+02 2.108059e-04
8.080000e+02 2.247789e-04
8.090000e+02 2.396383e-04
8.100000e+02 2.554378e-04
8.110000e+02 2.722341e-04
8.120000e+02 2.900872e-04
8.130000e+02 3.090607e-04
8.140000e+02 3.292215e-04
8.150000e+02 3.506405e-04
8.160000e+02 3.733927e-04
8.170000e+02 3.975560e-04
8.180000e+02 4.232174e-04
8.190000e+02 4.504619e-04
8.200000e+02 4.793839e-04
8.210000e+02 5.100819e-04
8.220000e+02 5.426599e-04
8.230000e+02 5.772276e-04
8.240000e+02 6.139010e-04
8.250000e+02 6.528023e-04
8.260000e+02 6.940605e-04
8.270000e+02 7.378117e-04
8.280000e+02 7.841996e-04
8.290000e+02 8.333756e-04
8.300000e+02 8.854994e-04
8.310000e+02 9.407394e-04
8.320000e+02 9.992730e-04
8.330000e+02 1.061288e-03
8.340000e+02 1.126980e-03
8.350000e+02 1.196508e-03
8.360000e+02 1.270239e-03
8.370000e+02 1.348261e-03
8.380000e+02 1.430828e-03
8.390000e+02 1.518291e-03
8.400000e+02 1.610828e-03
8.410000e+02 1.708752e-03
8.420000e+02 1.812348e-03
8.430000e+02 1.921974e-03
8.440000e+02 2.037918e-03
8.450000e+02 2.160542e-03
8.460000e+02 2.290212e-03
8.470000e+02 2.427315e-03
8.480000e+02 2.572255e-03
8.490000e+02 2.725460e-03
8.500000e+02 2.887377e-03
8.510000e+02 3.058478e-03
8.520000e+02 3.239255e-03
8.530000e+02 3.430241e-03
8.540000e+02 3.631982e-03
8.550000e+02 3.845038e-03
8.560000e+02 4.070020e-03
8.570000e+02 4.307572e-03
8.580000e+02 4.558353e-03
8.590000e+02 4.823069e-03
8.600000e+02 5.102453e-03
8.610000e+02 5.397281e-03
8.620000e+02 5.708362e-03
8.630000e+02 6.036542e-03
8.640000e+02 6.382740e-03
8.650000e+02 6.747852e-03
8.660000e+02 7.132925e-03
8.670000e+02 7.538938e-03
8.680000e+02 7.966995e-03
8.690000e+02 8.418233e-03
8.700000e+02 8.893845e-03
8.710000e+02 9.395083e-03
8.720000e+02 9.923259e-03
8.730000e+02 1.047975e-02
8.740000e+02 1.106599e-02
8.750000e+02 1.168351e-02
8.760000e+02 1.233387e-02
8.770000e+02 1.301871e-02
8.780000e+02 1.373988e-02
8.790000e+02 1.449908e-02
8.800000e+02 1.529827e-02
8.810000e+02 1.613945e-02
8.820000e+02 1.702470e-02
8.830000e+02 1.795623e-02
8.840000e+02 1.893632e-02
8.850000e+02 1.996740e-02
8.860000e+02 2.105196e-02
8.870000e+02 2.219265e-02
8.880000e+02 2.339222e-02
8.890000e+02 2.465357e-02
8.900000e+02 2.597971e-02
8.910000e+02 2.737379e-02
8.920000e+02 2.882416e-02
8.930000e+02 3.037916e-02
8.940000e+02 3.199752e-02
8.950000e+02 3.369798e-02
8.960000e+02 3.548450e-02
8.970000e+02 3.736120e-02
8.980000e+02 3.933241e-02
8.990000e+02 4.140263e-02
9.000000e+02 4.357659e-02
9.010000e+02 4.585922e-02
9.020000e+02 4.825566e-02
9.030000e+02 5.077128e-02
9.040000e+02 5.341173e-02
9.050000e+02 5.618281e-02
9.060000e+02 5.909092e-02
9.070000e+02 6.214157e-02
9.080000e+02 6.534329e-02
9.090000e+02 6.870134e-02
9.100000e+02 7.222359e-02
9.110000e+02 7.591780e-02
9.120000e+02 7.979256e-02
9.130000e+02 8.344308e-02
9.140000e+02 9.002146e-02
9.150000e+02 5.009337e-01
9.160000e+02 6.663074e-01
9.170000e+02 6.960665e-01
9.180000e+02 7.268383e-01
9.190000e+02 7.595450e-01
9.200000e+02 7.932440e-01
9.210000e+02 1.235803e-01
9.220000e+02 8.638088e-01
9.230000e+02 9.009426e-01
9.240000e+02 9.292701e-01
9.250000e+02 9.714487e-01
9.260000e+02 1.024186e+00
9.270000e+02 1.069939e+00
9.280000e+02 1.118426e+00
9.290000e+02 1.011029e+00
9.300000e+02 1.175772e+00
9.310000e+02 1.262332e+00
9.320000e+02 1.325836e+00
9.330000e+02 1.381137e+00
9.340000e+02 1.433062e+00
9.350000e+02 4.224288e-01
9.360000e+02 1.422691e+00
9.370000e+02 3.768816e-01
9.380000e+02 5.463011e-01
9.390000e+02 1.776331e+00
9.400000e+02 1.853629e+00
9.410000e+02 6.684334e-01
9.420000e+02 2.014678e+00
9.430000e+02 2.051746e+00
9.440000e+02 1.867666e+00
9.450000e+02 2.278092e+00
9.460000e+02 2.374929e+00
9.470000e+02 1.536307e+00
9.480000e+02 1.475018e+00
9.490000e+02 2.665559e+00
9.500000e+02 6.417160e-01
9.510000e+02 2.887133e+00
9.520000e+02 3.037432e+00
9.530000e+02 3.124155e+00
9.540000e+02 2.504439e+00
9.550000e+02 3.433178e+00
9.560000e+02 1.527552e+00
9.570000e+02 2.450302e+00
9.580000e+02 3.821848e+00
9.590000e+02 4.052352e+00
9.600000e+02 1.069408e+00
9.610000e+02 4.349249e+00
9.620000e+02 4.560513e+00
9.630000e+02 4.755172e+00
9.640000e+02 9.580340e-01
9.650000e+02 4.754435e+00
9.660000e+02 5.357944e+00
9.670000e+02 5.503209e+00
9.680000e+02 5.772347e+00
9.690000e+02 6.000488e+00
9.700000e+02 6.258501e+00
9.710000e+02 6.457063e+00
9.720000e+02 6.270032e+00
9.730000e+02 6.383197e+00
9.740000e+02 7.214151e+00
9.750000e+02 7.604889e+00
9.760000e+02 7.917032e+00
9.770000e+02 8.247576e+00
9.780000e+02 8.550277e+00
9.790000e+02 8.916464e+00
9.800000e+02 9.262198e+00
9.810000e+02 9.630725e+00
9.820000e+02 9.996605e+00
9.830000e+02 1.039347e+01
9.840000e+02 5.938678e+00
9.850000e+02 1.121258e+01
9.860000e+02 1.165225e+01
9.870000e+02 1.210907e+01
9.880000e+02 1.247966e+01
9.890000e+02 1.213909e+01
9.900000e+02 3.493223e+00
9.910000e+02 1.395587e+01
9.920000e+02 1.261970e+01
9.930000e+02 1.431476e+01
9.940000e+02 3.925448e+00
9.950000e+02 6.988706e+00
9.960000e+02 1.680864e+01
9.970000e+02 4.828692e+00
9.980000e+02 1.826220e+01
9.990000e+02 1.864334e+01
1.000000e+03 1.969247e+01
1.001000e+03 2.044044e+01
1.002000e+03 2.120579e+01
1.003000e+03 2.171748e+01
1.004000e+03 2.270631e+01
1.005000e+03 2.311790e+01
1.006000e+03 2.454857e+01
1.007000e+03 2.533280e+01
1.008000e+03 2.630471e+01
1.009000e+03 2.718089e+01
1.010000e+03 2.837623e+01
1.011000e+03 2.941642e+01
1.012000e+03 3.049094e+01
1.013000e+03 3.160380e+01
1.014000e+03 3.195572e+01
1.015000e+03 3.358042e+01
1.016000e+03 3.511427e+01
1.017000e+03 3.562640e+01
1.018000e+03 3.766413e+01
1.019000e+03 3.877552e+01
1.020000e+03 4.036628e+01
1.021000e+03 1.968037e+01
1.022000e+03 3.814130e+01
1.023000e+03 4.371527e+01
1.024000e+03 3.146964e+01
1.025000e+03 3.500341e+01
1.026000e+03 2.054794e+01
1.027000e+03 3.941417e+01
1.028000e+03 1.741560e+01
1.029000e+03 5.359341e+01
1.030000e+03 5.468846e+01
1.031000e+03 5.922785e+01
1.032000e+03 5.974529e+01
1.033000e+03 3.003905e+01
1.034000e+03 6.606847e+01
1.035000e+03 2.074450e+01
1.036000e+03 5.895631e+01
1.037000e+03 5.790444e+01
1.038000e+03 7.598518e+01
1.039000e+03 7.808522e+01
1.040000e+03 8.139993e+01
1.041000e+03 8.207758e+01
1.042000e+03 8.713888e+01
1.043000e+03 8.595936e+01
1.044000e+03 9.329588e+01
1.045000e+03 9.644946e+01
1.046000e+03 9.989559e+01
1.047000e+03 1.033055e+02
1.048000e+03 1.065099e+02
1.049000e+03 1.045583e+02
1.050000e+03 1.142414e+02
1.051000e+03 1.181327e+02
1.052000e+03 1.222271e+02
1.053000e+03 1.261273e+02
1.054000e+03 1.242090e+02
1.055000e+03 1.073331e+02
1.056000e+03 1.396281e+02
1.057000e+03 1.443134e+02
1.058000e+03 1.491097e+02
1.059000e+03 1.540081e+02
1.060000e+03 1.588173e+02
1.061000e+03 1.646461e+02
1.062000e+03 1.700359e+02
1.063000e+03 6.176949e+01
1.064000e+03 5.650093e+01
1.065000e+03 1.847467e+02
1.066000e+03 1.021413e+02
1.067000e+03 1.994895e+02
1.068000e+03 2.069406e+02
1.069000e+03 2.001449e+02
1.070000e+03 2.205878e+02
1.071000e+03 2.280322e+02
1.072000e+03 2.354739e+02
1.073000e+03 2.405477e+02
1.074000e+03 2.510334e+02
1.075000e+03 2.591616e+02
1.076000e+03 2.675191e+02
1.077000e+03 2.714032e+02
1.078000e+03 2.850414e+02
1.079000e+03 2.941023e+02
1.080000e+03 3.037903e+02
1.081000e+03 3.135626e+02
1.082000e+03 3.234160e+02
1.083000e+03 3.338455e+02
1.084000e+03 3.445092e+02
1.085000e+03 2.480063e+02
1.086000e+03 3.666609e+02
1.087000e+03 3.776740e+02
1.088000e+03 3.890019e+02
1.089000e+03 4.023543e+02
1.090000e+03 4.147660e+02
1.091000e+03 4.231527e+02
1.092000e+03 4.409502e+02
1.093000e+03 4.546895e+02
1.094000e+03 4.691460e+02
1.095000e+03 4.836430e+02
1.096000e+03 4.974619e+02
1.097000e+03 4.533145e+02
1.098000e+03 4.760323e+02
1.099000e+03 5.460149e+02
1.100000e+03 4.396201e+02
1.101000e+03 5.351613e+02
1.102000e+03 1.113981e+03
1.103000e+03 3.186841e+03
1.104000e+03 1.631814e+03
1.105000e+03 6.022109e+02
1.106000e+03 1.023054e+04
1.107000e+03 8.215994e+03
1.108000e+03 9.414198e+03
1.109000e+03 4.472598e+03
1.110000e+03 4.573256e+03
1.111000e+03 1.432313e+03
1.112000e+03 7.880273e+03
1.113000e+03 1.202971e+04
1.114000e+03 5.623921e+02
1.115000e+03 1.171759e+04
1.116000e+03 1.206253e+04
1.117000e+03 7.117334e+02
1.118000e+03 6.923213e+03
1.119000e+03 1.360699e+04
1.120000e+03 1.336407e+04
1.121000e+03 1.382329e+04
1.122000e+03 3.728369e+02
1.123000e+03 1.007197e+03
1.124000e+03 1.515234e+04
1.125000e+03 1.081741e+04
1.126000e+03 1.588524e+04
1.127000e+03 1.552803e+04
1.128000e+03 9.937301e+03
1.129000e+03 1.614335e+04
1.130000e+03 9.751340e+03
1.131000e+03 1.774302e+04
1.132000e+03 8.701699e+02
1.133000e+03 1.524543e+04
1.134000e+03 1.379146e+04
1.135000e+03 6.126572e+02
1.136000e+03 1.952255e+04
1.137000e+03 2.021593e+04
1.138000e+03 2.061571e+04
1.139000e+03 2.053846e+04
1.140000e+03 7.508574e+02
1.141000e+03 2.206922e+04
1.142000e+03 2.254395e+04
1.143000e+03 2.297352e+04
1.144000e+03 2.355360e+04
1.145000e+03 1.790039e+04
1.146000e+03 2.460666e+04
1.147000e+03 2.469421e+04
1.148000e+03 2.480809e+04
1.149000e+03 2.619710e+04
1.150000e+03 2.675270e+04
1.151000e+03 2.718450e+04
1.152000e+03 2.803875e+04
1.153000e+03 1.324312e+04
1.154000e+03 1.810245e+04
1.155000e+03 2.876186e+04
1.156000e+03 2.808414e+03
1.157000e+03 3.105913e+04
1.158000e+03 1.246731e+03
1.159000e+03 1.882782e+04
1.160000e+03 3.296955e+04
1.161000e+03 3.399813e+04
1.162000e+03 1.142215e+04
1.163000e+03 3.524953e+04
1.164000e+03 1.669848e+03
1.165000e+03 3.708475e+04
1.166000e+03 3.798905e+04
1.167000e+03 3.895704e+04
1.168000e+03 3.999321e+04
1.169000e+03 3.579905e+04
1.170000e+03 4.198505e+04
1.171000e+03 4.318009e+04
1.172000e+03 4.418614e+04
1.173000e+03 4.535999e+04
1.174000e+03 4.448323e+04
1.175000e+03 2.244820e+03
1.176000e+03 2.121176e+03
1.177000e+03 4.993712e+04
1.178000e+03 5.082191e+04
1.179000e+03 5.231800e+04
1.180000e+03 4.705986e+04
1.181000e+03 5.469314e+04
1.182000e+03 5.637201e+04
1.183000e+03 5.758693e+04
1.184000e+03 5.879052e+04
1.185000e+03 5.988162e+04
1.186000e+03 6.054069e+04
1.187000e+03 6.241344e+04
1.188000e+03 6.338168e+04
1.189000e+03 3.076227e+03
1.190000e+03 5.709582e+03
1.191000e+03 6.562344e+04
1.192000e+03 6.640534e+04
1.193000e+03 3.029047e+03
1.194000e+03 3.633285e+03
1.195000e+03 6.195582e+04
1.196000e+03 6.978691e+04
1.197000e+03 1.278890e+05
1.198000e+03 1.273632e+05
1.199000e+03 1.240134e+05
1.200000e+03 1.077582e+05
1.201000e+03 1.142677e+05
1.202000e+03 1.125616e+05
1.203000e+03 1.618500e+05
1.204000e+03 1.417214e+05
1.205000e+03 1.257139e+05
1.206000e+03 1.188672e+05
1.207000e+03 1.061326e+04
1.208000e+03 7.748025e+04
1.209000e+03 5.598834e+04
1.210000e+03 5.596727e+03
1.211000e+03 3.052813e+04
1.212000e+03 1.901259e+04
1.213000e+03 1.277818e+04
1.214000e+03 8.375496e+03
1.215000e+03 6.408889e+03
1.216000e+03 6.086629e+03
1.217000e+03 8.012730e+03
1.218000e+03 1.236564e+04
1.219000e+03 2.051138e+04
1.220000e+03 3.312024e+04
1.221000e+03 5.054867e+04
1.222000e+03 7.307030e+04
1.223000e+03 9.983836e+04
1.224000e+03 1.340307e+05
1.225000e+03 1.703770e+05
1.226000e+03 2.166832e+05
1.227000e+03 2.519169e+05
1.228000e+03 3.185481e+05
1.229000e+03 3.780245e+05
1.230000e+03 3.177012e+05
1.231000e+03 4.970409e+05
1.232000e+03 5.710426e+05
1.233000e+03 6.431236e+05
1.234000e+03 3.337763e+05
1.235000e+03 7.886066e+05
1.236000e+03 8.516877e+05
1.237000e+03 9.372839e+05
1.238000e+03 1.013169e+06
1.239000e+03 1.087095e+06
1.240000e+03 9.864313e+05
1.241000e+03 1.704886e+06
1.242000e+03 1.141115e+06
1.243000e+03 1.574114e+06
1.244000e+03 7.827325e+05
1.245000e+03 1.142082e+06
1.246000e+03 2.669022e+06
1.247000e+03 2.687576e+06
1.248000e+03 8.331174e+05
1.249000e+03 1.087134e+06
1.250000e+03 3.293428e+06
1.251000e+03 3.534494e+06
1.252000e+03 3.678621e+06
1.253000e+03 3.894935e+06
1.254000e+03 4.055429e+06
1.255000e+03 3.943827e+06
1.256000e+03 4.314174e+06
1.257000e+03 4.496720e+06
1.258000e+03 4.601389e+06
1.259000e+03 4.692896e+06
1.260000e+03 3.439639e+06
1.261000e+03 1.920199e+04
1.262000e+03 5.608363e+05
1.263000e+03 5.095317e+06
1.264000e+03 4.647120e+06
1.265000e+03 2.039581e+04
1.266000e+03 5.759332e+06
1.267000e+03 6.227184e+06
