# wavelength_A flux
5.000000e+02 3.851147e-40
5.010000e+02 5.058197e-40
5.020000e+02 6.636213e-40
5.030000e+02 8.696963e-40
5.040000e+02 1.138519e-39
5.050000e+02 1.489202e-39
5.060000e+02 1.945274e-39
5.070000e+02 2.538283e-39
5.080000e+02 3.308557e-39
5.090000e+02 4.307998e-39
5.100000e+02 5.602278e-39
5.110000e+02 7.280791e-39
5.120000e+02 9.450365e-39
5.130000e+02 1.225384e-38
5.140000e+02 1.587257e-38
5.150000e+02 2.053893e-38
5.160000e+02 2.655011e-38
5.170000e+02 3.428593e-38
5.180000e+02 4.423119e-38
5.190000e+02 5.700423e-38
5.200000e+02 7.339287e-38
5.210000e+02 9.439989e-38
5.220000e+02 1.213003e-37
5.230000e+02 1.557145e-37
5.240000e+02 1.996982e-37
5.250000e+02 2.558583e-37
5.260000e+02 3.274976e-37
5.270000e+02 4.187955e-37
5.280000e+02 5.350369e-37
5.290000e+02 6.828974e-37
5.300000e+02 8.708026e-37
5.310000e+02 1.109376e-36
5.320000e+02 1.412000e-36
5.330000e+02 1.795520e-36
5.340000e+02 2.281115e-36
5.350000e+02 2.895396e-36
5.360000e+02 3.671765e-36
5.370000e+02 4.651901e-36
5.380000e+02 5.888921e-36
5.390000e+02 7.447904e-36
5.400000e+02 9.411247e-36
5.410000e+02 1.188166e-35
5.420000e+02 1.498741e-35
5.430000e+02 1.888848e-35
5.440000e+02 2.378431e-35
5.450000e+02 2.992332e-35
5.460000e+02 3.761459e-35
5.470000e+02 4.724245e-35
5.480000e+02 5.928436e-35
5.490000e+02 7.433295e-35
5.500000e+02 9.312328e-35
5.510000e+02 1.165662e-34
5.520000e+02 1.457897e-34
5.530000e+02 1.821891e-34
5.540000e+02 2.274895e-34
5.550000e+02 2.838219e-34
5.560000e+02 3.538162e-34
5.570000e+02 4.407161e-34
5.580000e+02 5.485184e-34
5.590000e+02 6.821447e-34
5.600000e+02 8.476504e-34
5.610000e+02 1.052480e-33
5.620000e+02 1.305779e-33
5.630000e+02 1.618772e-33
5.640000e+02 2.005229e-33
5.650000e+02 2.482027e-33
5.660000e+02 3.069833e-33
5.670000e+02 3.793943e-33
5.680000e+02 4.685286e-33
5.690000e+02 5.781662e-33
5.700000e+02 7.129222e-33
5.710000e+02 8.784280e-33
5.720000e+02 1.081550e-32
5.730000e+02 1.330654e-32
5.740000e+02 1.635925e-32
5.750000e+02 2.009755e-32
5.760000e+02 2.467208e-32
5.770000e+02 3.026589e-32
5.780000e+02 3.710115e-32
5.790000e+02 4.544744e-32
5.800000e+02 5.563154e-32
5.810000e+02 6.804936e-32
5.820000e+02 8.318019e-32
5.830000e+02 1.016039e-31
5.840000e+02 1.240214e-31
5.850000e+02 1.512797e-31
5.860000e+02 1.844012e-31
5.870000e+02 2.246197e-31
5.880000e+02 2.734223e-31
5.890000e+02 3.326013e-31
5.900000e+02 4.043145e-31
5.910000e+02 4.911583e-31
5.920000e+02 5.962548e-31
5.930000e+02 7.233562e-31
5.940000e+02 8.769679e-31
5.950000e+02 1.062498e-30
5.960000e+02 1.286431e-30
5.970000e+02 1.556541e-30
5.980000e+02 1.882139e-30
5.990000e+02 2.274372e-30
6.000000e+02 2.746573e-30
6.010000e+02 3.314684e-30
6.020000e+02 3.997752e-30
6.030000e+02 4.818521e-30
6.040000e+02 5.804129e-30
6.050000e+02 6.986944e-30
6.060000e+02 8.405543e-30
6.070000e+02 1.010587e-29
6.080000e+02 1.214263e-29
6.090000e+02 1.458089e-29
6.100000e+02 1.749802e-29
6.110000e+02 2.098595e-29
6.120000e+02 2.515386e-29
6.130000e+02 3.013132e-29
6.140000e+02 3.607201e-29
6.150000e+02 4.315815e-29
6.160000e+02 5.160557e-29
6.170000e+02 6.166987e-29
6.180000e+02 7.365349e-29
6.190000e+02 8.791415e-29
6.200000e+02 1.048747e-28
6.210000e+02 1.250346e-28
6.220000e+02 1.489836e-28
6.230000e+02 1.774177e-28
6.240000e+02 2.111575e-28
6.250000e+02 2.511705e-28
6.260000e+02 2.985963e-28
6.270000e+02 3.547768e-28
6.280000e+02 4.212907e-28
6.290000e+02 4.999952e-28
6.300000e+02 5.930730e-28
6.310000e+02 7.030886e-28
6.320000e+02 8.330530e-28
6.330000e+02 9.864998e-28
6.340000e+02 1.167574e-27
6.350000e+02 1.381134e-27
6.360000e+02 1.632873e-27
6.370000e+02 1.929459e-27
6.380000e+02 2.278694e-27
6.390000e+02 2.689707e-27
6.400000e+02 3.173171e-27
6.410000e+02 3.741561e-27
6.420000e+02 4.409445e-27
6.430000e+02 5.193833e-27
6.440000e+02 6.114569e-27
6.450000e+02 7.194801e-27
6.460000e+02 8.461508e-27
6.470000e+02 9.946124e-27
6.480000e+02 1.168525e-26
6.490000e+02 1.372150e-26
6.500000e+02 1.610442e-26
6.510000e+02 1.889165e-26
6.520000e+02 2.215016e-26
6.530000e+02 2.595775e-26
6.540000e+02 3.040476e-26
6.550000e+02 3.559601e-26
6.560000e+02 4.165309e-26
6.570000e+02 4.871699e-26
6.580000e+02 5.695106e-26
6.590000e+02 6.654453e-26
6.600000e+02 7.771646e-26
6.610000e+02 9.072035e-26
6.620000e+02 1.058494e-25
6.630000e+02 1.234427e-25
6.640000e+02 1.438918e-25
6.650000e+02 1.676492e-25
6.660000e+02 1.952374e-25
6.670000e+02 2.272590e-25
6.680000e+02 2.644093e-25
6.690000e+02 3.074901e-25
6.700000e+02 3.574250e-25
6.710000e+02 4.152781e-25
6.720000e+02 4.822747e-25
6.730000e+02 5.598247e-25
6.740000e+02 6.495502e-25
6.750000e+02 7.533162e-25
6.760000e+02 8.732664e-25
6.770000e+02 1.011863e-24
6.780000e+02 1.171935e-24
6.790000e+02 1.356727e-24
6.800000e+02 1.569964e-24
6.810000e+02 1.815918e-24
6.820000e+02 2.099484e-24
6.830000e+02 2.426274e-24
6.840000e+02 2.802714e-24
6.850000e+02 3.236161e-24
6.860000e+02 3.735036e-24
6.870000e+02 4.308970e-24
6.880000e+02 4.968980e-24
6.890000e+02 5.727654e-24
6.900000e+02 6.599374e-24
6.910000e+02 7.600571e-24
6.920000e+02 8.749995e-24
6.930000e+02 1.006905e-23
6.940000e+02 1.158213e-23
6.950000e+02 1.331709e-23
6.960000e+02 1.530564e-23
6.970000e+02 1.758392e-23
6.980000e+02 2.019309e-23
6.990000e+02 2.318001e-23
7.000000e+02 2.659798e-23
7.010000e+02 3.050766e-23
7.020000e+02 3.497800e-23
7.030000e+02 4.008739e-23
7.040000e+02 4.592488e-23
7.050000e+02 5.259159e-23
7.060000e+02 6.020236e-23
7.070000e+02 6.888748e-23
7.080000e+02 7.879478e-23
7.090000e+02 9.009187e-23
7.100000e+02 1.029688e-22
7.110000e+02 1.176408e-22
7.120000e+02 1.343519e-22
7.130000e+02 1.533781e-22
7.140000e+02 1.750320e-22
7.150000e+02 1.996673e-22
7.160000e+02 2.276840e-22
7.170000e+02 2.595342e-22
7.180000e+02 2.957292e-22
7.190000e+02 3.368464e-22
7.200000e+02 3.835380e-22
7.210000e+02 4.365402e-22
7.220000e+02 4.966840e-22
7.230000e+02 5.649070e-22
7.240000e+02 6.422663e-22
7.250000e+02 7.299539e-22
7.260000e+02 8.293130e-22
7.270000e+02 9.418569e-22
7.280000e+02 1.069290e-21
7.290000e+02 1.213531e-21
7.300000e+02 1.376738e-21
7.310000e+02 1.561342e-21
7.320000e+02 1.770073e-21
7.330000e+02 2.006003e-21
7.340000e+02 2.272585e-21
7.350000e+02 2.573695e-21
7.360000e+02 2.913688e-21
7.370000e+02 3.297455e-21
7.380000e+02 3.730484e-21
7.390000e+02 4.218930e-21
7.400000e+02 4.769701e-21
7.410000e+02 5.390539e-21
7.420000e+02 6.090123e-21
7.430000e+02 6.878176e-21
7.440000e+02 7.765592e-21
7.450000e+02 8.764566e-21
7.460000e+02 9.888752e-21
7.470000e+02 1.115343e-20
7.480000e+02 1.257568e-20
7.490000e+02 1.417463e-20
7.500000e+02 1.597163e-20
7.510000e+02 1.799058e-20
7.520000e+02 2.025814e-20
7.530000e+02 2.280411e-20
7.540000e+02 2.566177e-20
7.550000e+02 2.886825e-20
7.560000e+02 3.246498e-20
7.570000e+02 3.649820e-20
7.580000e+02 4.101943e-20
7.590000e+02 4.608616e-20
7.600000e+02 5.176241e-20
7.610000e+02 5.811953e-20
7.620000e+02 6.523699e-20
7.630000e+02 7.320328e-20
7.640000e+02 8.211688e-20
7.650000e+02 9.208738e-20
7.660000e+02 1.032367e-19
7.670000e+02 1.157005e-19
7.680000e+02 1.296294e-19
7.690000e+02 1.451910e-19
7.700000e+02 1.625715e-19
7.710000e+02 1.819777e-19
7.720000e+02 2.036392e-19
7.730000e+02 2.278109e-19
7.740000e+02 2.547758e-19
7.750000e+02 2.848477e-19
7.760000e+02 3.183750e-19
7.770000e+02 3.557436e-19
7.780000e+02 3.973816e-19
7.790000e+02 4.437634e-19
7.800000e+02 4.954143e-19
7.810000e+02 5.529167e-19
7.820000e+02 6.169150e-19
7.830000e+02 6.881228e-19
7.840000e+02 7.673296e-19
7.850000e+02 8.554091e-19
7.860000e+02 9.533277e-19
7.870000e+02 1.062154e-18
7.880000e+02 1.183069e-18
7.890000e+02 1.317378e-18
7.900000e+02 1.466524e-18
7.910000e+02 1.632099e-18
7.920000e+02 1.815863e-18
7.930000e+02 2.019758e-18
7.940000e+02 2.245928e-18
7.950000e+02 2.496738e-18
7.960000e+02 2.774796e-18
7.970000e+02 3.082979e-18
7.980000e+02 3.424461e-18
7.990000e+02 3.802735e-18
8.000000e+02 4.221656e-18
8.010000e+02 4.685468e-18
8.020000e+02 5.198844e-18
8.030000e+02 5.766931e-18
8.040000e+02 6.395394e-18
8.050000e+02 7.090468e-18
8.060000e+02 7.859012e-18
8.070000e+02 8.708572e-18
8.080000e+02 9.647444e-18
8.090000e+02 1.068475e-17
8.100000e+02 1.183051e-17
8.110000e+02 1.309575e-17
8.120000e+02 1.449256e-17
8.130000e+02 1.603424e-17
8.140000e+02 1.773538e-17
8.150000e+02 1.961200e-17
8.160000e+02 2.168168e-17
8.170000e+02 2.396371e-17
8.180000e+02 2.647925e-17
8.190000e+02 2.925151e-17
8.200000e+02 3.230592e-17
8.210000e+02 3.567037e-17
8.220000e+02 3.937542e-17
8.230000e+02 4.345455e-17
8.240000e+02 4.794444e-17
8.250000e+02 5.288525e-17
8.260000e+02 5.832094e-17
8.270000e+02 6.429963e-17
8.280000e+02 7.087401e-17
8.290000e+02 7.810167e-17
8.300000e+02 8.604563e-17
8.310000e+02 9.477481e-17
8.320000e+02 1.043646e-16
8.330000e+02 1.148972e-16
8.340000e+02 1.264628e-16
8.350000e+02 1.391596e-16
8.360000e+02 1.530950e-16
8.370000e+02 1.683862e-16
8.380000e+02 1.851614e-16
8.390000e+02 2.035602e-16
8.400000e+02 2.237353e-16
8.410000e+02 2.458528e-16
8.420000e+02 2.700945e-16
8.430000e+02 2.966581e-16
8.440000e+02 3.257595e-16
8.450000e+02 3.576340e-16
8.460000e+02 3.925379e-16
8.470000e+02 4.307506e-16
8.480000e+02 4.725763e-16
8.490000e+02 5.183466e-16
8.500000e+02 5.684222e-16
8.510000e+02 6.231961e-16
8.520000e+02 6.830958e-16
8.530000e+02 7.485866e-16
8.540000e+02 8.201748e-16
8.550000e+02 8.984109e-16
8.560000e+02 9.838937e-16
8.570000e+02 1.077274e-15
8.580000e+02 1.179260e-15
8.590000e+02 1.290621e-15
8.600000e+02 1.412191e-15
8.610000e+02 1.544879e-15
8.620000e+02 1.689672e-15
8.630000e+02 1.847638e-15
8.640000e+02 2.019941e-15
8.650000e+02 2.207843e-15
8.660000e+02 2.412712e-15
8.670000e+02 2.636034e-15
8.680000e+02 2.879421e-15
8.690000e+02 3.144619e-15
8.700000e+02 3.433524e-15
8.710000e+02 3.748190e-15
8.720000e+02 4.090845e-15
8.730000e+02 4.463900e-15
8.740000e+02 4.869971e-15
8.750000e+02 5.311889e-15
8.760000e+02 5.792721e-15
8.770000e+02 6.315789e-15
8.780000e+02 6.884689e-15
8.790000e+02 7.503311e-15
8.800000e+02 8.175867e-15
8.810000e+02 8.906915e-15
8.820000e+02 9.701383e-15
8.830000e+02 1.056460e-14
8.840000e+02 1.150234e-14
8.850000e+02 1.252082e-14
8.860000e+02 1.362679e-14
8.870000e+02 1.482753e-14
8.880000e+02 1.613089e-14
8.890000e+02 1.754539e-14
8.900000e+02 1.908020e-14
8.910000e+02 2.074524e-14
8.920000e+02 2.255120e-14
8.930000e+02 2.450964e-14
8.940000e+02 2.663304e-14
8.950000e+02 2.893484e-14
8.960000e+02 3.142956e-14
8.970000e+02 3.413287e-14
8.980000e+02 3.706165e-14
8.990000e+02 4.023412e-14
9.000000e+02 4.366991e-14
9.010000e+02 4.739019e-14
9.020000e+02 5.141776e-14
9.030000e+02 5.577720e-14
9.040000e+02 6.049500e-14
9.050000e+02 6.559967e-14
9.060000e+02 7.112192e-14
9.070000e+02 7.709484e-14
9.080000e+02 8.355401e-14
9.090000e+02 9.053778e-14
9.100000e+02 9.808737e-14
9.110000e+02 1.062472e-13
9.120000e+02 1.150649e-13
9.130000e+02 1.245920e-13
9.140000e+02 1.387293e-13
9.150000e+02 2.740985e-11
9.160000e+02 2.078392e-10
9.170000e+02 2.773667e-11
9.180000e+02 3.614447e-11
9.190000e+02 6.283912e-10
9.200000e+02 1.922966e-09
9.210000e+02 2.339233e-13
9.220000e+02 2.487383e-09
9.230000e+02 1.209127e-11
9.240000e+02 5.452350e-11
9.250000e+02 9.713922e-10
9.260000e+02 5.677238e-11
9.270000e+02 5.807758e-11
9.280000e+02 1.419999e-08
9.290000e+02 1.341510e-08
9.300000e+02 2.583951e-09
9.310000e+02 3.164822e-11
9.320000e+02 1.056583e-08
9.330000e+02 9.566711e-09
9.340000e+02 2.805868e-09
9.350000e+02 2.201789e-11
9.360000e+02 2.860259e-10
9.370000e+02 7.567572e-12
9.380000e+02 1.356728e-11
9.390000e+02 9.266665e-10
9.400000e+02 2.773717e-08
9.410000e+02 1.282218e-09
9.420000e+02 5.356704e-08
9.430000e+02 2.082178e-09
9.440000e+02 6.198226e-08
9.450000e+02 6.102579e-08
9.460000e+02 2.789786e-08
9.470000e+02 1.834977e-11
9.480000e+02 1.670441e-08
9.490000e+02 1.369893e-09
9.500000e+02 1.643931e-11
9.510000e+02 7.724367e-09
9.520000e+02 3.179117e-08
9.530000e+02 3.614637e-10
9.540000e+02 2.083922e-11
9.550000e+02 4.597695e-09
9.560000e+02 9.834396e-08
9.570000e+02 1.285294e-09
9.580000e+02 8.210321e-12
9.590000e+02 1.118469e-07
9.600000e+02 5.441514e-11
9.610000e+02 7.271598e-08
9.620000e+02 2.861212e-08
9.630000e+02 1.827658e-09
9.640000e+02 4.172698e-10
9.650000e+02 7.621281e-11
9.660000e+02 5.465765e-09
9.670000e+02 6.053256e-10
9.680000e+02 4.100968e-10
9.690000e+02 2.705370e-08
9.700000e+02 3.776606e-08
9.710000e+02 9.295059e-10
9.720000e+02 1.452748e-10
9.730000e+02 2.905616e-10
9.740000e+02 1.289158e-08
9.750000e+02 1.120337e-08
9.760000e+02 1.713951e-07
9.770000e+02 1.836474e-07
9.780000e+02 1.227339e-07
9.790000e+02 4.570425e-07
9.800000e+02 5.011050e-07
9.810000e+02 8.005958e-08
9.820000e+02 1.095648e-08
9.830000e+02 6.273862e-07
9.840000e+02 1.143997e-08
9.850000e+02 3.013380e-08
9.860000e+02 4.345484e-08
9.870000e+02 7.681735e-07
9.880000e+02 3.083755e-10
9.890000e+02 4.305089e-07
9.900000e+02 5.740010e-07
9.910000e+02 1.262099e-08
9.920000e+02 7.221246e-11
9.930000e+02 9.614240e-07
9.940000e+02 6.505729e-11
9.950000e+02 3.545262e-08
9.960000e+02 1.687908e-09
9.970000e+02 8.343441e-09
9.980000e+02 1.039987e-06
9.990000e+02 1.834944e-08
1.000000e+03 1.865586e-06
1.001000e+03 1.616464e-06
1.002000e+03 1.970873e-06
1.003000e+03 1.853940e-08
1.004000e+03 4.956746e-10
1.005000e+03 1.090305e-07
1.006000e+03 2.162773e-06
1.007000e+03 2.503282e-06
1.008000e+03 1.962280e-06
1.009000e+03 2.394993e-08
1.010000e+03 1.924869e-06
1.011000e+03 1.961414e-06
1.012000e+03 2.442119e-06
1.013000e+03 2.425742e-06
1.014000e+03 3.129799e-10
1.015000e+03 1.168473e-09
1.016000e+03 1.274182e-07
1.017000e+03 2.607976e-10
1.018000e+03 2.688171e-08
1.019000e+03 1.014314e-09
1.020000e+03 1.767303e-06
1.021000e+03 5.068841e-08
1.022000e+03 8.853283e-08
1.023000e+03 3.613906e-09
1.024000e+03 8.649196e-08
1.025000e+03 3.683867e-10
1.026000e+03 4.792856e-10
1.027000e+03 3.749796e-08
1.028000e+03 2.583107e-09
1.029000e+03 6.090204e-10
1.030000e+03 4.521729e-07
1.031000e+03 1.710947e-06
1.032000e+03 6.008450e-06
1.033000e+03 3.384866e-08
1.034000e+03 2.136504e-06
1.035000e+03 1.617082e-09
1.036000e+03 1.365152e-09
1.037000e+03 1.874025e-05
1.038000e+03 3.705696e-05
1.039000e+03 2.444228e-05
1.040000e+03 1.817138e-05
1.041000e+03 4.534714e-05
1.042000e+03 4.806986e-05
1.043000e+03 3.162625e-05
1.044000e+03 7.044741e-05
1.045000e+03 2.146385e-09
1.046000e+03 2.143918e-05
1.047000e+03 1.054224e-05
1.048000e+03 6.644041e-08
1.049000e+03 9.025644e-06
1.050000e+03 1.182751e-06
1.051000e+03 4.892136e-07
1.052000e+03 8.309528e-05
1.053000e+03 9.890721e-05
1.054000e+03 3.015884e-09
1.055000e+03 9.764721e-05
1.056000e+03 1.150429e-04
1.057000e+03 3.093680e-05
1.058000e+03 4.937510e-07
1.059000e+03 2.763700e-07
1.060000e+03 9.196810e-08
1.061000e+03 7.586678e-05
1.062000e+03 2.369434e-07
1.063000e+03 1.452139e-06
1.064000e+03 5.369657e-09
1.065000e+03 5.326001e-09
1.066000e+03 6.964459e-05
1.067000e+03 4.897958e-07
1.068000e+03 2.267950e-04
1.069000e+03 8.267449e-08
1.070000e+03 8.912582e-06
1.071000e+03 1.677999e-04
1.072000e+03 2.824167e-04
1.073000e+03 1.398439e-08
1.074000e+03 4.922204e-05
1.075000e+03 2.617153e-05
1.076000e+03 2.287681e-04
1.077000e+03 1.367516e-07
1.078000e+03 7.640629e-07
1.079000e+03 5.877153e-06
1.080000e+03 3.812323e-05
1.081000e+03 2.567527e-04
1.082000e+03 1.542546e-04
1.083000e+03 7.898218e-05
1.084000e+03 4.922932e-04
1.085000e+03 1.077401e-05
1.086000e+03 5.052321e-04
1.087000e+03 1.344655e-06
1.088000e+03 5.917009e-04
1.089000e+03 6.225481e-04
1.090000e+03 8.152227e-06
1.091000e+03 1.630170e-05
1.092000e+03 6.626691e-04
1.093000e+03 7.287799e-04
1.094000e+03 1.468836e-04
1.095000e+03 8.201267e-04
1.096000e+03 1.542197e-05
1.097000e+03 7.046262e-04
1.098000e+03 8.416054e-04
1.099000e+03 3.348000e-05
1.100000e+03 2.167799e-07
1.101000e+03 7.797717e-07
1.102000e+03 2.730247e-05
1.103000e+03 1.132601e-03
1.104000e+03 1.156723e-03
1.105000e+03 1.239557e-03
1.106000e+03 1.918272e-04
1.107000e+03 5.965121e-07
1.108000e+03 1.021192e-03
1.109000e+03 1.271686e-05
1.110000e+03 1.473337e-03
1.111000e+03 1.332820e-03
1.112000e+03 6.761303e-04
1.113000e+03 1.028615e-03
1.114000e+03 3.463357e-04
1.115000e+03 1.151059e-05
1.116000e+03 2.556229e-06
1.117000e+03 1.874778e-03
1.118000e+03 2.376700e-05
1.119000e+03 6.743467e-04
1.120000e+03 5.623209e-06
1.121000e+03 1.900490e-03
1.122000e+03 2.739922e-03
1.123000e+03 3.189662e-03
1.124000e+03 3.950384e-03
1.125000e+03 2.855628e-03
1.126000e+03 3.660955e-03
1.127000e+03 2.685636e-03
1.128000e+03 2.330924e-03
1.129000e+03 1.625771e-03
1.130000e+03 2.683439e-03
1.131000e+03 2.048084e-03
1.132000e+03 1.007202e-05
1.133000e+03 2.234241e-04
1.134000e+03 1.830708e-03
1.135000e+03 1.915233e-03
1.136000e+03 3.871290e-04
1.137000e+03 1.854909e-03
1.138000e+03 1.483816e-03
1.139000e+03 2.214939e-03
1.140000e+03 2.089392e-03
1.141000e+03 2.121186e-03
1.142000e+03 2.146797e-03
1.143000e+03 1.307374e-03
1.144000e+03 2.098391e-03
1.145000e+03 5.829614e-06
1.146000e+03 2.248932e-03
1.147000e+03 2.264399e-03
1.148000e+03 7.704832e-05
1.149000e+03 2.123401e-03
1.150000e+03 2.120456e-03
1.151000e+03 2.190867e-03
1.152000e+03 2.024924e-03
1.153000e+03 2.117476e-03
1.154000e+03 2.084124e-03
1.155000e+03 1.971344e-03
1.156000e+03 1.541729e-03
1.157000e+03 1.916966e-03
1.158000e+03 1.440129e-03
1.159000e+03 1.986589e-03
1.160000e+03 1.648133e-03
1.161000e+03 1.827357e-03
1.162000e+03 3.319810e-04
1.163000e+03 9.895534e-04
1.164000e+03 3.948924e-06
1.165000e+03 1.027918e-03
1.166000e+03 5.390357e-04
1.167000e+03 3.535338e-04
1.168000e+03 2.095317e-03
1.169000e+03 2.134536e-03
1.170000e+03 3.676201e-04
1.171000e+03 9.557233e-04
1.172000e+03 7.580391e-04
1.173000e+03 6.552323e-04
1.174000e+03 4.210346e-05
1.175000e+03 3.523426e-06
1.176000e+03 1.467706e-06
1.177000e+03 2.776827e-03
1.178000e+03 2.623305e-03
1.179000e+03 2.489356e-03
1.180000e+03 2.239393e-03
1.181000e+03 2.252451e-03
1.182000e+03 2.183779e-03
1.183000e+03 2.013837e-03
1.184000e+03 1.932042e-03
1.185000e+03 1.878970e-03
1.186000e+03 2.352093e-04
1.187000e+03 1.821278e-03
1.188000e+03 1.665677e-03
1.189000e+03 1.749767e-03
1.190000e+03 1.703538e-03
1.191000e+03 1.607251e-03
1.192000e+03 1.456771e-03
1.193000e+03 1.443259e-03
1.194000e+03 1.401131e-03
1.195000e+03 1.340599e-03
1.196000e+03 2.526189e-02
1.197000e+03 2.397440e-02
1.198000e+03 1.261601e-03
1.199000e+03 2.011559e-02
1.200000e+03 5.010301e-03
1.201000e+03 1.567040e-02
1.202000e+03 1.239815e-02
1.203000e+03 1.136649e-02
1.204000e+03 4.352042e-03
1.205000e+03 7.385539e-03
1.206000e+03 5.683319e-03
1.207000e+03 7.094697e-04
1.208000e+03 2.628759e-03
1.209000e+03 1.917492e-03
1.210000e+03 8.322997e-06
1.211000e+03 6.741408e-04
1.212000e+03 3.276174e-04
1.213000e+03 1.348664e-04
1.214000e+03 3.867005e-05
1.215000e+03 8.074614e-06
1.216000e+03 7.328196e-06
1.217000e+03 2.503776e-05
1.218000e+03 1.119313e-04
1.219000e+03 3.218887e-04
1.220000e+03 6.944604e-04
1.221000e+03 1.468864e-03
1.222000e+03 2.645906e-03
1.223000e+03 4.176739e-03
1.224000e+03 5.922944e-03
1.225000e+03 1.832791e-03
1.226000e+03 1.314564e-02
1.227000e+03 1.819621e-02
1.228000e+03 1.553568e-02
1.229000e+03 2.980868e-02
1.230000e+03 2.777282e-02
1.231000e+03 1.169673e-02
1.232000e+03 5.171781e-02
1.233000e+03 6.073183e-02
1.234000e+03 5.740392e-02
1.235000e+03 7.822058e-02
1.236000e+03 4.695343e-02
1.237000e+03 9.714118e-02
1.238000e+03 1.067126e-01
1.239000e+03 1.064570e-01
1.240000e+03 1.767014e-02
1.241000e+03 1.156275e-01
1.242000e+03 1.439494e-01
1.243000e+03 1.552704e-01
1.244000e+03 1.658618e-01
1.245000e+03 1.741516e-01
1.246000e+03 1.771729e-01
1.247000e+03 1.911149e-01
1.248000e+03 1.516643e-01
1.249000e+03 2.130487e-01
1.250000e+03 1.780593e-01
1.251000e+03 2.337644e-01
1.252000e+03 2.306933e-01
1.253000e+03 2.474215e-01
1.254000e+03 2.444105e-01
1.255000e+03 5.363291e-02
1.256000e+03 2.142128e-01
1.257000e+03 1.492819e-01
1.258000e+03 2.474814e-01
1.259000e+03 2.650023e-01
1.260000e+03 2.896127e-01
1.261000e+03 4.967004e-03
1.262000e+03 3.011093e-01
1.263000e+03 2.839691e-01
1.264000e+03 2.745068e-01
1.265000e+03 2.220922e-01
1.266000e+03 3.643007e-01
1.267000e+03 3.805071e-01
