# wavelength_A flux
5.000000e+02 2.873667e-32
5.010000e+02 3.596005e-32
5.020000e+02 4.495939e-32
5.030000e+02 5.616160e-32
5.040000e+02 7.009496e-32
5.050000e+02 2.044755e-31
5.060000e+02 2.535980e-31
5.070000e+02 3.142643e-31
5.080000e+02 3.891269e-31
5.090000e+02 4.814335e-31
5.100000e+02 5.951571e-31
5.110000e+02 7.351936e-31
5.120000e+02 9.074115e-31
5.130000e+02 1.119087e-30
5.140000e+02 1.379056e-30
5.150000e+02 1.698038e-30
5.160000e+02 2.089313e-30
5.170000e+02 2.568403e-30
5.180000e+02 3.155595e-30
5.190000e+02 3.873647e-30
5.200000e+02 4.751428e-30
5.210000e+02 5.823407e-30
5.220000e+02 7.106360e-30
5.230000e+02 8.728146e-30
5.240000e+02 1.067650e-29
5.250000e+02 1.304772e-29
5.260000e+02 1.593349e-29
5.270000e+02 1.944320e-29
5.280000e+02 2.370876e-29
5.290000e+02 2.886834e-29
5.300000e+02 3.517633e-29
5.310000e+02 4.280110e-29
5.320000e+02 5.204161e-29
5.330000e+02 6.323217e-29
5.340000e+02 7.677636e-29
5.350000e+02 9.315100e-29
5.360000e+02 1.129144e-28
5.370000e+02 8.985633e-29
5.380000e+02 1.656458e-28
5.390000e+02 2.005047e-28
5.400000e+02 2.424620e-28
5.410000e+02 2.926829e-28
5.420000e+02 3.537946e-28
5.430000e+02 4.269584e-28
5.440000e+02 5.148928e-28
5.450000e+02 6.205274e-28
5.460000e+02 7.468527e-28
5.470000e+02 8.994861e-28
5.480000e+02 1.081899e-27
5.490000e+02 1.300466e-27
5.500000e+02 1.562183e-27
5.510000e+02 1.875371e-27
5.520000e+02 2.249916e-27
5.530000e+02 2.697559e-27
5.540000e+02 3.232230e-27
5.550000e+02 3.870499e-27
5.560000e+02 4.631868e-27
5.570000e+02 5.539577e-27
5.580000e+02 6.621092e-27
5.590000e+02 7.908912e-27
5.600000e+02 9.441463e-27
5.610000e+02 1.126416e-26
5.620000e+02 1.343063e-26
5.630000e+02 1.600419e-26
5.640000e+02 1.905953e-26
5.650000e+02 2.268469e-26
5.660000e+02 2.698344e-26
5.670000e+02 3.207805e-26
5.680000e+02 3.811218e-26
5.690000e+02 4.525510e-26
5.700000e+02 5.370631e-26
5.710000e+02 6.369832e-26
5.720000e+02 7.550609e-26
5.730000e+02 8.945174e-26
5.740000e+02 1.059131e-25
5.750000e+02 1.254018e-25
5.760000e+02 1.479274e-25
5.770000e+02 1.753076e-25
5.780000e+02 2.071030e-25
5.790000e+02 2.445289e-25
5.800000e+02 2.885572e-25
5.810000e+02 3.403194e-25
5.820000e+02 4.011218e-25
5.830000e+02 4.723718e-25
5.840000e+02 5.507410e-25
5.850000e+02 6.533377e-25
5.860000e+02 7.702179e-25
5.870000e+02 9.057354e-25
5.880000e+02 1.064348e-24
5.890000e+02 1.249989e-24
5.900000e+02 1.467308e-24
5.910000e+02 1.721449e-24
5.920000e+02 2.018558e-24
5.930000e+02 2.365726e-24
5.940000e+02 2.771183e-24
5.950000e+02 3.244477e-24
5.960000e+02 3.796682e-24
5.970000e+02 4.440634e-24
5.980000e+02 5.191203e-24
5.990000e+02 6.065694e-24
6.000000e+02 7.083881e-24
6.010000e+02 8.268158e-24
6.020000e+02 9.647410e-24
6.030000e+02 1.125023e-23
6.040000e+02 1.311298e-23
6.050000e+02 1.527675e-23
6.060000e+02 1.778896e-23
6.070000e+02 2.070443e-23
6.080000e+02 2.408620e-23
6.090000e+02 2.800704e-23
6.100000e+02 3.255070e-23
6.110000e+02 3.781382e-23
6.120000e+02 4.390749e-23
6.130000e+02 5.095994e-23
6.140000e+02 5.911691e-23
6.150000e+02 6.854794e-23
6.160000e+02 7.944704e-23
6.170000e+02 9.203714e-23
6.180000e+02 1.065739e-22
6.190000e+02 1.233505e-22
6.200000e+02 1.427048e-22
6.210000e+02 1.650213e-22
6.220000e+02 1.907427e-22
6.230000e+02 2.203754e-22
6.240000e+02 2.544993e-22
6.250000e+02 2.937779e-22
6.260000e+02 3.389726e-22
6.270000e+02 3.909465e-22
6.280000e+02 4.506954e-22
6.290000e+02 5.193510e-22
6.300000e+02 5.982062e-22
6.310000e+02 6.755986e-22
6.320000e+02 7.926489e-22
6.330000e+02 9.114583e-22
6.340000e+02 1.048509e-21
6.350000e+02 1.204579e-21
6.360000e+02 1.384608e-21
6.370000e+02 1.590178e-21
6.380000e+02 1.825477e-21
6.390000e+02 2.094730e-21
6.400000e+02 2.402713e-21
6.410000e+02 2.754854e-21
6.420000e+02 3.157321e-21
6.430000e+02 3.617124e-21
6.440000e+02 4.142222e-21
6.450000e+02 4.741647e-21
6.460000e+02 5.425653e-21
6.470000e+02 6.205865e-21
6.480000e+02 7.095467e-21
6.490000e+02 8.109402e-21
6.500000e+02 9.264248e-21
6.510000e+02 1.058023e-20
6.520000e+02 1.207804e-20
6.530000e+02 1.378251e-20
6.540000e+02 1.572129e-20
6.550000e+02 1.792635e-20
6.560000e+02 2.043266e-20
6.570000e+02 2.327925e-20
6.580000e+02 2.651533e-20
6.590000e+02 3.018825e-20
6.600000e+02 3.435695e-20
6.610000e+02 3.908697e-20
6.620000e+02 4.445153e-20
6.630000e+02 5.053368e-20
6.640000e+02 5.742689e-20
6.650000e+02 6.523632e-20
6.660000e+02 7.408118e-20
6.670000e+02 8.409445e-20
6.680000e+02 9.542672e-20
6.690000e+02 1.082471e-19
6.700000e+02 1.227463e-19
6.710000e+02 1.391374e-19
6.720000e+02 1.576612e-19
6.730000e+02 1.785879e-19
6.740000e+02 2.022209e-19
6.750000e+02 2.289011e-19
6.760000e+02 2.590108e-19
6.770000e+02 2.929792e-19
6.780000e+02 3.312876e-19
6.790000e+02 3.744758e-19
6.800000e+02 4.231488e-19
6.810000e+02 4.779847e-19
6.820000e+02 5.397426e-19
6.830000e+02 6.092733e-19
6.840000e+02 6.875285e-19
6.850000e+02 7.755730e-19
6.860000e+02 8.746017e-19
6.870000e+02 9.859447e-19
6.880000e+02 1.111097e-18
6.890000e+02 1.251717e-18
6.900000e+02 1.409670e-18
6.910000e+02 1.587034e-18
6.920000e+02 1.786130e-18
6.930000e+02 2.009549e-18
6.940000e+02 2.260185e-18
6.950000e+02 2.541258e-18
6.960000e+02 2.856367e-18
6.970000e+02 3.209425e-18
6.980000e+02 3.605189e-18
6.990000e+02 4.048349e-18
7.000000e+02 4.544548e-18
7.010000e+02 5.099958e-18
7.020000e+02 5.721454e-18
7.030000e+02 6.416683e-18
7.040000e+02 7.194180e-18
7.050000e+02 8.063356e-18
7.060000e+02 9.034751e-18
7.070000e+02 1.012007e-17
7.080000e+02 1.133229e-17
7.090000e+02 1.268580e-17
7.100000e+02 1.419677e-17
7.110000e+02 1.588285e-17
7.120000e+02 1.776382e-17
7.130000e+02 1.986158e-17
7.140000e+02 2.220045e-17
7.150000e+02 2.480735e-17
7.160000e+02 2.771216e-17
7.170000e+02 3.094778e-17
7.180000e+02 3.455060e-17
7.190000e+02 3.856328e-17
7.200000e+02 4.302840e-17
7.210000e+02 4.799672e-17
7.220000e+02 5.352302e-17
7.230000e+02 5.966842e-17
7.240000e+02 6.650030e-17
7.250000e+02 7.409321e-17
7.260000e+02 8.252954e-17
7.270000e+02 9.190035e-17
7.280000e+02 1.023062e-16
7.290000e+02 1.138583e-16
7.300000e+02 1.266792e-16
7.310000e+02 1.409044e-16
7.320000e+02 1.566833e-16
7.330000e+02 1.741809e-16
7.340000e+02 1.935790e-16
7.350000e+02 2.150781e-16
7.360000e+02 2.388946e-16
7.370000e+02 2.652873e-16
7.380000e+02 2.945091e-16
7.390000e+02 3.268611e-16
7.400000e+02 3.626677e-16
7.410000e+02 4.022912e-16
7.420000e+02 4.461216e-16
7.430000e+02 4.945978e-16
7.440000e+02 5.481947e-16
7.450000e+02 6.074381e-16
7.460000e+02 6.729062e-16
7.470000e+02 7.452341e-16
7.480000e+02 8.251200e-16
7.490000e+02 9.133312e-16
7.500000e+02 1.010709e-15
7.510000e+02 1.118180e-15
7.520000e+02 1.236759e-15
7.530000e+02 1.367561e-15
7.540000e+02 1.511809e-15
7.550000e+02 1.670845e-15
7.560000e+02 1.846142e-15
7.570000e+02 2.039270e-15
7.580000e+02 2.252128e-15
7.590000e+02 2.486508e-15
7.600000e+02 2.744627e-15
7.610000e+02 3.028768e-15
7.620000e+02 3.341494e-15
7.630000e+02 3.685593e-15
7.640000e+02 4.064122e-15
7.650000e+02 4.480421e-15
7.660000e+02 4.938155e-15
7.670000e+02 5.441323e-15
7.680000e+02 5.994226e-15
7.690000e+02 6.555151e-15
7.700000e+02 7.268704e-15
7.710000e+02 8.002197e-15
7.720000e+02 8.806918e-15
7.730000e+02 9.690242e-15
7.740000e+02 1.065962e-14
7.750000e+02 1.172319e-14
7.760000e+02 1.288818e-14
7.770000e+02 1.416922e-14
7.780000e+02 1.557196e-14
7.790000e+02 1.710954e-14
7.800000e+02 1.879457e-14
7.810000e+02 2.064076e-14
7.820000e+02 2.266304e-14
7.830000e+02 2.487771e-14
7.840000e+02 2.730252e-14
7.850000e+02 2.995683e-14
7.860000e+02 3.286166e-14
7.870000e+02 3.604211e-14
7.880000e+02 3.951905e-14
7.890000e+02 4.332167e-14
7.900000e+02 4.747944e-14
7.910000e+02 5.202458e-14
7.920000e+02 5.699208e-14
7.930000e+02 6.241999e-14
7.940000e+02 6.834964e-14
7.950000e+02 7.482603e-14
7.960000e+02 8.189802e-14
7.970000e+02 8.961872e-14
7.980000e+02 9.804579e-14
7.990000e+02 1.072419e-13
8.000000e+02 1.172750e-13
8.010000e+02 1.282189e-13
8.020000e+02 1.401540e-13
8.030000e+02 1.531670e-13
8.040000e+02 1.673523e-13
8.050000e+02 1.828124e-13
8.060000e+02 1.996581e-13
8.070000e+02 2.180098e-13
8.080000e+02 2.379979e-13
8.090000e+02 2.597639e-13
8.100000e+02 2.834612e-13
8.110000e+02 3.092553e-13
8.120000e+02 3.373261e-13
8.130000e+02 3.678683e-13
8.140000e+02 4.010928e-13
8.150000e+02 4.372275e-13
8.160000e+02 4.765197e-13
8.170000e+02 5.192363e-13
8.180000e+02 5.656667e-13
8.190000e+02 6.161231e-13
8.200000e+02 6.709439e-13
8.210000e+02 7.304945e-13
8.220000e+02 7.951702e-13
8.230000e+02 8.653981e-13
8.240000e+02 9.416397e-13
8.250000e+02 1.024394e-12
8.260000e+02 1.114198e-12
8.270000e+02 1.211635e-12
8.280000e+02 1.317333e-12
8.290000e+02 1.431968e-12
8.300000e+02 1.556275e-12
8.310000e+02 1.691040e-12
8.320000e+02 1.837117e-12
8.330000e+02 1.995424e-12
8.340000e+02 2.166953e-12
8.350000e+02 2.348373e-12
8.360000e+02 2.554005e-12
8.370000e+02 2.771978e-12
8.380000e+02 3.007932e-12
8.390000e+02 3.263378e-12
8.400000e+02 3.539829e-12
8.410000e+02 3.838971e-12
8.420000e+02 4.162500e-12
8.430000e+02 4.512678e-12
8.440000e+02 4.891272e-12
8.450000e+02 5.300636e-12
8.460000e+02 5.743192e-12
8.470000e+02 6.221536e-12
8.480000e+02 6.738483e-12
8.490000e+02 7.297034e-12
8.500000e+02 7.900432e-12
8.510000e+02 8.552151e-12
8.520000e+02 9.255909e-12
8.530000e+02 1.001582e-11
8.540000e+02 1.083623e-11
8.550000e+02 1.172159e-11
8.560000e+02 1.267701e-11
8.570000e+02 1.370784e-11
8.580000e+02 1.474696e-11
8.590000e+02 1.601917e-11
8.600000e+02 1.731247e-11
8.610000e+02 1.869071e-11
8.620000e+02 2.021002e-11
8.630000e+02 2.183008e-11
8.640000e+02 2.357579e-11
8.650000e+02 2.545632e-11
8.660000e+02 2.748303e-11
8.670000e+02 2.966535e-11
8.680000e+02 3.201539e-11
8.690000e+02 3.454563e-11
8.700000e+02 3.726909e-11
8.710000e+02 4.020102e-11
8.720000e+02 4.335575e-11
8.730000e+02 4.675018e-11
8.740000e+02 5.040171e-11
8.750000e+02 5.432924e-11
8.760000e+02 5.855288e-11
8.770000e+02 6.309415e-11
8.780000e+02 6.797581e-11
8.790000e+02 7.322407e-11
8.800000e+02 7.886356e-11
8.810000e+02 8.492332e-11
8.820000e+02 9.143376e-11
8.830000e+02 9.842665e-11
8.840000e+02 1.059367e-10
8.850000e+02 1.140018e-10
8.860000e+02 1.226603e-10
8.870000e+02 1.319549e-10
8.880000e+02 1.419305e-10
8.890000e+02 1.526354e-10
8.900000e+02 1.641216e-10
8.910000e+02 1.764434e-10
8.920000e+02 1.896045e-10
8.930000e+02 2.038332e-10
8.940000e+02 2.190306e-10
8.950000e+02 2.353242e-10
8.960000e+02 2.527893e-10
8.970000e+02 2.715076e-10
8.980000e+02 2.915655e-10
8.990000e+02 3.130568e-10
9.000000e+02 3.360787e-10
9.010000e+02 3.607376e-10
9.020000e+02 3.871436e-10
9.030000e+02 4.153932e-10
9.040000e+02 4.456902e-10
9.050000e+02 4.780810e-10
9.060000e+02 5.127785e-10
9.070000e+02 5.498865e-10
9.080000e+02 5.895988e-10
9.090000e+02 6.320775e-10
9.100000e+02 6.775135e-10
9.110000e+02 7.261201e-10
9.120000e+02 7.782824e-10
9.130000e+02 7.422394e-10
9.140000e+02 4.889444e-09
9.150000e+02 7.223770e-03
9.160000e+02 1.299740e-02
9.170000e+02 5.508362e-04
9.180000e+02 1.349062e-02
9.190000e+02 1.643852e-02
9.200000e+02 1.740986e-02
9.210000e+02 1.344006e-09
9.220000e+02 1.566534e-02
9.230000e+02 1.092558e-03
9.240000e+02 1.031600e-03
9.250000e+02 7.139682e-03
9.260000e+02 1.991641e-02
9.270000e+02 4.217922e-04
9.280000e+02 2.428880e-02
9.290000e+02 2.545003e-02
9.300000e+02 2.576774e-02
9.310000e+02 7.767054e-04
9.320000e+02 2.879026e-02
9.330000e+02 2.082352e-02
9.340000e+02 1.455826e-02
9.350000e+02 4.433805e-06
9.360000e+02 1.100270e-03
9.370000e+02 1.431428e-06
9.380000e+02 1.062791e-03
9.390000e+02 3.344650e-03
9.400000e+02 3.879268e-02
9.410000e+02 1.520829e-04
9.420000e+02 4.136933e-02
9.430000e+02 5.248979e-03
9.440000e+02 3.603167e-02
9.450000e+02 4.723720e-02
9.460000e+02 3.869602e-02
9.470000e+02 5.069375e-05
9.480000e+02 2.205843e-02
9.490000e+02 5.087782e-02
9.500000e+02 6.332994e-06
9.510000e+02 4.317341e-02
9.520000e+02 5.096068e-02
9.530000e+02 4.413230e-04
9.540000e+02 5.369331e-05
9.550000e+02 1.465857e-02
9.560000e+02 3.529309e-02
9.570000e+02 7.291771e-04
9.580000e+02 1.283176e-05
9.590000e+02 8.563973e-02
9.600000e+02 5.565584e-06
9.610000e+02 6.343483e-02
9.620000e+02 3.763849e-02
9.630000e+02 9.693623e-03
9.640000e+02 2.745539e-06
9.650000e+02 1.497567e-04
9.660000e+02 1.655096e-02
9.670000e+02 1.360789e-03
9.680000e+02 6.243661e-04
9.690000e+02 6.413250e-02
9.700000e+02 6.482950e-02
9.710000e+02 1.830959e-03
9.720000e+02 1.133293e-03
9.730000e+02 6.101938e-02
9.740000e+02 8.030365e-02
9.750000e+02 2.816752e-02
9.760000e+02 1.564735e-01
9.770000e+02 1.455478e-01
9.780000e+02 9.611217e-02
9.790000e+02 1.950766e-01
9.800000e+02 2.030738e-01
9.810000e+02 9.560048e-02
9.820000e+02 1.529020e-02
9.830000e+02 2.250692e-01
9.840000e+02 1.641797e-03
9.850000e+02 5.213131e-02
9.860000e+02 6.175588e-02
9.870000e+02 2.667268e-01
9.880000e+02 3.223419e-04
9.890000e+02 1.833491e-01
9.900000e+02 9.484919e-04
9.910000e+02 6.060221e-03
9.920000e+02 5.439552e-05
9.930000e+02 2.289864e-01
9.940000e+02 3.486872e-06
9.950000e+02 4.087085e-03
9.960000e+02 1.413196e-03
9.970000e+02 2.195523e-04
9.980000e+02 3.275790e-01
9.990000e+02 6.313256e-03
1.000000e+03 3.875657e-01
1.001000e+03 5.135782e-01
1.002000e+03 5.272774e-01
1.003000e+03 2.218986e-02
1.004000e+03 5.285144e-04
1.005000e+03 9.229124e-02
1.006000e+03 6.157585e-01
1.007000e+03 6.565765e-01
1.008000e+03 6.153297e-01
1.009000e+03 3.059031e-02
1.010000e+03 6.771057e-01
1.011000e+03 7.684984e-01
1.012000e+03 7.409995e-01
1.013000e+03 7.512426e-01
1.014000e+03 1.477599e-04
1.015000e+03 7.310510e-04
1.016000e+03 7.485044e-02
1.017000e+03 1.206398e-04
1.018000e+03 3.206116e-02
1.019000e+03 6.995201e-04
1.020000e+03 1.069612e+00
1.021000e+03 6.966829e-03
1.022000e+03 4.864192e-02
1.023000e+03 1.829326e-03
1.024000e+03 6.140147e-01
1.025000e+03 1.155161e-04
1.026000e+03 2.016092e-03
1.027000e+03 2.791641e-01
1.028000e+03 1.502037e-04
1.029000e+03 2.506971e-04
1.030000e+03 5.400890e-01
1.031000e+03 5.618383e-01
1.032000e+03 9.189435e-01
1.033000e+03 2.188563e-03
1.034000e+03 8.185739e-01
1.035000e+03 6.985664e-05
1.036000e+03 5.298853e-04
1.037000e+03 1.932449e+00
1.038000e+03 2.253906e+00
1.039000e+03 2.017956e+00
1.040000e+03 2.346213e+00
1.041000e+03 2.438077e+00
1.042000e+03 2.614475e+00
1.043000e+03 1.619807e+00
1.044000e+03 2.942523e+00
1.045000e+03 2.629078e+00
1.046000e+03 2.707810e+00
1.047000e+03 1.509390e+00
1.048000e+03 1.867771e-02
1.049000e+03 1.842436e+00
1.050000e+03 7.862275e-01
1.051000e+03 3.249738e-01
1.052000e+03 3.743373e+00
1.053000e+03 4.082837e+00
1.054000e+03 8.301735e-04
1.055000e+03 4.356868e+00
1.056000e+03 4.559575e+00
1.057000e+03 3.078049e+00
1.058000e+03 4.443568e-01
1.059000e+03 1.919904e-01
1.060000e+03 2.554941e-02
1.061000e+03 4.195775e+00
1.062000e+03 1.538901e-01
1.063000e+03 1.542214e-02
1.064000e+03 1.473427e-04
1.065000e+03 1.428127e-03
1.066000e+03 2.026780e+00
1.067000e+03 9.755770e-02
1.068000e+03 7.207012e+00
1.069000e+03 1.594085e-02
1.070000e+03 3.518779e+00
1.071000e+03 7.712140e+00
1.072000e+03 8.168920e+00
1.073000e+03 3.650665e-03
1.074000e+03 4.375773e+00
1.075000e+03 3.006348e+00
1.076000e+03 9.435348e+00
1.077000e+03 6.248951e-03
1.078000e+03 3.942747e-01
1.079000e+03 2.734479e+00
1.080000e+03 4.892626e+00
1.081000e+03 9.751406e+00
1.082000e+03 8.760205e+00
1.083000e+03 7.002127e+00
1.084000e+03 1.191691e+01
1.085000e+03 1.755262e+00
1.086000e+03 1.338144e+01
1.087000e+03 2.430964e-01
1.088000e+03 1.421969e+01
1.089000e+03 1.465200e+01
1.090000e+03 1.748284e+00
1.091000e+03 2.391586e+00
1.092000e+03 1.553008e+01
1.093000e+03 1.654836e+01
1.094000e+03 1.270769e+01
1.095000e+03 1.769412e+01
1.096000e+03 3.900719e-01
1.097000e+03 1.673783e+01
1.098000e+03 1.931429e+01
1.099000e+03 6.722288e+00
1.100000e+03 4.824412e-02
1.101000e+03 1.651331e-01
1.102000e+03 3.662192e+00
1.103000e+03 2.375659e+01
1.104000e+03 2.412604e+01
1.105000e+03 2.363470e+01
1.106000e+03 1.465619e+01
1.107000e+03 7.096672e-02
1.108000e+03 2.531023e+01
1.109000e+03 1.547943e+00
1.110000e+03 2.347678e+01
1.111000e+03 2.789314e+01
1.112000e+03 2.339056e+01
1.113000e+03 2.277603e+01
1.114000e+03 1.777016e+01
1.115000e+03 2.216946e+00
1.116000e+03 8.762210e-01
1.117000e+03 2.837746e+01
1.118000e+03 2.524006e+00
1.119000e+03 2.756146e+01
1.120000e+03 1.056324e+00
1.121000e+03 3.390530e+01
1.122000e+03 6.203239e+00
1.123000e+03 3.535456e+01
1.124000e+03 3.705376e+01
1.125000e+03 3.315905e+01
1.126000e+03 3.957467e+01
1.127000e+03 3.872279e+01
1.128000e+03 2.590968e+01
1.129000e+03 3.667486e+01
1.130000e+03 4.212017e+01
1.131000e+03 3.723825e+01
1.132000e+03 1.255798e+00
1.133000e+03 1.109469e+01
1.134000e+03 4.039577e+01
1.135000e+03 1.919455e+00
1.136000e+03 2.209917e+01
1.137000e+03 4.785818e+01
1.138000e+03 4.132478e+01
1.139000e+03 5.063246e+01
1.140000e+03 3.245047e+01
1.141000e+03 5.230022e+01
1.142000e+03 5.279439e+01
1.143000e+03 4.498345e+01
1.144000e+03 5.323788e+01
1.145000e+03 5.615311e-01
1.146000e+03 5.804715e+01
1.147000e+03 5.876998e+01
1.148000e+03 6.933975e+00
1.149000e+03 5.838354e+01
1.150000e+03 5.933645e+01
1.151000e+03 6.387788e+01
1.152000e+03 6.467229e+01
1.153000e+03 5.910212e+01
1.154000e+03 6.613055e+01
1.155000e+03 6.561577e+01
1.156000e+03 6.958602e+01
1.157000e+03 6.677671e+01
1.158000e+03 5.490509e+01
1.159000e+03 7.339757e+01
1.160000e+03 6.577449e+01
1.161000e+03 7.601315e+01
1.162000e+03 2.408819e+01
1.163000e+03 5.267429e+01
1.164000e+03 5.313873e-02
1.165000e+03 8.059830e+01
1.166000e+03 8.072237e+01
1.167000e+03 8.296731e+01
1.168000e+03 8.783883e+01
1.169000e+03 8.758544e+01
1.170000e+03 8.454143e+01
1.171000e+03 9.230756e+01
1.172000e+03 8.693467e+01
1.173000e+03 9.740562e+01
1.174000e+03 3.876297e+00
1.175000e+03 4.790497e-02
1.176000e+03 1.400757e-02
1.177000e+03 1.064137e+02
1.178000e+03 1.082864e+02
1.179000e+03 1.100980e+02
1.180000e+03 9.858968e+01
1.181000e+03 1.133294e+02
1.182000e+03 1.159977e+02
1.183000e+03 1.140025e+02
1.184000e+03 1.151507e+02
1.185000e+03 1.203829e+02
1.186000e+03 2.721577e+01
1.187000e+03 1.253795e+02
1.188000e+03 1.111050e+02
1.189000e+03 9.308833e+01
1.190000e+03 1.346368e+02
1.191000e+03 1.352896e+02
1.192000e+03 1.372210e+02
1.193000e+03 3.238544e+01
1.194000e+03 1.048974e+02
1.195000e+03 1.408169e+02
1.196000e+03 1.434731e+02
1.197000e+03 2.356315e+02
1.198000e+03 8.406484e+01
1.199000e+03 2.297540e+02
1.200000e+03 1.386290e+02
1.201000e+03 2.183336e+02
1.202000e+03 2.009204e+02
1.203000e+03 2.716167e+02
1.204000e+03 1.468485e+02
1.205000e+03 2.324339e+02
1.206000e+03 2.261966e+02
1.207000e+03 1.071570e+01
1.208000e+03 1.573795e+02
1.209000e+03 1.141122e+02
1.210000e+03 7.280731e-02
1.211000e+03 4.982173e+01
1.212000e+03 2.315467e+01
1.213000e+03 9.031172e+00
1.214000e+03 2.139594e+00
1.215000e+03 1.863944e-01
1.216000e+03 4.240670e-02
1.217000e+03 1.193895e+00
1.218000e+03 6.797310e+00
1.219000e+03 2.070474e+01
1.220000e+03 4.226122e+01
1.221000e+03 8.702699e+01
1.222000e+03 1.441367e+02
1.223000e+03 1.960757e+02
1.224000e+03 2.179194e+02
1.225000e+03 9.524698e+01
1.226000e+03 3.753122e+02
1.227000e+03 4.269402e+02
1.228000e+03 3.751132e+02
1.229000e+03 5.233782e+02
1.230000e+03 5.038647e+02
1.231000e+03 3.047078e+02
1.232000e+03 6.426110e+02
1.233000e+03 6.895251e+02
1.234000e+03 4.553847e+02
1.235000e+03 7.558897e+02
1.236000e+03 6.043859e+02
1.237000e+03 8.197323e+02
1.238000e+03 8.478425e+02
1.239000e+03 8.528591e+02
1.240000e+03 1.231339e+02
1.241000e+03 8.328004e+02
1.242000e+03 9.521204e+02
1.243000e+03 9.815702e+02
1.244000e+03 1.006238e+03
1.245000e+03 1.040563e+03
1.246000e+03 1.045700e+03
1.247000e+03 1.074575e+03
1.248000e+03 6.720588e+02
1.249000e+03 1.151465e+03
1.250000e+03 8.599058e+02
1.251000e+03 1.208822e+03
1.252000e+03 1.172096e+03
1.253000e+03 1.265447e+03
1.254000e+03 1.261126e+03
1.255000e+03 1.035164e+03
1.256000e+03 1.331341e+03
1.257000e+03 9.377572e+02
1.258000e+03 1.320475e+03
1.259000e+03 1.438044e+03
1.260000e+03 1.490646e+03
1.261000e+03 3.238574e+01
1.262000e+03 1.561252e+03
1.263000e+03 1.432561e+03
1.264000e+03 1.590912e+03
1.265000e+03 6.937256e+00
1.266000e+03 1.711233e+03
1.267000e+03 1.708188e+03
