# wavelength_A flux
5.000000e+02 2.758596e-41
5.010000e+02 3.642395e-41
5.020000e+02 4.803791e-41
5.030000e+02 6.328544e-41
5.040000e+02 8.327917e-41
5.050000e+02 1.094919e-40
5.060000e+02 1.437648e-40
5.070000e+02 1.885573e-40
5.080000e+02 2.470391e-40
5.090000e+02 3.233076e-40
5.100000e+02 4.225952e-40
5.110000e+02 5.519799e-40
5.120000e+02 7.200824e-40
5.130000e+02 9.383963e-40
5.140000e+02 1.221611e-39
5.150000e+02 1.588645e-39
5.160000e+02 2.063813e-39
5.170000e+02 2.678344e-39
5.180000e+02 3.472300e-39
5.190000e+02 4.497030e-39
5.200000e+02 5.818277e-39
5.210000e+02 7.520135e-39
5.220000e+02 9.710050e-39
5.230000e+02 1.252524e-38
5.240000e+02 1.614063e-38
5.250000e+02 2.077914e-38
5.260000e+02 2.672450e-38
5.270000e+02 3.433754e-38
5.280000e+02 4.407666e-38
5.290000e+02 5.652369e-38
5.300000e+02 7.241641e-38
5.310000e+02 9.268950e-38
5.320000e+02 1.185260e-37
5.330000e+02 1.514217e-37
5.340000e+02 1.932667e-37
5.350000e+02 2.464461e-37
5.360000e+02 3.139681e-37
5.370000e+02 3.996073e-37
5.380000e+02 5.081799e-37
5.390000e+02 6.456399e-37
5.400000e+02 8.195410e-37
5.410000e+02 1.039347e-36
5.420000e+02 1.316929e-36
5.430000e+02 1.667164e-36
5.440000e+02 2.108679e-36
5.450000e+02 2.664776e-36
5.460000e+02 3.364584e-36
5.470000e+02 4.244481e-36
5.480000e+02 5.349859e-36
5.490000e+02 6.737313e-36
5.500000e+02 8.477343e-36
5.510000e+02 1.065770e-35
5.520000e+02 1.338752e-35
5.530000e+02 1.680240e-35
5.540000e+02 2.107071e-35
5.550000e+02 2.640133e-35
5.560000e+02 3.305316e-35
5.570000e+02 4.134690e-35
5.580000e+02 5.167939e-35
5.590000e+02 6.454138e-35
5.600000e+02 8.053923e-35
5.610000e+02 1.004216e-34
5.620000e+02 1.251119e-34
5.630000e+02 1.557486e-34
5.640000e+02 1.937339e-34
5.650000e+02 2.407935e-34
5.660000e+02 2.990498e-34
5.670000e+02 3.711108e-34
5.680000e+02 4.601789e-34
5.690000e+02 5.701836e-34
5.700000e+02 7.059427e-34
5.710000e+02 8.733586e-34
5.720000e+02 1.079657e-33
5.730000e+02 1.333679e-33
5.740000e+02 1.646229e-33
5.750000e+02 2.030508e-33
5.760000e+02 2.502627e-33
5.770000e+02 3.082239e-33
5.780000e+02 3.793299e-33
5.790000e+02 4.664981e-33
5.800000e+02 5.732794e-33
5.810000e+02 7.039930e-33
5.820000e+02 8.638878e-33
5.830000e+02 1.059339e-32
5.840000e+02 1.298084e-32
5.850000e+02 1.589508e-32
5.860000e+02 1.944985e-32
5.870000e+02 2.378288e-32
5.880000e+02 2.906093e-32
5.890000e+02 3.548564e-32
5.900000e+02 4.330075e-32
5.910000e+02 5.280068e-32
5.920000e+02 6.434079e-32
5.930000e+02 7.834973e-32
5.940000e+02 9.534423e-32
5.950000e+02 1.159468e-31
5.960000e+02 1.409067e-31
5.970000e+02 1.711255e-31
5.980000e+02 2.076872e-31
5.990000e+02 2.518939e-31
6.000000e+02 3.053095e-31
6.010000e+02 3.698104e-31
6.020000e+02 4.476465e-31
6.030000e+02 5.415147e-31
6.040000e+02 6.546446e-31
6.050000e+02 7.909018e-31
6.060000e+02 9.549103e-31
6.070000e+02 1.152198e-30
6.080000e+02 1.389368e-30
6.090000e+02 1.674306e-30
6.100000e+02 2.016419e-30
6.110000e+02 2.426927e-30
6.120000e+02 2.919200e-30
6.130000e+02 3.509162e-30
6.140000e+02 4.215769e-30
6.150000e+02 5.061572e-30
6.160000e+02 6.073380e-30
6.170000e+02 7.283049e-30
6.180000e+02 8.728408e-30
6.190000e+02 1.045435e-29
6.200000e+02 1.251413e-29
6.210000e+02 1.497088e-29
6.220000e+02 1.789937e-29
6.230000e+02 2.138817e-29
6.240000e+02 2.554207e-29
6.250000e+02 3.048500e-29
6.260000e+02 3.636347e-29
6.270000e+02 4.335056e-29
6.280000e+02 5.165061e-29
6.290000e+02 6.150477e-29
6.300000e+02 7.319744e-29
6.310000e+02 8.706387e-29
6.320000e+02 1.034990e-28
6.330000e+02 1.229679e-28
6.340000e+02 1.460177e-28
6.350000e+02 1.732923e-28
6.360000e+02 2.055481e-28
6.370000e+02 2.436743e-28
6.380000e+02 2.887147e-28
6.390000e+02 3.418946e-28
6.400000e+02 4.046511e-28
6.410000e+02 4.786694e-28
6.420000e+02 5.659239e-28
6.430000e+02 6.687271e-28
6.440000e+02 7.897860e-28
6.450000e+02 9.322678e-28
6.460000e+02 1.099876e-27
6.470000e+02 1.296939e-27
6.480000e+02 1.528514e-27
6.490000e+02 1.800504e-27
6.500000e+02 2.119800e-27
6.510000e+02 2.494438e-27
6.520000e+02 2.933786e-27
6.530000e+02 3.448764e-27
6.540000e+02 4.052085e-27
6.550000e+02 4.758552e-27
6.560000e+02 5.585387e-27
6.570000e+02 6.552618e-27
6.580000e+02 7.683525e-27
6.590000e+02 9.005158e-27
6.600000e+02 1.054893e-26
6.610000e+02 1.235129e-26
6.620000e+02 1.445455e-26
6.630000e+02 1.690775e-26
6.640000e+02 1.976774e-26
6.650000e+02 2.310038e-26
6.660000e+02 2.698195e-26
6.670000e+02 3.150070e-26
6.680000e+02 3.675876e-26
6.690000e+02 4.287423e-26
6.700000e+02 4.998359e-26
6.710000e+02 5.824452e-26
6.720000e+02 6.783912e-26
6.730000e+02 7.897757e-26
6.740000e+02 9.190234e-26
6.750000e+02 1.068931e-25
6.760000e+02 1.242721e-25
6.770000e+02 1.444108e-25
6.780000e+02 1.677369e-25
6.790000e+02 1.947428e-25
6.800000e+02 2.259949e-25
6.810000e+02 2.621450e-25
6.820000e+02 3.039419e-25
6.830000e+02 3.522467e-25
6.840000e+02 4.080481e-25
6.850000e+02 4.724813e-25
6.860000e+02 5.468493e-25
6.870000e+02 6.326467e-25
6.880000e+02 7.315874e-25
6.890000e+02 8.456361e-25
6.900000e+02 9.770433e-25
6.910000e+02 1.128387e-24
6.920000e+02 1.302618e-24
6.930000e+02 1.503112e-24
6.940000e+02 1.733732e-24
6.950000e+02 1.998894e-24
6.960000e+02 2.303645e-24
6.970000e+02 2.653750e-24
6.980000e+02 3.055792e-24
6.990000e+02 3.517289e-24
7.000000e+02 4.046813e-24
7.010000e+02 4.654148e-24
7.020000e+02 5.350443e-24
7.030000e+02 6.148408e-24
7.040000e+02 7.062519e-24
7.050000e+02 8.109265e-24
7.060000e+02 9.307412e-24
7.070000e+02 1.067832e-23
7.080000e+02 1.224627e-23
7.090000e+02 1.403888e-23
7.100000e+02 1.608754e-23
7.110000e+02 1.842792e-23
7.120000e+02 2.110051e-23
7.130000e+02 2.415129e-23
7.140000e+02 2.763243e-23
7.150000e+02 3.160312e-23
7.160000e+02 3.613049e-23
7.170000e+02 4.129061e-23
7.180000e+02 4.716969e-23
7.190000e+02 5.386538e-23
7.200000e+02 6.148824e-23
7.210000e+02 7.016343e-23
7.220000e+02 8.003255e-23
7.230000e+02 9.125573e-23
7.240000e+02 1.040141e-22
7.250000e+02 1.185122e-22
7.260000e+02 1.349814e-22
7.270000e+02 1.536827e-22
7.280000e+02 1.749111e-22
7.290000e+02 1.989992e-22
7.300000e+02 2.263226e-22
7.310000e+02 2.573045e-22
7.320000e+02 2.924223e-22
7.330000e+02 3.322141e-22
7.340000e+02 3.772859e-22
7.350000e+02 4.283204e-22
7.360000e+02 4.860860e-22
7.370000e+02 5.514479e-22
7.380000e+02 6.253790e-22
7.390000e+02 7.089740e-22
7.400000e+02 8.034633e-22
7.410000e+02 9.102301e-22
7.420000e+02 1.030828e-21
7.430000e+02 1.167003e-21
7.440000e+02 1.320715e-21
7.450000e+02 1.494162e-21
7.460000e+02 1.689814e-21
7.470000e+02 1.910439e-21
7.480000e+02 2.159141e-21
7.490000e+02 2.439400e-21
7.500000e+02 2.755116e-21
7.510000e+02 3.110657e-21
7.520000e+02 3.510915e-21
7.530000e+02 3.961367e-21
7.540000e+02 4.468142e-21
7.550000e+02 5.038096e-21
7.560000e+02 5.678901e-21
7.570000e+02 6.399129e-21
7.580000e+02 7.208368e-21
7.590000e+02 8.117324e-21
7.600000e+02 9.137962e-21
7.610000e+02 1.028364e-20
7.620000e+02 1.156927e-20
7.630000e+02 1.301150e-20
7.640000e+02 1.462889e-20
7.650000e+02 1.644215e-20
7.660000e+02 1.847438e-20
7.670000e+02 2.075129e-20
7.680000e+02 2.330159e-20
7.690000e+02 2.615719e-20
7.700000e+02 2.935370e-20
7.710000e+02 3.293069e-20
7.720000e+02 3.693226e-20
7.730000e+02 4.140744e-20
7.740000e+02 4.641079e-20
7.750000e+02 5.200296e-20
7.760000e+02 5.825138e-20
7.770000e+02 6.523098e-20
7.780000e+02 7.302502e-20
7.790000e+02 8.172596e-20
7.800000e+02 9.143646e-20
7.810000e+02 1.022705e-19
7.820000e+02 1.143545e-19
7.830000e+02 1.278289e-19
7.840000e+02 1.428492e-19
7.850000e+02 1.595879e-19
7.860000e+02 1.782363e-19
7.870000e+02 1.990063e-19
7.880000e+02 2.221328e-19
7.890000e+02 2.478757e-19
7.900000e+02 2.765229e-19
7.910000e+02 3.083931e-19
7.920000e+02 3.438391e-19
7.930000e+02 3.832508e-19
7.940000e+02 4.270600e-19
7.950000e+02 4.757435e-19
7.960000e+02 5.298290e-19
7.970000e+02 5.898991e-19
7.980000e+02 6.565979e-19
7.990000e+02 7.306365e-19
8.000000e+02 8.128003e-19
8.010000e+02 9.039562e-19
8.020000e+02 1.005061e-18
8.030000e+02 1.117170e-18
8.040000e+02 1.241449e-18
8.050000e+02 1.379180e-18
8.060000e+02 1.531780e-18
8.070000e+02 1.700809e-18
8.080000e+02 1.887987e-18
8.090000e+02 2.095206e-18
8.100000e+02 2.324554e-18
8.110000e+02 2.578327e-18
8.120000e+02 2.859054e-18
8.130000e+02 3.169515e-18
8.140000e+02 3.512773e-18
8.150000e+02 3.892194e-18
8.160000e+02 4.311480e-18
8.170000e+02 4.774702e-18
8.180000e+02 5.286334e-18
8.190000e+02 5.851291e-18
8.200000e+02 6.474974e-18
8.210000e+02 7.163313e-18
8.220000e+02 7.922822e-18
8.230000e+02 8.760649e-18
8.240000e+02 9.684641e-18
8.250000e+02 1.070341e-17
8.260000e+02 1.182639e-17
8.270000e+02 1.306394e-17
8.280000e+02 1.442742e-17
8.290000e+02 1.592928e-17
8.300000e+02 1.758315e-17
8.310000e+02 1.940399e-17
8.320000e+02 2.140815e-17
8.330000e+02 2.361357e-17
8.340000e+02 2.603989e-17
8.350000e+02 2.870857e-17
8.360000e+02 3.164314e-17
8.370000e+02 3.486931e-17
8.380000e+02 3.841524e-17
8.390000e+02 4.231168e-17
8.400000e+02 4.659230e-17
8.410000e+02 5.129386e-17
8.420000e+02 5.645655e-17
8.430000e+02 6.212429e-17
8.440000e+02 6.834505e-17
8.450000e+02 7.517120e-17
8.460000e+02 8.265996e-17
8.470000e+02 9.087375e-17
8.480000e+02 9.988072e-17
8.490000e+02 1.097552e-16
8.500000e+02 1.205783e-16
8.510000e+02 1.324386e-16
8.520000e+02 1.454323e-16
8.530000e+02 1.596648e-16
8.540000e+02 1.752506e-16
8.550000e+02 1.923146e-16
8.560000e+02 2.109928e-16
8.570000e+02 2.314335e-16
8.580000e+02 2.537980e-16
8.590000e+02 2.782620e-16
8.600000e+02 3.050168e-16
8.610000e+02 3.342706e-16
8.620000e+02 3.662497e-16
8.630000e+02 4.012005e-16
8.640000e+02 4.393911e-16
8.650000e+02 4.811125e-16
8.660000e+02 5.266818e-16
8.670000e+02 5.764430e-16
8.680000e+02 6.307702e-16
8.690000e+02 6.900700e-16
8.700000e+02 7.547836e-16
8.710000e+02 8.253907e-16
8.720000e+02 9.024116e-16
8.730000e+02 9.864118e-16
8.740000e+02 1.078004e-15
8.750000e+02 1.177855e-15
8.760000e+02 1.286685e-15
8.770000e+02 1.405279e-15
8.780000e+02 1.534486e-15
8.790000e+02 1.675225e-15
8.800000e+02 1.828497e-15
8.810000e+02 1.995383e-15
8.820000e+02 2.177055e-15
8.830000e+02 2.374783e-15
8.840000e+02 2.589944e-15
8.850000e+02 2.824028e-15
8.860000e+02 3.078647e-15
8.870000e+02 3.355548e-15
8.880000e+02 3.656623e-15
8.890000e+02 3.983915e-15
8.900000e+02 4.339639e-15
8.910000e+02 4.726188e-15
8.920000e+02 5.146152e-15
8.930000e+02 5.602329e-15
8.940000e+02 6.097748e-15
8.950000e+02 6.635679e-15
8.960000e+02 7.219657e-15
8.970000e+02 7.853502e-15
8.980000e+02 8.541342e-15
8.990000e+02 9.287632e-15
9.000000e+02 1.009719e-14
9.010000e+02 1.097520e-14
9.020000e+02 1.192729e-14
9.030000e+02 1.295950e-14
9.040000e+02 1.407837e-14
9.050000e+02 1.529095e-14
9.060000e+02 1.660483e-14
9.070000e+02 1.802823e-14
9.080000e+02 1.956997e-14
9.090000e+02 2.123960e-14
9.100000e+02 2.304739e-14
9.110000e+02 2.500441e-14
9.120000e+02 2.712260e-14
9.130000e+02 2.941481e-14
9.140000e+02 3.313062e-14
9.150000e+02 6.237682e-12
9.160000e+02 4.803938e-11
9.170000e+02 3.909289e-12
9.180000e+02 8.244828e-12
9.190000e+02 1.474699e-10
9.200000e+02 4.579231e-10
9.210000e+02 5.592376e-14
9.220000e+02 5.533405e-10
9.230000e+02 2.230247e-12
9.240000e+02 6.267653e-12
9.250000e+02 1.559449e-10
9.260000e+02 1.307916e-11
9.270000e+02 7.259806e-12
9.280000e+02 3.527862e-09
9.290000e+02 3.331015e-09
9.300000e+02 6.229696e-10
9.310000e+02 5.851935e-12
9.320000e+02 2.611836e-09
9.330000e+02 1.735412e-09
9.340000e+02 3.950085e-10
9.350000e+02 4.387820e-12
9.360000e+02 3.763344e-11
9.370000e+02 1.499712e-12
9.380000e+02 3.085604e-12
9.390000e+02 1.465638e-10
9.400000e+02 6.808515e-09
9.410000e+02 4.236360e-10
9.420000e+02 1.390795e-08
9.430000e+02 3.074252e-10
9.440000e+02 1.612362e-08
9.450000e+02 1.576476e-08
9.460000e+02 5.446469e-09
9.470000e+02 2.222889e-12
9.480000e+02 4.287492e-09
9.490000e+02 3.314228e-10
9.500000e+02 4.403627e-12
9.510000e+02 1.767039e-09
9.520000e+02 7.291317e-09
9.530000e+02 5.122264e-11
9.540000e+02 2.510967e-12
9.550000e+02 6.653753e-10
9.560000e+02 2.671680e-08
9.570000e+02 2.070486e-10
9.580000e+02 1.330935e-12
9.590000e+02 2.230071e-08
9.600000e+02 1.277889e-11
9.610000e+02 1.365979e-08
9.620000e+02 4.580073e-09
9.630000e+02 2.365219e-10
9.640000e+02 7.032153e-11
9.650000e+02 9.706014e-12
9.660000e+02 7.463896e-10
9.670000e+02 7.907985e-11
9.680000e+02 5.422862e-11
9.690000e+02 4.121375e-09
9.700000e+02 7.993895e-09
9.710000e+02 1.385636e-10
9.720000e+02 2.361099e-11
9.730000e+02 7.081598e-11
9.740000e+02 2.886719e-09
9.750000e+02 1.764773e-09
9.760000e+02 4.347455e-08
9.770000e+02 4.065095e-08
9.780000e+02 2.413178e-08
9.790000e+02 1.256002e-07
9.800000e+02 1.338040e-07
9.810000e+02 1.286276e-08
9.820000e+02 1.597520e-09
9.830000e+02 1.649176e-07
9.840000e+02 2.745938e-09
9.850000e+02 4.359394e-09
9.860000e+02 7.025829e-09
9.870000e+02 1.886839e-07
9.880000e+02 4.291678e-11
9.890000e+02 8.758539e-08
9.900000e+02 1.693266e-07
9.910000e+02 2.014481e-09
9.920000e+02 1.362173e-11
9.930000e+02 2.815523e-07
9.940000e+02 1.664979e-11
9.950000e+02 8.686282e-09
9.960000e+02 2.529248e-10
9.970000e+02 4.399396e-09
9.980000e+02 2.504716e-07
9.990000e+02 2.874965e-09
1.000000e+03 5.438766e-07
1.001000e+03 4.601374e-07
1.002000e+03 5.358592e-07
1.003000e+03 2.715893e-09
1.004000e+03 6.912160e-11
1.005000e+03 1.736828e-08
1.006000e+03 5.744520e-07
1.007000e+03 6.982448e-07
1.008000e+03 4.829594e-07
1.009000e+03 3.725281e-09
1.010000e+03 4.508449e-07
1.011000e+03 4.359774e-07
1.012000e+03 6.122700e-07
1.013000e+03 6.259137e-07
1.014000e+03 6.085088e-11
1.015000e+03 1.740830e-10
1.016000e+03 2.292489e-08
1.017000e+03 5.968559e-11
1.018000e+03 3.942347e-09
1.019000e+03 1.508056e-10
1.020000e+03 4.664231e-07
1.021000e+03 1.077530e-08
1.022000e+03 1.638867e-08
1.023000e+03 5.544223e-10
1.024000e+03 2.319272e-08
1.025000e+03 9.424006e-11
1.026000e+03 1.287401e-10
1.027000e+03 9.657669e-09
1.028000e+03 6.385577e-10
1.029000e+03 1.354863e-10
1.030000e+03 7.526347e-08
1.031000e+03 3.539974e-07
1.032000e+03 1.758260e-06
1.033000e+03 7.892481e-09
1.034000e+03 4.041654e-07
1.035000e+03 4.292815e-10
1.036000e+03 2.596607e-10
1.037000e+03 4.492712e-06
1.038000e+03 1.195131e-05
1.039000e+03 6.217444e-06
1.040000e+03 3.574062e-06
1.041000e+03 1.384504e-05
1.042000e+03 1.456306e-05
1.043000e+03 1.034043e-05
1.044000e+03 2.541175e-05
1.045000e+03 5.260767e-10
1.046000e+03 4.267193e-06
1.047000e+03 2.221146e-06
1.048000e+03 1.087847e-08
1.049000e+03 1.663146e-06
1.050000e+03 1.875815e-07
1.051000e+03 8.063762e-08
1.052000e+03 2.558853e-05
1.053000e+03 3.145717e-05
1.054000e+03 6.657501e-10
1.055000e+03 3.185977e-05
1.056000e+03 3.849068e-05
1.057000e+03 7.389720e-06
1.058000e+03 7.379751e-08
1.059000e+03 5.900074e-08
1.060000e+03 1.568515e-08
1.061000e+03 1.977146e-05
1.062000e+03 3.606073e-08
1.063000e+03 9.231651e-07
1.064000e+03 1.455192e-09
1.065000e+03 1.225999e-09
1.066000e+03 2.243435e-05
1.067000e+03 8.558795e-08
1.068000e+03 8.232000e-05
1.069000e+03 1.394530e-08
1.070000e+03 1.424829e-06
1.071000e+03 4.486388e-05
1.072000e+03 1.084225e-04
1.073000e+03 2.648449e-09
1.074000e+03 1.066012e-05
1.075000e+03 5.265683e-06
1.076000e+03 9.679094e-05
1.077000e+03 2.985325e-08
1.078000e+03 1.206354e-07
1.079000e+03 9.294331e-07
1.080000e+03 8.005421e-06
1.081000e+03 7.483367e-05
1.082000e+03 3.828802e-05
1.083000e+03 1.699424e-05
1.084000e+03 2.045067e-04
1.085000e+03 1.964872e-06
1.086000e+03 1.883857e-04
1.087000e+03 2.427842e-07
1.088000e+03 2.387511e-04
1.089000e+03 2.541230e-04
1.090000e+03 1.460946e-06
1.091000e+03 3.091263e-06
1.092000e+03 2.609347e-04
1.093000e+03 3.040482e-04
1.094000e+03 3.115026e-05
1.095000e+03 3.450612e-04
1.096000e+03 5.190661e-06
1.097000e+03 2.554557e-04
1.098000e+03 3.426965e-04
1.099000e+03 6.335176e-06
1.100000e+03 3.617629e-08
1.101000e+03 1.370761e-07
1.102000e+03 5.234479e-06
1.103000e+03 4.830484e-04
1.104000e+03 4.777096e-04
1.105000e+03 5.198905e-04
1.106000e+03 4.224368e-05
1.107000e+03 1.073640e-07
1.108000e+03 3.509213e-04
1.109000e+03 2.442859e-06
1.110000e+03 5.839501e-04
1.111000e+03 5.392444e-04
1.112000e+03 1.811101e-04
1.113000e+03 3.888074e-04
1.114000e+03 8.105220e-05
1.115000e+03 2.160050e-06
1.116000e+03 4.149449e-07
1.117000e+03 7.838459e-04
1.118000e+03 4.621761e-06
1.119000e+03 1.626451e-04
1.120000e+03 9.993091e-07
1.121000e+03 7.175728e-04
1.122000e+03 1.276880e-03
1.123000e+03 1.425035e-03
1.124000e+03 1.866481e-03
1.125000e+03 1.129397e-03
1.126000e+03 1.764821e-03
1.127000e+03 1.021870e-03
1.128000e+03 9.794595e-04
1.129000e+03 5.131860e-04
1.130000e+03 1.135066e-03
1.131000e+03 8.132656e-04
1.132000e+03 1.824345e-06
1.133000e+03 5.071401e-05
1.134000e+03 6.403460e-04
1.135000e+03 8.500055e-04
1.136000e+03 9.299611e-05
1.137000e+03 7.229022e-04
1.138000e+03 4.712559e-04
1.139000e+03 8.588625e-04
1.140000e+03 7.895251e-04
1.141000e+03 8.331973e-04
1.142000e+03 8.253310e-04
1.143000e+03 3.933850e-04
1.144000e+03 8.074449e-04
1.145000e+03 1.116481e-06
1.146000e+03 8.568051e-04
1.147000e+03 8.575025e-04
1.148000e+03 1.562148e-05
1.149000e+03 7.712596e-04
1.150000e+03 7.467412e-04
1.151000e+03 8.129523e-04
1.152000e+03 7.156493e-04
1.153000e+03 7.816838e-04
1.154000e+03 7.709178e-04
1.155000e+03 7.078153e-04
1.156000e+03 5.497134e-04
1.157000e+03 6.913174e-04
1.158000e+03 4.384341e-04
1.159000e+03 7.141104e-04
1.160000e+03 5.423006e-04
1.161000e+03 6.507570e-04
1.162000e+03 7.688347e-05
1.163000e+03 2.905496e-04
1.164000e+03 1.195818e-06
1.165000e+03 3.458642e-04
1.166000e+03 1.758226e-04
1.167000e+03 1.144804e-04
1.168000e+03 7.410175e-04
1.169000e+03 7.597075e-04
1.170000e+03 1.169240e-04
1.171000e+03 3.221615e-04
1.172000e+03 2.505907e-04
1.173000e+03 2.171779e-04
1.174000e+03 8.323987e-06
1.175000e+03 9.959913e-07
1.176000e+03 4.578033e-07
1.177000e+03 9.931906e-04
1.178000e+03 9.325799e-04
1.179000e+03 8.788669e-04
1.180000e+03 7.785125e-04
1.181000e+03 7.880220e-04
1.182000e+03 7.612354e-04
1.183000e+03 6.884075e-04
1.184000e+03 6.535806e-04
1.185000e+03 6.363951e-04
1.186000e+03 5.017836e-05
1.187000e+03 6.244124e-04
1.188000e+03 5.563425e-04
1.189000e+03 5.985863e-04
1.190000e+03 5.817109e-04
1.191000e+03 5.461612e-04
1.192000e+03 4.932870e-04
1.193000e+03 4.882019e-04
1.194000e+03 4.733152e-04
1.195000e+03 4.518088e-04
1.196000e+03 1.133048e-02
1.197000e+03 1.066660e-02
1.198000e+03 2.603638e-04
1.199000e+03 8.539758e-03
1.200000e+03 1.326874e-03
1.201000e+03 6.313455e-03
1.202000e+03 4.696140e-03
1.203000e+03 4.370583e-03
1.204000e+03 1.258593e-03
1.205000e+03 2.709118e-03
1.206000e+03 2.040121e-03
1.207000e+03 2.357265e-04
1.208000e+03 9.125624e-04
1.209000e+03 6.521391e-04
1.210000e+03 2.605928e-06
1.211000e+03 2.234242e-04
1.212000e+03 1.069385e-04
1.213000e+03 4.372895e-05
1.214000e+03 1.234813e-05
1.215000e+03 2.697412e-06
1.216000e+03 2.479161e-06
1.217000e+03 7.981960e-06
1.218000e+03 3.629092e-05
1.219000e+03 1.055419e-04
1.220000e+03 2.230159e-04
1.221000e+03 4.975298e-04
1.222000e+03 9.036552e-04
1.223000e+03 1.430973e-03
1.224000e+03 2.069454e-03
1.225000e+03 4.375596e-04
1.226000e+03 4.853894e-03
1.227000e+03 6.920430e-03
1.228000e+03 4.969658e-03
1.229000e+03 1.183895e-02
1.230000e+03 1.098854e-02
1.231000e+03 3.113706e-03
1.232000e+03 2.203539e-02
1.233000e+03 2.649604e-02
1.234000e+03 2.659594e-02
1.235000e+03 3.529662e-02
1.236000e+03 1.547888e-02
1.237000e+03 4.552714e-02
1.238000e+03 5.062896e-02
1.239000e+03 4.769980e-02
1.240000e+03 8.185990e-03
1.241000e+03 5.362952e-02
1.242000e+03 7.078982e-02
1.243000e+03 7.849310e-02
1.244000e+03 8.470202e-02
1.245000e+03 8.926775e-02
1.246000e+03 8.923477e-02
1.247000e+03 9.774360e-02
1.248000e+03 7.950885e-02
1.249000e+03 1.130701e-01
1.250000e+03 8.820973e-02
1.251000e+03 1.244265e-01
1.252000e+03 1.216485e-01
1.253000e+03 1.317409e-01
1.254000e+03 1.284900e-01
1.255000e+03 2.212804e-02
1.256000e+03 1.043384e-01
1.257000e+03 6.734039e-02
1.258000e+03 1.227681e-01
1.259000e+03 1.357947e-01
1.260000e+03 1.522408e-01
1.261000e+03 1.667604e-03
1.262000e+03 1.574305e-01
1.263000e+03 1.490845e-01
1.264000e+03 1.327942e-01
1.265000e+03 1.396209e-01
1.266000e+03 1.948946e-01
1.267000e+03 2.008116e-01
