# wavelength_A flux
5.000000e+02 6.765357e-08
5.010000e+02 7.659134e-08
5.020000e+02 8.666532e-08
5.030000e+02 9.801428e-08
5.040000e+02 1.107915e-07
5.050000e+02 1.290784e-07
5.060000e+02 1.457370e-07
5.070000e+02 1.644612e-07
5.080000e+02 1.855024e-07
5.090000e+02 2.091439e-07
5.100000e+02 2.356710e-07
5.110000e+02 2.654344e-07
5.120000e+02 2.988121e-07
5.130000e+02 3.362245e-07
5.140000e+02 3.781423e-07
5.150000e+02 4.250793e-07
5.160000e+02 4.776293e-07
5.170000e+02 5.363929e-07
5.180000e+02 6.021622e-07
5.190000e+02 6.756513e-07
5.200000e+02 7.577474e-07
5.210000e+02 8.494429e-07
5.220000e+02 9.516763e-07
5.230000e+02 1.066013e-06
5.240000e+02 1.193392e-06
5.250000e+02 1.335417e-06
5.260000e+02 1.493661e-06
5.270000e+02 1.669919e-06
5.280000e+02 1.866157e-06
5.290000e+02 2.083962e-06
5.300000e+02 2.327477e-06
5.310000e+02 2.597600e-06
5.320000e+02 2.897840e-06
5.330000e+02 3.231331e-06
5.340000e+02 3.601695e-06
5.350000e+02 4.012860e-06
5.360000e+02 4.469050e-06
5.370000e+02 4.895349e-06
5.380000e+02 5.536004e-06
5.390000e+02 6.157840e-06
5.400000e+02 6.846669e-06
5.410000e+02 7.608722e-06
5.420000e+02 8.453542e-06
5.430000e+02 9.387757e-06
5.440000e+02 1.042092e-05
5.450000e+02 1.156318e-05
5.460000e+02 1.282258e-05
5.470000e+02 1.421987e-05
5.480000e+02 1.575983e-05
5.490000e+02 1.745986e-05
5.500000e+02 1.933569e-05
5.510000e+02 2.140483e-05
5.520000e+02 2.368629e-05
5.530000e+02 2.620091e-05
5.540000e+02 2.897149e-05
5.550000e+02 3.202296e-05
5.560000e+02 3.538254e-05
5.570000e+02 3.907999e-05
5.580000e+02 4.314695e-05
5.590000e+02 4.762051e-05
5.600000e+02 5.253859e-05
5.610000e+02 5.794343e-05
5.620000e+02 6.388073e-05
5.630000e+02 7.040133e-05
5.640000e+02 7.755963e-05
5.650000e+02 8.541509e-05
5.660000e+02 9.403305e-05
5.670000e+02 1.034837e-04
5.680000e+02 1.138442e-04
5.690000e+02 1.251968e-04
5.700000e+02 1.376347e-04
5.710000e+02 1.512566e-04
5.720000e+02 1.661690e-04
5.730000e+02 1.824891e-04
5.740000e+02 2.003435e-04
5.750000e+02 2.198750e-04
5.760000e+02 2.411876e-04
5.770000e+02 2.645577e-04
5.780000e+02 2.900515e-04
5.790000e+02 3.178964e-04
5.800000e+02 3.482992e-04
5.810000e+02 3.814840e-04
5.820000e+02 4.176930e-04
5.830000e+02 4.571780e-04
5.840000e+02 5.000615e-04
5.850000e+02 5.471593e-04
5.860000e+02 5.983737e-04
5.870000e+02 6.541248e-04
5.880000e+02 7.148404e-04
5.890000e+02 7.809278e-04
5.900000e+02 8.528915e-04
5.910000e+02 9.311766e-04
5.920000e+02 1.016328e-03
5.930000e+02 1.108929e-03
5.940000e+02 1.209595e-03
5.950000e+02 1.318921e-03
5.960000e+02 1.437856e-03
5.970000e+02 1.566952e-03
5.980000e+02 1.707126e-03
5.990000e+02 1.859282e-03
6.000000e+02 2.024397e-03
6.010000e+02 2.203325e-03
6.020000e+02 2.397790e-03
6.030000e+02 2.608417e-03
6.040000e+02 2.836717e-03
6.050000e+02 3.084097e-03
6.060000e+02 3.352083e-03
6.070000e+02 3.642330e-03
6.080000e+02 3.956564e-03
6.090000e+02 4.296686e-03
6.100000e+02 4.664720e-03
6.110000e+02 5.062862e-03
6.120000e+02 5.493436e-03
6.130000e+02 5.958969e-03
6.140000e+02 6.462157e-03
6.150000e+02 7.005905e-03
6.160000e+02 7.593315e-03
6.170000e+02 8.227726e-03
6.180000e+02 8.912715e-03
6.190000e+02 9.652116e-03
6.200000e+02 1.045004e-02
6.210000e+02 1.131090e-02
6.220000e+02 1.223935e-02
6.230000e+02 1.324056e-02
6.240000e+02 1.431980e-02
6.250000e+02 1.548279e-02
6.260000e+02 1.673611e-02
6.270000e+02 1.808617e-02
6.280000e+02 1.954008e-02
6.290000e+02 2.110542e-02
6.300000e+02 2.279030e-02
6.310000e+02 2.460320e-02
6.320000e+02 2.655400e-02
6.330000e+02 2.865199e-02
6.340000e+02 3.090796e-02
6.350000e+02 3.333319e-02
6.360000e+02 3.586607e-02
6.370000e+02 3.874058e-02
6.380000e+02 4.174932e-02
6.390000e+02 4.498068e-02
6.400000e+02 4.845028e-02
6.410000e+02 5.217480e-02
6.420000e+02 5.617203e-02
6.430000e+02 6.046057e-02
6.440000e+02 6.506127e-02
6.450000e+02 6.999526e-02
6.460000e+02 7.528567e-02
6.470000e+02 8.095659e-02
6.480000e+02 8.703427e-02
6.490000e+02 9.354649e-02
6.500000e+02 1.005223e-01
6.510000e+02 1.079933e-01
6.520000e+02 1.159926e-01
6.530000e+02 1.245559e-01
6.540000e+02 1.337207e-01
6.550000e+02 1.435271e-01
6.560000e+02 1.540177e-01
6.570000e+02 1.652333e-01
6.580000e+02 1.772352e-01
6.590000e+02 1.900614e-01
6.600000e+02 2.037685e-01
6.610000e+02 2.184184e-01
6.620000e+02 2.340692e-01
6.630000e+02 2.507822e-01
6.640000e+02 2.686343e-01
6.650000e+02 2.876937e-01
6.660000e+02 3.080404e-01
6.670000e+02 3.297541e-01
6.680000e+02 3.529226e-01
6.690000e+02 3.776382e-01
6.700000e+02 4.039980e-01
6.710000e+02 4.321076e-01
6.720000e+02 4.620555e-01
6.730000e+02 4.940166e-01
6.740000e+02 5.280562e-01
6.750000e+02 5.643238e-01
6.760000e+02 6.029575e-01
6.770000e+02 6.440989e-01
6.780000e+02 6.879111e-01
6.790000e+02 7.345533e-01
6.800000e+02 7.841985e-01
6.810000e+02 8.370293e-01
6.820000e+02 8.932394e-01
6.830000e+02 9.530331e-01
6.840000e+02 1.016626e+00
6.850000e+02 1.084244e+00
6.860000e+02 1.156137e+00
6.870000e+02 1.232535e+00
6.880000e+02 1.313756e+00
6.890000e+02 1.400039e+00
6.900000e+02 1.491696e+00
6.910000e+02 1.589050e+00
6.920000e+02 1.692430e+00
6.930000e+02 1.802176e+00
6.940000e+02 1.918686e+00
6.950000e+02 2.042339e+00
6.960000e+02 2.173551e+00
6.970000e+02 2.312666e+00
6.980000e+02 2.460370e+00
6.990000e+02 2.616963e+00
7.000000e+02 2.783005e+00
7.010000e+02 2.959033e+00
7.020000e+02 3.145616e+00
7.030000e+02 3.343348e+00
7.040000e+02 3.552832e+00
7.050000e+02 3.774783e+00
7.060000e+02 4.009872e+00
7.070000e+02 4.258837e+00
7.080000e+02 4.522444e+00
7.090000e+02 4.801450e+00
7.100000e+02 5.096847e+00
7.110000e+02 5.409430e+00
7.120000e+02 5.740170e+00
7.130000e+02 6.090056e+00
7.140000e+02 6.460142e+00
7.150000e+02 6.851519e+00
7.160000e+02 7.265348e+00
7.170000e+02 7.702799e+00
7.180000e+02 8.165106e+00
7.190000e+02 8.653972e+00
7.200000e+02 9.170362e+00
7.210000e+02 9.715911e+00
7.220000e+02 1.029217e+01
7.230000e+02 1.090078e+01
7.240000e+02 1.154339e+01
7.250000e+02 1.222188e+01
7.260000e+02 1.293809e+01
7.270000e+02 1.369402e+01
7.280000e+02 1.449143e+01
7.290000e+02 1.533306e+01
7.300000e+02 1.622090e+01
7.310000e+02 1.715736e+01
7.320000e+02 1.814494e+01
7.330000e+02 1.918626e+01
7.340000e+02 2.028407e+01
7.350000e+02 2.144126e+01
7.360000e+02 2.266081e+01
7.370000e+02 2.394599e+01
7.380000e+02 2.530001e+01
7.390000e+02 2.672638e+01
7.400000e+02 2.822860e+01
7.410000e+02 2.981087e+01
7.420000e+02 3.147662e+01
7.430000e+02 3.323062e+01
7.440000e+02 3.507677e+01
7.450000e+02 3.701978e+01
7.460000e+02 3.906444e+01
7.470000e+02 4.121574e+01
7.480000e+02 4.347890e+01
7.490000e+02 4.585939e+01
7.500000e+02 4.836292e+01
7.510000e+02 5.099546e+01
7.520000e+02 5.376326e+01
7.530000e+02 5.667284e+01
7.540000e+02 5.973100e+01
7.550000e+02 6.294489e+01
7.560000e+02 6.632199e+01
7.570000e+02 6.986659e+01
7.580000e+02 7.359563e+01
7.590000e+02 7.750972e+01
7.600000e+02 8.162110e+01
7.610000e+02 8.593785e+01
7.620000e+02 9.046986e+01
7.630000e+02 9.522716e+01
7.640000e+02 1.002203e+02
7.650000e+02 1.054603e+02
7.660000e+02 1.109587e+02
7.670000e+02 1.167272e+02
7.680000e+02 1.227775e+02
7.690000e+02 1.291252e+02
7.700000e+02 1.357801e+02
7.710000e+02 1.427595e+02
7.720000e+02 1.500769e+02
7.730000e+02 1.577477e+02
7.740000e+02 1.657878e+02
7.750000e+02 1.742140e+02
7.760000e+02 1.830201e+02
7.770000e+02 1.922946e+02
7.780000e+02 2.019861e+02
7.790000e+02 2.121375e+02
7.800000e+02 2.227692e+02
7.810000e+02 2.339027e+02
7.820000e+02 2.455599e+02
7.830000e+02 2.577639e+02
7.840000e+02 2.705393e+02
7.850000e+02 2.839033e+02
7.860000e+02 2.978956e+02
7.870000e+02 3.125387e+02
7.880000e+02 3.278575e+02
7.890000e+02 3.438829e+02
7.900000e+02 3.606444e+02
7.910000e+02 3.781760e+02
7.920000e+02 3.965084e+02
7.930000e+02 4.156766e+02
7.940000e+02 4.357163e+02
7.950000e+02 4.566645e+02
7.960000e+02 4.785597e+02
7.970000e+02 5.014419e+02
7.980000e+02 5.253527e+02
7.990000e+02 5.503353e+02
8.000000e+02 5.764346e+02
8.010000e+02 6.036957e+02
8.020000e+02 6.321716e+02
8.030000e+02 6.619080e+02
8.040000e+02 6.929589e+02
8.050000e+02 7.253782e+02
8.060000e+02 7.592224e+02
8.070000e+02 7.945500e+02
8.080000e+02 8.314216e+02
8.090000e+02 8.699000e+02
8.100000e+02 9.100300e+02
8.110000e+02 9.519206e+02
8.120000e+02 9.956198e+02
8.130000e+02 1.041207e+03
8.140000e+02 1.088750e+03
8.150000e+02 1.138329e+03
8.160000e+02 1.190034e+03
8.170000e+02 1.243939e+03
8.180000e+02 1.300136e+03
8.190000e+02 1.358715e+03
8.200000e+02 1.419770e+03
8.210000e+02 1.483399e+03
8.220000e+02 1.549704e+03
8.230000e+02 1.618788e+03
8.240000e+02 1.690762e+03
8.250000e+02 1.765736e+03
8.260000e+02 1.843811e+03
8.270000e+02 1.925141e+03
8.280000e+02 2.009835e+03
8.290000e+02 2.098021e+03
8.300000e+02 2.189836e+03
8.310000e+02 2.285417e+03
8.320000e+02 2.384908e+03
8.330000e+02 2.488450e+03
8.340000e+02 2.596213e+03
8.350000e+02 2.707916e+03
8.360000e+02 2.824933e+03
8.370000e+02 2.946335e+03
8.380000e+02 3.072571e+03
8.390000e+02 3.203935e+03
8.400000e+02 3.340526e+03
8.410000e+02 3.482565e+03
8.420000e+02 3.630165e+03
8.430000e+02 3.783840e+03
8.440000e+02 3.943489e+03
8.450000e+02 4.109444e+03
8.460000e+02 4.281935e+03
8.470000e+02 4.461205e+03
8.480000e+02 4.647499e+03
8.490000e+02 4.841072e+03
8.500000e+02 5.042190e+03
8.510000e+02 5.251125e+03
8.520000e+02 5.468146e+03
8.530000e+02 5.693583e+03
8.540000e+02 5.927744e+03
8.550000e+02 6.170870e+03
8.560000e+02 6.423319e+03
8.570000e+02 6.685427e+03
8.580000e+02 6.957359e+03
8.590000e+02 7.239820e+03
8.600000e+02 7.533000e+03
8.610000e+02 7.837278e+03
8.620000e+02 8.153044e+03
8.630000e+02 8.480687e+03
8.640000e+02 8.820663e+03
8.650000e+02 9.173331e+03
8.660000e+02 9.539233e+03
8.670000e+02 9.918740e+03
8.680000e+02 1.031235e+04
8.690000e+02 1.072055e+04
8.700000e+02 1.114381e+04
8.710000e+02 1.158275e+04
8.720000e+02 1.203780e+04
8.730000e+02 1.250953e+04
8.740000e+02 1.299853e+04
8.750000e+02 1.350537e+04
8.760000e+02 1.403066e+04
8.770000e+02 1.457481e+04
8.780000e+02 1.513894e+04
8.790000e+02 1.572338e+04
8.800000e+02 1.632888e+04
8.810000e+02 1.695568e+04
8.820000e+02 1.760540e+04
8.830000e+02 1.827835e+04
8.840000e+02 1.897528e+04
8.850000e+02 1.969701e+04
8.860000e+02 2.044432e+04
8.870000e+02 2.121808e+04
8.880000e+02 2.201915e+04
8.890000e+02 2.284842e+04
8.900000e+02 2.370680e+04
8.910000e+02 2.459525e+04
8.920000e+02 2.546071e+04
8.930000e+02 2.646624e+04
8.940000e+02 2.745082e+04
8.950000e+02 2.846950e+04
8.960000e+02 2.952348e+04
8.970000e+02 3.061377e+04
8.980000e+02 3.174156e+04
8.990000e+02 3.290806e+04
9.000000e+02 3.411447e+04
9.010000e+02 3.536209e+04
9.020000e+02 3.665118e+04
9.030000e+02 3.798507e+04
9.040000e+02 3.936342e+04
9.050000e+02 4.078979e+04
9.060000e+02 4.226365e+04
9.070000e+02 4.378588e+04
9.080000e+02 4.536142e+04
9.090000e+02 4.698854e+04
9.100000e+02 4.866996e+04
9.110000e+02 5.040766e+04
9.120000e+02 5.220461e+04
9.130000e+02 5.285657e+04
9.140000e+02 5.722648e+04
9.150000e+02 2.502488e+05
9.160000e+02 9.812166e+05
9.170000e+02 1.038811e+06
9.180000e+02 1.013322e+06
9.190000e+02 1.145659e+06
9.200000e+02 1.188107e+06
9.210000e+02 6.737562e+04
9.220000e+02 1.256500e+06
9.230000e+02 1.195121e+06
9.240000e+02 1.151121e+06
9.250000e+02 1.341792e+06
9.260000e+02 1.357535e+06
9.270000e+02 1.438299e+06
9.280000e+02 1.482449e+06
9.290000e+02 1.295275e+06
9.300000e+02 1.540940e+06
9.310000e+02 1.555205e+06
9.320000e+02 1.651555e+06
9.330000e+02 1.692364e+06
9.340000e+02 1.742337e+06
9.350000e+02 5.596062e+05
9.360000e+02 1.830551e+06
9.370000e+02 3.830816e+05
9.380000e+02 1.068478e+06
9.390000e+02 1.988542e+06
9.400000e+02 2.043723e+06
9.410000e+02 1.126121e+06
9.420000e+02 2.155496e+06
9.430000e+02 2.212824e+06
9.440000e+02 1.401868e+06
9.450000e+02 2.330722e+06
9.460000e+02 2.392048e+06
9.470000e+02 1.641461e+06
9.480000e+02 2.301007e+06
9.490000e+02 2.552085e+06
9.500000e+02 5.362520e+05
9.510000e+02 2.599375e+06
9.520000e+02 2.793152e+06
9.530000e+02 2.841838e+06
9.540000e+02 2.370307e+06
9.550000e+02 3.020292e+06
9.560000e+02 2.765849e+06
9.570000e+02 2.495055e+06
9.580000e+02 3.235178e+06
9.590000e+02 3.359199e+06
9.600000e+02 7.615998e+05
9.610000e+02 3.533007e+06
9.620000e+02 3.623604e+06
9.630000e+02 3.721163e+06
9.640000e+02 3.121735e+05
9.650000e+02 3.511707e+06
9.660000e+02 4.010930e+06
9.670000e+02 4.085501e+06
9.680000e+02 4.182710e+06
9.690000e+02 4.286116e+06
9.700000e+02 4.412512e+06
9.710000e+02 4.479848e+06
9.720000e+02 4.144268e+06
9.730000e+02 4.111433e+06
9.740000e+02 4.798438e+06
9.750000e+02 4.991603e+06
9.760000e+02 5.131682e+06
9.770000e+02 5.263996e+06
9.780000e+02 5.383660e+06
9.790000e+02 5.534118e+06
9.800000e+02 5.668627e+06
9.810000e+02 5.811958e+06
9.820000e+02 5.923195e+06
9.830000e+02 6.096950e+06
9.840000e+02 2.133196e+06
9.850000e+02 6.400618e+06
9.860000e+02 6.555548e+06
9.870000e+02 6.713507e+06
9.880000e+02 6.840660e+06
9.890000e+02 5.176098e+06
9.900000e+02 8.169503e+05
9.910000e+02 7.316393e+06
9.920000e+02 6.552300e+06
9.930000e+02 7.208733e+06
9.940000e+02 1.223876e+06
9.950000e+02 1.823839e+06
9.960000e+02 2.602488e+06
9.970000e+02 1.745702e+06
9.980000e+02 8.687235e+06
9.990000e+02 8.697186e+06
1.000000e+03 9.134253e+06
1.001000e+03 9.350475e+06
1.002000e+03 9.565417e+06
1.003000e+03 8.942641e+06
1.004000e+03 1.000997e+07
1.005000e+03 9.140977e+06
1.006000e+03 1.049474e+07
1.007000e+03 1.071981e+07
1.008000e+03 1.096731e+07
1.009000e+03 1.093465e+07
1.010000e+03 1.149637e+07
1.011000e+03 1.175926e+07
1.012000e+03 1.202579e+07
1.013000e+03 1.230011e+07
1.014000e+03 1.248176e+07
1.015000e+03 1.264386e+07
1.016000e+03 1.312336e+07
1.017000e+03 1.334856e+07
1.018000e+03 1.371706e+07
1.019000e+03 1.398789e+07
1.020000e+03 1.429503e+07
1.021000e+03 1.019492e+07
1.022000e+03 1.408493e+07
1.023000e+03 1.480741e+07
1.024000e+03 1.407262e+07
1.025000e+03 1.021519e+07
1.026000e+03 4.323026e+06
1.027000e+03 1.409603e+07
1.028000e+03 4.947506e+06
1.029000e+03 1.707135e+07
1.030000e+03 1.750351e+07
1.031000e+03 1.824084e+07
1.032000e+03 1.859921e+07
1.033000e+03 1.060582e+07
1.034000e+03 1.960907e+07
1.035000e+03 4.515666e+06
1.036000e+03 1.971964e+07
1.037000e+03 2.706704e+06
1.038000e+03 2.143597e+07
1.039000e+03 2.169728e+07
1.040000e+03 2.240046e+07
1.041000e+03 2.276004e+07
1.042000e+03 2.304301e+07
1.043000e+03 2.345035e+07
1.044000e+03 2.435979e+07
1.045000e+03 2.490221e+07
1.046000e+03 2.550168e+07
1.047000e+03 2.603248e+07
1.048000e+03 2.642661e+07
1.049000e+03 2.627211e+07
1.050000e+03 2.776322e+07
1.051000e+03 2.835650e+07
1.052000e+03 2.896903e+07
1.053000e+03 2.920359e+07
1.054000e+03 2.995892e+07
1.055000e+03 3.073927e+07
1.056000e+03 3.150671e+07
1.057000e+03 3.215601e+07
1.058000e+03 3.281996e+07
1.059000e+03 3.350084e+07
1.060000e+03 3.419171e+07
1.061000e+03 3.495256e+07
1.062000e+03 3.567564e+07
1.063000e+03 1.696325e+07
1.064000e+03 7.868190e+06
1.065000e+03 3.803852e+07
1.066000e+03 3.493608e+07
1.067000e+03 3.858003e+07
1.068000e+03 4.067579e+07
1.069000e+03 4.104981e+07
1.070000e+03 4.185185e+07
1.071000e+03 4.326344e+07
1.072000e+03 4.414403e+07
1.073000e+03 4.487512e+07
1.074000e+03 4.595441e+07
1.075000e+03 4.687176e+07
1.076000e+03 4.784848e+07
1.077000e+03 4.873686e+07
1.078000e+03 4.978082e+07
1.079000e+03 5.062566e+07
1.080000e+03 5.179998e+07
1.081000e+03 5.286521e+07
1.082000e+03 5.389468e+07
1.083000e+03 5.494068e+07
1.084000e+03 5.495910e+07
1.085000e+03 4.032090e+07
1.086000e+03 5.836391e+07
1.087000e+03 5.944606e+07
1.088000e+03 6.046842e+07
1.089000e+03 6.187662e+07
1.090000e+03 6.301290e+07
1.091000e+03 6.426764e+07
1.092000e+03 6.559636e+07
1.093000e+03 6.682112e+07
1.094000e+03 6.819289e+07
1.095000e+03 6.945906e+07
1.096000e+03 7.085716e+07
1.097000e+03 7.145747e+07
1.098000e+03 7.276717e+07
1.099000e+03 7.499052e+07
1.100000e+03 7.496009e+07
1.101000e+03 7.091784e+07
1.102000e+03 1.629645e+08
1.103000e+03 5.464952e+08
1.104000e+03 2.028700e+08
1.105000e+03 7.703616e+07
1.106000e+03 1.384960e+09
1.107000e+03 1.178755e+09
1.108000e+03 1.418240e+09
1.109000e+03 7.959820e+08
1.110000e+03 2.222940e+08
1.111000e+03 1.811602e+08
1.112000e+03 1.269078e+09
1.113000e+03 1.546033e+09
1.114000e+03 6.055667e+07
1.115000e+03 1.482325e+09
1.116000e+03 1.550530e+09
1.117000e+03 6.605952e+07
1.118000e+03 1.088019e+09
1.119000e+03 1.660323e+09
1.120000e+03 1.651604e+09
1.121000e+03 1.390822e+09
1.122000e+03 2.138944e+07
1.123000e+03 1.492995e+08
1.124000e+03 1.776446e+09
1.125000e+03 6.781233e+08
1.126000e+03 1.838951e+09
1.127000e+03 1.768717e+09
1.128000e+03 8.850157e+08
1.129000e+03 1.864151e+09
1.130000e+03 1.553243e+09
1.131000e+03 1.982039e+09
1.132000e+03 5.926426e+07
1.133000e+03 1.601367e+09
1.134000e+03 1.957779e+09
1.135000e+03 3.542950e+07
1.136000e+03 2.067596e+09
1.137000e+03 2.149698e+09
1.138000e+03 2.179627e+09
1.139000e+03 2.149501e+09
1.140000e+03 4.093824e+07
1.141000e+03 2.281797e+09
1.142000e+03 2.212764e+09
1.143000e+03 2.334911e+09
1.144000e+03 2.377151e+09
1.145000e+03 1.796966e+09
1.146000e+03 2.438640e+09
1.147000e+03 2.423821e+09
1.148000e+03 2.415345e+09
1.149000e+03 2.538960e+09
1.150000e+03 2.487210e+09
1.151000e+03 2.586940e+09
1.152000e+03 2.626696e+09
1.153000e+03 5.638559e+08
1.154000e+03 1.018540e+08
1.155000e+03 1.795232e+09
1.156000e+03 6.199498e+08
1.157000e+03 2.813778e+09
1.158000e+03 6.334324e+07
1.159000e+03 2.331190e+09
1.160000e+03 2.818681e+09
1.161000e+03 2.993525e+09
1.162000e+03 4.769848e+08
1.163000e+03 2.999389e+09
1.164000e+03 1.139411e+08
1.165000e+03 3.152861e+09
1.166000e+03 3.155954e+09
1.167000e+03 3.087150e+09
1.168000e+03 3.289676e+09
1.169000e+03 3.210608e+09
1.170000e+03 3.381775e+09
1.171000e+03 3.427214e+09
1.172000e+03 3.364973e+09
1.173000e+03 3.510257e+09
1.174000e+03 3.366299e+09
1.175000e+03 1.251200e+08
1.176000e+03 9.413402e+07
1.177000e+03 3.669218e+09
1.178000e+03 3.391878e+09
1.179000e+03 3.775263e+09
1.180000e+03 2.975407e+09
1.181000e+03 3.808195e+09
1.182000e+03 3.905130e+09
1.183000e+03 3.939629e+09
1.184000e+03 3.975353e+09
1.185000e+03 3.886480e+09
1.186000e+03 4.016161e+09
1.187000e+03 4.063455e+09
1.188000e+03 3.998562e+09
1.189000e+03 1.035151e+08
1.190000e+03 5.325038e+08
1.191000e+03 4.015954e+09
1.192000e+03 4.030575e+09
1.193000e+03 9.038131e+07
1.194000e+03 1.191035e+08
1.195000e+03 2.503012e+09
1.196000e+03 3.984353e+09
1.197000e+03 4.650384e+09
1.198000e+03 4.661583e+09
1.199000e+03 4.509082e+09
1.200000e+03 3.960601e+09
1.201000e+03 4.141379e+09
1.202000e+03 4.060043e+09
1.203000e+03 4.238824e+09
1.204000e+03 3.818407e+09
1.205000e+03 3.529084e+09
1.206000e+03 2.978402e+09
1.207000e+03 1.120106e+09
1.208000e+03 2.325103e+09
1.209000e+03 1.760664e+09
1.210000e+03 1.925870e+08
1.211000e+03 1.040941e+09
1.212000e+03 6.799215e+08
1.213000e+03 4.254546e+08
1.214000e+03 2.497794e+08
1.215000e+03 1.578728e+08
1.216000e+03 1.420270e+08
1.217000e+03 2.204272e+08
1.218000e+03 3.850695e+08
1.219000e+03 6.632553e+08
1.220000e+03 1.055800e+09
1.221000e+03 1.546626e+09
1.222000e+03 2.112092e+09
1.223000e+03 2.732087e+09
1.224000e+03 3.389747e+09
1.225000e+03 4.055910e+09
1.226000e+03 4.733916e+09
1.227000e+03 5.397749e+09
1.228000e+03 6.140986e+09
1.229000e+03 6.812357e+09
1.230000e+03 7.483561e+09
1.231000e+03 8.136806e+09
1.232000e+03 8.815610e+09
1.233000e+03 9.441117e+09
1.234000e+03 5.900950e+09
1.235000e+03 1.061614e+10
1.236000e+03 1.113403e+10
1.237000e+03 1.173793e+10
1.238000e+03 1.227126e+10
1.239000e+03 1.279015e+10
1.240000e+03 1.205434e+10
1.241000e+03 2.194971e+10
1.242000e+03 1.170742e+10
1.243000e+03 1.768662e+10
1.244000e+03 7.131005e+09
1.245000e+03 1.087411e+10
1.246000e+03 3.580581e+10
1.247000e+03 3.768436e+10
1.248000e+03 7.834700e+09
1.249000e+03 9.892671e+09
1.250000e+03 4.503058e+10
1.251000e+03 4.662498e+10
1.252000e+03 4.724141e+10
1.253000e+03 5.179664e+10
1.254000e+03 5.276036e+10
1.255000e+03 5.523427e+10
1.256000e+03 5.628566e+10
1.257000e+03 5.978985e+10
1.258000e+03 5.908544e+10
1.259000e+03 5.774735e+10
1.260000e+03 4.438184e+10
1.261000e+03 3.308106e+08
1.262000e+03 4.692351e+09
1.263000e+03 6.718977e+10
1.264000e+03 5.688863e+10
1.265000e+03 3.176806e+08
1.266000e+03 7.129665e+10
1.267000e+03 7.709939e+10
