# wavelength_A flux
5.000000e+02 2.100494e-29
5.010000e+02 2.625946e-29
5.020000e+02 3.279861e-29
5.030000e+02 4.092916e-29
5.040000e+02 5.102936e-29
5.050000e+02 6.385256e-29
5.060000e+02 7.945800e-29
5.070000e+02 9.878438e-29
5.080000e+02 1.227144e-28
5.090000e+02 1.523024e-28
5.100000e+02 1.880873e-28
5.110000e+02 2.339962e-28
5.120000e+02 2.896541e-28
5.130000e+02 3.582861e-28
5.140000e+02 4.427830e-28
5.150000e+02 5.467481e-28
5.160000e+02 6.745612e-28
5.170000e+02 8.315716e-28
5.180000e+02 1.024279e-27
5.190000e+02 1.260612e-27
5.200000e+02 1.550211e-27
5.210000e+02 1.904798e-27
5.220000e+02 2.338541e-27
5.230000e+02 2.868920e-27
5.240000e+02 3.516698e-27
5.250000e+02 4.307323e-27
5.260000e+02 5.271548e-27
5.270000e+02 6.446577e-27
5.280000e+02 7.877392e-27
5.290000e+02 9.618333e-27
5.300000e+02 1.173501e-26
5.310000e+02 1.430654e-26
5.320000e+02 1.742833e-26
5.330000e+02 2.121526e-26
5.340000e+02 2.580563e-26
5.350000e+02 3.136574e-26
5.360000e+02 3.809547e-26
5.370000e+02 4.617821e-26
5.380000e+02 5.607230e-26
5.390000e+02 6.795310e-26
5.400000e+02 8.229127e-26
5.410000e+02 9.958233e-26
5.420000e+02 1.204209e-25
5.430000e+02 1.455155e-25
5.440000e+02 1.757144e-25
5.450000e+02 2.120306e-25
5.460000e+02 2.556724e-25
5.470000e+02 3.080813e-25
5.480000e+02 3.709750e-25
5.490000e+02 4.463990e-25
5.500000e+02 5.367881e-25
5.510000e+02 6.450379e-25
5.520000e+02 7.745899e-25
5.530000e+02 9.295320e-25
5.540000e+02 1.114716e-24
5.550000e+02 1.335898e-24
5.560000e+02 1.599900e-24
5.570000e+02 1.914805e-24
5.580000e+02 2.290183e-24
5.590000e+02 2.737353e-24
5.600000e+02 3.269704e-24
5.610000e+02 3.903051e-24
5.620000e+02 4.656074e-24
5.630000e+02 5.550815e-24
5.640000e+02 6.613274e-24
5.650000e+02 7.874092e-24
5.660000e+02 9.369365e-24
5.670000e+02 1.114159e-23
5.680000e+02 1.324075e-23
5.690000e+02 1.572563e-23
5.700000e+02 1.866530e-23
5.710000e+02 2.214088e-23
5.720000e+02 2.624757e-23
5.730000e+02 3.109703e-23
5.740000e+02 3.682017e-23
5.750000e+02 4.357036e-23
5.760000e+02 5.152716e-23
5.770000e+02 6.090083e-23
5.780000e+02 7.193696e-23
5.790000e+02 8.492290e-23
5.800000e+02 1.001942e-22
5.810000e+02 1.181428e-22
5.820000e+02 1.392257e-22
5.830000e+02 1.639760e-22
5.840000e+02 1.930132e-22
5.850000e+02 2.270674e-22
5.860000e+02 2.669761e-22
5.870000e+02 3.137207e-22
5.880000e+02 3.684423e-22
5.890000e+02 4.324666e-22
5.900000e+02 5.073335e-22
5.910000e+02 5.948314e-22
5.920000e+02 6.970350e-22
5.930000e+02 8.163511e-22
5.940000e+02 9.555695e-22
5.950000e+02 1.117922e-21
5.960000e+02 1.307153e-21
5.970000e+02 1.527593e-21
5.980000e+02 1.784253e-21
5.990000e+02 2.082927e-21
6.000000e+02 2.430310e-21
6.010000e+02 2.834135e-21
6.020000e+02 3.303327e-21
6.030000e+02 3.848186e-21
6.040000e+02 4.480589e-21
6.050000e+02 5.214227e-21
6.060000e+02 6.064870e-21
6.070000e+02 7.050679e-21
6.080000e+02 8.192557e-21
6.090000e+02 9.514546e-21
6.100000e+02 1.104429e-20
6.110000e+02 1.281357e-20
6.120000e+02 1.485886e-20
6.130000e+02 1.722207e-20
6.140000e+02 1.995128e-20
6.150000e+02 2.310164e-20
6.160000e+02 2.673636e-20
6.170000e+02 3.092791e-20
6.180000e+02 3.575924e-20
6.190000e+02 4.132538e-20
6.200000e+02 4.773502e-20
6.210000e+02 5.511250e-20
6.220000e+02 6.359995e-20
6.230000e+02 7.335981e-20
6.240000e+02 8.457760e-20
6.250000e+02 9.746513e-20
6.260000e+02 1.122641e-19
6.270000e+02 1.292502e-19
6.280000e+02 1.487377e-19
6.290000e+02 1.710848e-19
6.300000e+02 1.966996e-19
6.310000e+02 2.260454e-19
6.320000e+02 2.596547e-19
6.330000e+02 2.981252e-19
6.340000e+02 3.421421e-19
6.350000e+02 3.924826e-19
6.360000e+02 4.500302e-19
6.370000e+02 5.157877e-19
6.380000e+02 5.908937e-19
6.390000e+02 6.766399e-19
6.400000e+02 7.744915e-19
6.410000e+02 8.861096e-19
6.420000e+02 1.013376e-18
6.430000e+02 1.158424e-18
6.440000e+02 1.323667e-18
6.450000e+02 1.511837e-18
6.460000e+02 1.726027e-18
6.470000e+02 1.969731e-18
6.480000e+02 2.246902e-18
6.490000e+02 2.562006e-18
6.500000e+02 2.920085e-18
6.510000e+02 3.326834e-18
6.520000e+02 3.788681e-18
6.530000e+02 4.312875e-18
6.540000e+02 4.907593e-18
6.550000e+02 5.582052e-18
6.560000e+02 6.346636e-18
6.570000e+02 7.213046e-18
6.580000e+02 8.194449e-18
6.590000e+02 9.305672e-18
6.600000e+02 1.056339e-17
6.610000e+02 1.198636e-17
6.620000e+02 1.359567e-17
6.630000e+02 1.541502e-17
6.640000e+02 1.747102e-17
6.650000e+02 1.979356e-17
6.660000e+02 2.241619e-17
6.670000e+02 2.537657e-17
6.680000e+02 2.871692e-17
6.690000e+02 3.248459e-17
6.700000e+02 3.673265e-17
6.710000e+02 4.152056e-17
6.720000e+02 4.691491e-17
6.730000e+02 5.299028e-17
6.740000e+02 5.983012e-17
6.750000e+02 6.752778e-17
6.760000e+02 7.618770e-17
6.770000e+02 8.592661e-17
6.780000e+02 9.687499e-17
6.790000e+02 1.091786e-16
6.800000e+02 1.230002e-16
6.810000e+02 1.385217e-16
6.820000e+02 1.559457e-16
6.830000e+02 1.754986e-16
6.840000e+02 1.974328e-16
6.850000e+02 2.220297e-16
6.860000e+02 2.496029e-16
6.870000e+02 2.805017e-16
6.880000e+02 3.151152e-16
6.890000e+02 3.538768e-16
6.900000e+02 3.972685e-16
6.910000e+02 4.458268e-16
6.920000e+02 5.001486e-16
6.930000e+02 5.608972e-16
6.940000e+02 6.288100e-16
6.950000e+02 7.047066e-16
6.960000e+02 7.894971e-16
6.970000e+02 8.841922e-16
6.980000e+02 9.899137e-16
6.990000e+02 1.107907e-15
7.000000e+02 1.239553e-15
7.010000e+02 1.386383e-15
7.020000e+02 1.550096e-15
7.030000e+02 1.732573e-15
7.040000e+02 1.935899e-15
7.050000e+02 2.162384e-15
7.060000e+02 2.414585e-15
7.070000e+02 2.695333e-15
7.080000e+02 3.007758e-15
7.090000e+02 3.355327e-15
7.100000e+02 3.741869e-15
7.110000e+02 4.171621e-15
7.120000e+02 4.649263e-15
7.130000e+02 5.179969e-15
7.140000e+02 5.769450e-15
7.150000e+02 6.424014e-15
7.160000e+02 7.150624e-15
7.170000e+02 7.956964e-15
7.180000e+02 8.851509e-15
7.190000e+02 9.843609e-15
7.200000e+02 1.094357e-14
7.210000e+02 1.216275e-14
7.220000e+02 1.351368e-14
7.230000e+02 1.501013e-14
7.240000e+02 1.666730e-14
7.250000e+02 1.850191e-14
7.260000e+02 2.053235e-14
7.270000e+02 2.277887e-14
7.280000e+02 2.526376e-14
7.290000e+02 2.801148e-14
7.300000e+02 3.104898e-14
7.310000e+02 3.440584e-14
7.320000e+02 3.811459e-14
7.330000e+02 4.221092e-14
7.340000e+02 4.673407e-14
7.350000e+02 5.172710e-14
7.360000e+02 5.723725e-14
7.370000e+02 6.331639e-14
7.380000e+02 7.002139e-14
7.390000e+02 7.741462e-14
7.400000e+02 8.556448e-14
7.410000e+02 9.454590e-14
7.420000e+02 1.044410e-13
7.430000e+02 1.153398e-13
7.440000e+02 1.273408e-13
7.450000e+02 1.405518e-13
7.460000e+02 1.550910e-13
7.470000e+02 1.710876e-13
7.480000e+02 1.886828e-13
7.490000e+02 2.080314e-13
7.500000e+02 2.293024e-13
7.510000e+02 2.526805e-13
7.520000e+02 2.783677e-13
7.530000e+02 3.065847e-13
7.540000e+02 3.375725e-13
7.550000e+02 3.715944e-13
7.560000e+02 4.089376e-13
7.570000e+02 4.499158e-13
7.580000e+02 4.948712e-13
7.590000e+02 5.441773e-13
7.600000e+02 5.982413e-13
7.610000e+02 6.575071e-13
7.620000e+02 7.224588e-13
7.630000e+02 7.936240e-13
7.640000e+02 8.715773e-13
7.650000e+02 9.569449e-13
7.660000e+02 1.050409e-12
7.670000e+02 1.152711e-12
7.680000e+02 1.264660e-12
7.690000e+02 1.387135e-12
7.700000e+02 1.521093e-12
7.710000e+02 1.667575e-12
7.720000e+02 1.827712e-12
7.730000e+02 2.002736e-12
7.740000e+02 2.193982e-12
7.750000e+02 2.402906e-12
7.760000e+02 2.631086e-12
7.770000e+02 2.880237e-12
7.780000e+02 3.152223e-12
7.790000e+02 3.449065e-12
7.800000e+02 3.772959e-12
7.810000e+02 4.126286e-12
7.820000e+02 4.511631e-12
7.830000e+02 4.931798e-12
7.840000e+02 5.389826e-12
7.850000e+02 5.889012e-12
7.860000e+02 6.432929e-12
7.870000e+02 7.025448e-12
7.880000e+02 7.670766e-12
7.890000e+02 8.373425e-12
7.900000e+02 9.138349e-12
7.910000e+02 9.970866e-12
7.920000e+02 1.087674e-11
7.930000e+02 1.186223e-11
7.940000e+02 1.293407e-11
7.950000e+02 1.409958e-11
7.960000e+02 1.536667e-11
7.970000e+02 1.674388e-11
7.980000e+02 1.824045e-11
7.990000e+02 1.986636e-11
8.000000e+02 2.163243e-11
8.010000e+02 2.355030e-11
8.020000e+02 2.563257e-11
8.030000e+02 2.789284e-11
8.040000e+02 3.034582e-11
8.050000e+02 3.300734e-11
8.060000e+02 3.589454e-11
8.070000e+02 3.902587e-11
8.080000e+02 4.242126e-11
8.090000e+02 4.610220e-11
8.100000e+02 5.009186e-11
8.110000e+02 5.441524e-11
8.120000e+02 5.909925e-11
8.130000e+02 6.417295e-11
8.140000e+02 6.966759e-11
8.150000e+02 7.561689e-11
8.160000e+02 8.205712e-11
8.170000e+02 8.902738e-11
8.180000e+02 9.656975e-11
8.190000e+02 1.047295e-10
8.200000e+02 1.135555e-10
8.210000e+02 1.231000e-10
8.220000e+02 1.334196e-10
8.230000e+02 1.445749e-10
8.240000e+02 1.566313e-10
8.250000e+02 1.696589e-10
8.260000e+02 1.837331e-10
8.270000e+02 1.989350e-10
8.280000e+02 2.153519e-10
8.290000e+02 2.330772e-10
8.300000e+02 2.522115e-10
8.310000e+02 2.728629e-10
8.320000e+02 2.951473e-10
8.330000e+02 3.191891e-10
8.340000e+02 3.451220e-10
8.350000e+02 3.730894e-10
8.360000e+02 4.032450e-10
8.370000e+02 4.357540e-10
8.380000e+02 4.707934e-10
8.390000e+02 5.085529e-10
8.400000e+02 5.492360e-10
8.410000e+02 5.930610e-10
8.420000e+02 6.402617e-10
8.430000e+02 6.910885e-10
8.440000e+02 7.458099e-10
8.450000e+02 8.047134e-10
8.460000e+02 8.681069e-10
8.470000e+02 9.363202e-10
8.480000e+02 1.009706e-09
8.490000e+02 1.088643e-09
8.500000e+02 1.173535e-09
8.510000e+02 1.264815e-09
8.520000e+02 1.362946e-09
8.530000e+02 1.468423e-09
8.540000e+02 1.581776e-09
8.550000e+02 1.703570e-09
8.560000e+02 1.834413e-09
8.570000e+02 1.974950e-09
8.580000e+02 2.125873e-09
8.590000e+02 2.287922e-09
8.600000e+02 2.461886e-09
8.610000e+02 2.648609e-09
8.620000e+02 2.848992e-09
8.630000e+02 3.063996e-09
8.640000e+02 3.294649e-09
8.650000e+02 3.542047e-09
8.660000e+02 3.807360e-09
8.670000e+02 4.091837e-09
8.680000e+02 4.396810e-09
8.690000e+02 4.723701e-09
8.700000e+02 5.074024e-09
8.710000e+02 5.449398e-09
8.720000e+02 5.851545e-09
8.730000e+02 6.282303e-09
8.740000e+02 6.743630e-09
8.750000e+02 7.237615e-09
8.760000e+02 7.766480e-09
8.770000e+02 8.332596e-09
8.780000e+02 8.938487e-09
8.790000e+02 9.586842e-09
8.800000e+02 1.028052e-08
8.810000e+02 1.102257e-08
8.820000e+02 1.181625e-08
8.830000e+02 1.266499e-08
8.840000e+02 1.357248e-08
8.850000e+02 1.454263e-08
8.860000e+02 1.557959e-08
8.870000e+02 1.668780e-08
8.880000e+02 1.787195e-08
8.890000e+02 1.913707e-08
8.900000e+02 2.048845e-08
8.910000e+02 2.193177e-08
8.920000e+02 2.347303e-08
8.930000e+02 2.511863e-08
8.940000e+02 2.687535e-08
8.950000e+02 2.875041e-08
8.960000e+02 3.075147e-08
8.970000e+02 3.288666e-08
8.980000e+02 3.516463e-08
8.990000e+02 3.759455e-08
9.000000e+02 4.018618e-08
9.010000e+02 4.294983e-08
9.020000e+02 4.589650e-08
9.030000e+02 4.903782e-08
9.040000e+02 5.238614e-08
9.050000e+02 5.595458e-08
9.060000e+02 5.975704e-08
9.070000e+02 6.380827e-08
9.080000e+02 6.812388e-08
9.090000e+02 7.272047e-08
9.100000e+02 7.761560e-08
9.110000e+02 8.282789e-08
9.120000e+02 8.837709e-08
9.130000e+02 9.428410e-08
9.140000e+02 1.020662e-07
9.150000e+02 2.482766e-05
9.160000e+02 1.234338e-04
9.170000e+02 2.915579e-06
9.180000e+02 3.190804e-05
9.190000e+02 3.373782e-04
9.200000e+02 8.750295e-04
9.210000e+02 1.573763e-07
9.220000e+02 2.403913e-04
9.230000e+02 3.471573e-06
9.240000e+02 5.040667e-06
9.250000e+02 3.945176e-05
9.260000e+02 4.348824e-05
9.270000e+02 4.120650e-06
9.280000e+02 3.921269e-03
9.290000e+02 4.391939e-03
9.300000e+02 1.059300e-03
9.310000e+02 5.058232e-06
9.320000e+02 3.560365e-03
9.330000e+02 2.142945e-04
9.340000e+02 6.350968e-05
9.350000e+02 1.409771e-05
9.360000e+02 1.119904e-05
9.370000e+02 2.619945e-06
9.380000e+02 9.909211e-06
9.390000e+02 3.001486e-05
9.400000e+02 2.076352e-03
9.410000e+02 3.146787e-04
9.420000e+02 1.307786e-02
9.430000e+02 4.457496e-05
9.440000e+02 1.489776e-02
9.450000e+02 1.241786e-02
9.460000e+02 6.721493e-04
9.470000e+02 1.827852e-06
9.480000e+02 3.879501e-03
9.490000e+02 5.804386e-04
9.500000e+02 1.697355e-05
9.510000e+02 5.467351e-04
9.520000e+02 1.174182e-03
9.530000e+02 1.052274e-05
9.540000e+02 2.142661e-06
9.550000e+02 1.144307e-04
9.560000e+02 1.447741e-02
9.570000e+02 5.940197e-05
9.580000e+02 1.583714e-06
9.590000e+02 5.504113e-03
9.600000e+02 3.192056e-05
9.610000e+02 8.844277e-04
9.620000e+02 3.296723e-04
9.630000e+02 7.644203e-05
9.640000e+02 1.498163e-05
9.650000e+02 5.686656e-06
9.660000e+02 1.237383e-04
9.670000e+02 2.398971e-05
9.680000e+02 1.606857e-05
9.690000e+02 7.286430e-04
9.700000e+02 7.872689e-04
9.710000e+02 3.475530e-05
9.720000e+02 1.830765e-05
9.730000e+02 1.486387e-04
9.740000e+02 8.598160e-04
9.750000e+02 2.476209e-04
9.760000e+02 7.691561e-03
9.770000e+02 3.586606e-03
9.780000e+02 1.322206e-03
9.790000e+02 5.645832e-02
9.800000e+02 4.945069e-02
9.810000e+02 9.246431e-04
9.820000e+02 1.783725e-04
9.830000e+02 2.762078e-02
9.840000e+02 2.457715e-03
9.850000e+02 4.487622e-04
9.860000e+02 7.112634e-04
9.870000e+02 3.162749e-02
9.880000e+02 1.683645e-05
9.890000e+02 4.417860e-03
9.900000e+02 1.305687e-02
9.910000e+02 1.741768e-04
9.920000e+02 1.046529e-05
9.930000e+02 1.100576e-01
9.940000e+02 2.272835e-05
9.950000e+02 5.143386e-03
9.960000e+02 5.704910e-05
9.970000e+02 6.612659e-03
9.980000e+02 1.558398e-02
9.990000e+02 3.198496e-04
1.000000e+03 1.848371e-01
1.001000e+03 1.456890e-01
1.002000e+03 9.132664e-02
1.003000e+03 3.411099e-04
1.004000e+03 3.061444e-05
1.005000e+03 1.114070e-03
1.006000e+03 5.676994e-02
1.007000e+03 1.141904e-01
1.008000e+03 2.657466e-02
1.009000e+03 5.369132e-04
1.010000e+03 2.846394e-02
1.011000e+03 4.900297e-02
1.012000e+03 3.768236e-02
1.013000e+03 3.340971e-02
1.014000e+03 3.341213e-05
1.015000e+03 5.279854e-05
1.016000e+03 1.391266e-03
1.017000e+03 3.838539e-05
1.018000e+03 5.258657e-04
1.019000e+03 5.464256e-05
1.020000e+03 8.532238e-02
1.021000e+03 8.954480e-04
1.022000e+03 1.320340e-03
1.023000e+03 1.024678e-04
1.024000e+03 1.581663e-02
1.025000e+03 5.762628e-05
1.026000e+03 1.069597e-04
1.027000e+03 4.029787e-03
1.028000e+03 6.587785e-04
1.029000e+03 7.104129e-05
1.030000e+03 5.704820e-03
1.031000e+03 9.318836e-03
1.032000e+03 1.206268e-01
1.033000e+03 5.301006e-03
1.034000e+03 1.323887e-02
1.035000e+03 4.517958e-04
1.036000e+03 1.029298e-04
1.037000e+03 9.413433e-02
1.038000e+03 6.799330e-01
1.039000e+03 9.835315e-02
1.040000e+03 1.067800e-01
1.041000e+03 8.959289e-01
1.042000e+03 3.753529e-01
1.043000e+03 3.950074e-01
1.044000e+03 2.301163e+00
1.045000e+03 3.508157e-04
1.046000e+03 1.058523e-01
1.047000e+03 3.110451e-02
1.048000e+03 8.419380e-04
1.049000e+03 3.329908e-02
1.050000e+03 1.067568e-02
1.051000e+03 5.896211e-03
1.052000e+03 4.483186e-01
1.053000e+03 1.040272e+00
1.054000e+03 2.422631e-04
1.055000e+03 1.354775e+00
1.056000e+03 1.448806e+00
1.057000e+03 9.003861e-02
1.058000e+03 6.113745e-03
1.059000e+03 4.353464e-03
1.060000e+03 1.318127e-03
1.061000e+03 1.490016e-01
1.062000e+03 3.323249e-03
1.063000e+03 1.255194e-01
1.064000e+03 7.081032e-04
1.065000e+03 4.078746e-04
1.066000e+03 2.178660e-01
1.067000e+03 3.699151e-03
1.068000e+03 3.667194e+00
1.069000e+03 1.062025e-03
1.070000e+03 5.069399e-02
1.071000e+03 8.929223e-01
1.072000e+03 2.476055e+00
1.073000e+03 6.184578e-04
1.074000e+03 9.769987e-02
1.075000e+03 5.692482e-02
1.076000e+03 2.867873e+00
1.077000e+03 4.477933e-03
1.078000e+03 8.355856e-03
1.079000e+03 3.627369e-02
1.080000e+03 1.285120e-01
1.081000e+03 5.535453e-01
1.082000e+03 3.144565e-01
1.083000e+03 1.671734e-01
1.084000e+03 8.443248e+00
1.085000e+03 4.477739e-02
1.086000e+03 5.208975e+00
1.087000e+03 9.533405e-03
1.088000e+03 1.117063e+01
1.089000e+03 1.134781e+01
1.090000e+03 3.570147e-02
1.091000e+03 5.029583e-02
1.092000e+03 7.524491e+00
1.093000e+03 9.690892e+00
1.094000e+03 4.530575e-01
1.095000e+03 1.504525e+01
1.096000e+03 1.276000e+00
1.097000e+03 1.920946e+00
1.098000e+03 1.281930e+01
1.099000e+03 1.331921e-01
1.100000e+03 3.460079e-03
1.101000e+03 8.471422e-03
1.102000e+03 8.345080e-02
1.103000e+03 1.114566e+01
1.104000e+03 1.918034e+01
1.105000e+03 1.484442e+01
1.106000e+03 3.921668e-01
1.107000e+03 5.300045e-03
1.108000e+03 2.560527e+00
1.109000e+03 4.960918e-02
1.110000e+03 2.238003e+01
1.111000e+03 8.352978e+00
1.112000e+03 1.128347e+00
1.113000e+03 1.481478e+01
1.114000e+03 6.758762e-01
1.115000e+03 6.587836e-02
1.116000e+03 2.901138e-02
1.117000e+03 8.914314e+00
1.118000e+03 8.188426e-02
1.119000e+03 1.399717e+00
1.120000e+03 3.787279e-02
1.121000e+03 5.944795e+00
1.122000e+03 3.245561e+01
1.123000e+03 1.306173e+01
1.124000e+03 1.512464e+01
1.125000e+03 6.220680e+00
1.126000e+03 5.738170e+01
1.127000e+03 9.213866e+00
1.128000e+03 2.825477e+01
1.129000e+03 3.766953e+00
1.130000e+03 2.205408e+01
1.131000e+03 3.184276e+01
1.132000e+03 6.933498e-02
1.133000e+03 3.906403e-01
1.134000e+03 4.382191e+00
1.135000e+03 2.494029e+01
1.136000e+03 8.436508e-01
1.137000e+03 1.602267e+01
1.138000e+03 3.607704e+00
1.139000e+03 3.304564e+01
1.140000e+03 3.323102e+01
1.141000e+03 2.781529e+01
1.142000e+03 3.960826e+01
1.143000e+03 5.426468e+00
1.144000e+03 3.829307e+01
1.145000e+03 3.857422e-02
1.146000e+03 4.350276e+01
1.147000e+03 3.312138e+01
1.148000e+03 2.500401e-01
1.149000e+03 1.784958e+01
1.150000e+03 1.162095e+01
1.151000e+03 4.095267e+01
1.152000e+03 2.459037e+01
1.153000e+03 3.358833e+01
1.154000e+03 4.445488e+01
1.155000e+03 1.561670e+01
1.156000e+03 3.571499e+01
1.157000e+03 4.090624e+01
1.158000e+03 6.017689e+00
1.159000e+03 3.782084e+01
1.160000e+03 7.215302e+00
1.161000e+03 3.280761e+01
1.162000e+03 1.029026e+00
1.163000e+03 3.309872e+00
1.164000e+03 2.342806e-01
1.165000e+03 1.722400e+01
1.166000e+03 9.885094e+00
1.167000e+03 8.439121e+00
1.168000e+03 4.352595e+01
1.169000e+03 4.663049e+01
1.170000e+03 6.622893e+00
1.171000e+03 2.198907e+01
1.172000e+03 9.440180e+00
1.173000e+03 1.860552e+01
1.174000e+03 2.182441e-01
1.175000e+03 1.493840e-01
1.176000e+03 5.879545e-02
1.177000e+03 5.739301e+01
1.178000e+03 5.559543e+01
1.179000e+03 4.788579e+01
1.180000e+03 2.101290e+01
1.181000e+03 4.961981e+01
1.182000e+03 4.294721e+01
1.183000e+03 2.203653e+01
1.184000e+03 1.809048e+01
1.185000e+03 2.313086e+01
1.186000e+03 1.063307e+00
1.187000e+03 3.289829e+01
1.188000e+03 1.354484e+01
1.189000e+03 4.096424e+01
1.190000e+03 3.925985e+01
1.191000e+03 2.947644e+01
1.192000e+03 3.341694e+01
1.193000e+03 2.554070e+01
1.194000e+03 3.222418e+01
1.195000e+03 3.058821e+01
1.196000e+03 1.557074e+02
1.197000e+03 2.666970e+02
1.198000e+03 3.107773e+00
1.199000e+03 2.425526e+02
1.200000e+03 9.075138e+00
1.201000e+03 1.914912e+02
1.202000e+03 4.866163e+01
1.203000e+03 1.334702e+02
1.204000e+03 9.143337e+00
1.205000e+03 9.305317e+01
1.206000e+03 8.866633e+01
1.207000e+03 2.036099e+01
1.208000e+03 5.075792e+01
1.209000e+03 4.414278e+01
1.210000e+03 2.615929e-01
1.211000e+03 1.885586e+01
1.212000e+03 8.592574e+00
1.213000e+03 4.946934e+00
1.214000e+03 1.585460e+00
1.215000e+03 2.565681e-01
1.216000e+03 1.908448e-01
1.217000e+03 1.005205e+00
1.218000e+03 4.124245e+00
1.219000e+03 1.018176e+01
1.220000e+03 7.968312e+00
1.221000e+03 3.535141e+01
1.222000e+03 4.618619e+01
1.223000e+03 4.873977e+01
1.224000e+03 1.035295e+02
1.225000e+03 5.004761e+00
1.226000e+03 1.943574e+02
1.227000e+03 2.274681e+02
1.228000e+03 3.236522e+01
1.229000e+03 2.284936e+02
1.230000e+03 1.655293e+02
1.231000e+03 1.937753e+01
1.232000e+03 5.161349e+02
1.233000e+03 5.878646e+02
1.234000e+03 5.468046e+02
1.235000e+03 5.467338e+02
1.236000e+03 5.092004e+01
1.237000e+03 7.609840e+02
1.238000e+03 6.836600e+02
1.239000e+03 3.148709e+02
1.240000e+03 4.223034e+02
1.241000e+03 3.317406e+02
1.242000e+03 6.790801e+02
1.243000e+03 1.040373e+03
1.244000e+03 1.138150e+03
1.245000e+03 1.046454e+03
1.246000e+03 6.391096e+02
1.247000e+03 8.871028e+02
1.248000e+03 1.080613e+03
1.249000e+03 1.413843e+03
1.250000e+03 9.274780e+02
1.251000e+03 1.414476e+03
1.252000e+03 1.070630e+03
1.253000e+03 1.527049e+03
1.254000e+03 1.183632e+03
1.255000e+03 5.969429e+02
1.256000e+03 9.550409e+02
1.257000e+03 1.085604e+03
1.258000e+03 4.839197e+02
1.259000e+03 7.919348e+02
1.260000e+03 1.644871e+03
1.261000e+03 8.053479e+01
1.262000e+03 1.798329e+03
1.263000e+03 1.472026e+03
1.264000e+03 6.422537e+02
1.265000e+03 4.752263e+02
1.266000e+03 1.876564e+03
1.267000e+03 9.868072e+02
