# wavelength_A flux
5.000000e+02 7.522691e-08
5.010000e+02 8.516504e-08
5.020000e+02 9.636656e-08
5.030000e+02 1.089857e-07
5.040000e+02 1.231948e-07
5.050000e+02 1.410733e-07
5.060000e+02 1.592891e-07
5.070000e+02 1.797676e-07
5.080000e+02 2.027787e-07
5.090000e+02 2.286245e-07
5.100000e+02 2.576368e-07
5.110000e+02 2.901899e-07
5.120000e+02 3.266985e-07
5.130000e+02 3.676237e-07
5.140000e+02 4.134782e-07
5.150000e+02 4.648293e-07
5.160000e+02 5.223173e-07
5.170000e+02 5.866237e-07
5.180000e+02 6.585701e-07
5.190000e+02 7.389813e-07
5.200000e+02 8.288288e-07
5.210000e+02 9.291737e-07
5.220000e+02 1.041130e-06
5.230000e+02 1.166190e-06
5.240000e+02 1.305604e-06
5.250000e+02 1.461043e-06
5.260000e+02 1.634251e-06
5.270000e+02 1.827185e-06
5.280000e+02 2.041998e-06
5.290000e+02 2.280779e-06
5.300000e+02 2.547019e-06
5.310000e+02 2.842750e-06
5.320000e+02 3.171459e-06
5.330000e+02 3.536660e-06
5.340000e+02 3.942240e-06
5.350000e+02 4.392472e-06
5.360000e+02 4.892052e-06
5.370000e+02 5.409573e-06
5.380000e+02 6.060552e-06
5.390000e+02 6.741560e-06
5.400000e+02 7.495930e-06
5.410000e+02 8.330931e-06
5.420000e+02 9.255958e-06
5.430000e+02 1.027920e-05
5.440000e+02 1.141091e-05
5.450000e+02 1.266217e-05
5.460000e+02 1.404369e-05
5.470000e+02 1.557281e-05
5.480000e+02 1.725996e-05
5.490000e+02 1.912247e-05
5.500000e+02 2.117770e-05
5.510000e+02 2.344477e-05
5.520000e+02 2.594456e-05
5.530000e+02 2.869993e-05
5.540000e+02 3.173586e-05
5.550000e+02 3.507968e-05
5.560000e+02 3.876125e-05
5.570000e+02 4.281320e-05
5.580000e+02 4.727114e-05
5.590000e+02 5.217398e-05
5.600000e+02 5.756415e-05
5.610000e+02 6.348798e-05
5.620000e+02 6.999596e-05
5.630000e+02 7.714313e-05
5.640000e+02 8.498950e-05
5.650000e+02 9.360040e-05
5.660000e+02 1.030471e-04
5.670000e+02 1.134071e-04
5.680000e+02 1.247646e-04
5.690000e+02 1.372115e-04
5.700000e+02 1.508475e-04
5.710000e+02 1.657814e-04
5.720000e+02 1.821308e-04
5.730000e+02 2.000240e-04
5.740000e+02 2.196002e-04
5.750000e+02 2.410125e-04
5.760000e+02 2.644079e-04
5.770000e+02 2.900060e-04
5.780000e+02 3.179602e-04
5.790000e+02 3.484931e-04
5.800000e+02 3.818318e-04
5.810000e+02 4.182221e-04
5.820000e+02 4.579304e-04
5.830000e+02 5.012432e-04
5.840000e+02 5.483976e-04
5.850000e+02 5.999549e-04
5.860000e+02 6.560932e-04
5.870000e+02 7.172346e-04
5.880000e+02 7.838233e-04
5.890000e+02 8.563185e-04
5.900000e+02 9.352359e-04
5.910000e+02 1.021102e-03
5.920000e+02 1.114505e-03
5.930000e+02 1.216075e-03
5.940000e+02 1.326495e-03
5.950000e+02 1.446489e-03
5.960000e+02 1.576880e-03
5.970000e+02 1.718491e-03
5.980000e+02 1.872257e-03
5.990000e+02 2.039170e-03
6.000000e+02 2.220302e-03
6.010000e+02 2.416787e-03
6.020000e+02 2.629925e-03
6.030000e+02 2.860997e-03
6.040000e+02 3.111461e-03
6.050000e+02 3.382873e-03
6.060000e+02 3.676889e-03
6.070000e+02 3.995320e-03
6.080000e+02 4.340080e-03
6.090000e+02 4.713246e-03
6.100000e+02 5.117046e-03
6.110000e+02 5.553877e-03
6.120000e+02 6.026307e-03
6.130000e+02 6.537097e-03
6.140000e+02 7.089211e-03
6.150000e+02 7.685832e-03
6.160000e+02 8.330371e-03
6.170000e+02 9.026491e-03
6.180000e+02 9.778117e-03
6.190000e+02 1.058946e-02
6.200000e+02 1.146503e-02
6.210000e+02 1.240966e-02
6.220000e+02 1.342854e-02
6.230000e+02 1.452721e-02
6.240000e+02 1.571161e-02
6.250000e+02 1.698810e-02
6.260000e+02 1.836349e-02
6.270000e+02 1.984506e-02
6.280000e+02 2.144060e-02
6.290000e+02 2.315845e-02
6.300000e+02 2.500750e-02
6.310000e+02 2.699554e-02
6.320000e+02 2.913799e-02
6.330000e+02 3.144041e-02
6.340000e+02 3.391633e-02
6.350000e+02 3.657793e-02
6.360000e+02 3.942933e-02
6.370000e+02 4.251255e-02
6.380000e+02 4.581467e-02
6.390000e+02 4.936112e-02
6.400000e+02 5.316909e-02
6.410000e+02 5.725686e-02
6.420000e+02 6.164395e-02
6.430000e+02 6.635119e-02
6.440000e+02 7.140071e-02
6.450000e+02 7.681611e-02
6.460000e+02 8.262265e-02
6.470000e+02 8.884696e-02
6.480000e+02 9.551777e-02
6.490000e+02 1.026653e-01
6.500000e+02 1.103219e-01
6.510000e+02 1.185219e-01
6.520000e+02 1.273020e-01
6.530000e+02 1.367010e-01
6.540000e+02 1.467603e-01
6.550000e+02 1.575240e-01
6.560000e+02 1.690386e-01
6.570000e+02 1.813525e-01
6.580000e+02 1.945228e-01
6.590000e+02 2.086011e-01
6.600000e+02 2.236483e-01
6.610000e+02 2.397280e-01
6.620000e+02 2.569069e-01
6.630000e+02 2.752563e-01
6.640000e+02 2.948518e-01
6.650000e+02 3.157732e-01
6.660000e+02 3.381063e-01
6.670000e+02 3.619406e-01
6.680000e+02 3.873717e-01
6.690000e+02 4.145010e-01
6.700000e+02 4.434357e-01
6.710000e+02 4.742901e-01
6.720000e+02 5.071839e-01
6.730000e+02 5.422456e-01
6.740000e+02 5.796096e-01
6.750000e+02 6.194192e-01
6.760000e+02 6.618260e-01
6.770000e+02 7.069902e-01
6.780000e+02 7.550814e-01
6.790000e+02 8.062791e-01
6.800000e+02 8.607729e-01
6.810000e+02 9.187636e-01
6.820000e+02 9.804635e-01
6.830000e+02 1.046097e+00
6.840000e+02 1.115900e+00
6.850000e+02 1.190125e+00
6.860000e+02 1.269035e+00
6.870000e+02 1.352909e+00
6.880000e+02 1.442047e+00
6.890000e+02 1.536755e+00
6.900000e+02 1.637364e+00
6.910000e+02 1.744223e+00
6.920000e+02 1.857696e+00
6.930000e+02 1.978172e+00
6.940000e+02 2.106058e+00
6.950000e+02 2.241785e+00
6.960000e+02 2.385807e+00
6.970000e+02 2.538583e+00
6.980000e+02 2.700675e+00
6.990000e+02 2.872558e+00
7.000000e+02 3.054812e+00
7.010000e+02 3.248026e+00
7.020000e+02 3.452823e+00
7.030000e+02 3.669858e+00
7.040000e+02 3.899822e+00
7.050000e+02 4.143440e+00
7.060000e+02 4.401478e+00
7.070000e+02 4.674742e+00
7.080000e+02 4.964077e+00
7.090000e+02 5.270373e+00
7.100000e+02 5.594577e+00
7.110000e+02 5.937666e+00
7.120000e+02 6.300680e+00
7.130000e+02 6.684711e+00
7.140000e+02 7.090906e+00
7.150000e+02 7.520470e+00
7.160000e+02 7.974670e+00
7.170000e+02 8.454826e+00
7.180000e+02 8.962317e+00
7.190000e+02 9.498744e+00
7.200000e+02 1.006550e+01
7.210000e+02 1.066425e+01
7.220000e+02 1.129670e+01
7.230000e+02 1.196465e+01
7.240000e+02 1.266996e+01
7.250000e+02 1.341460e+01
7.260000e+02 1.420064e+01
7.270000e+02 1.503024e+01
7.280000e+02 1.590568e+01
7.290000e+02 1.682934e+01
7.300000e+02 1.780372e+01
7.310000e+02 1.883145e+01
7.320000e+02 1.991526e+01
7.330000e+02 2.105804e+01
7.340000e+02 2.226282e+01
7.350000e+02 2.353274e+01
7.360000e+02 2.487111e+01
7.370000e+02 2.628144e+01
7.380000e+02 2.776734e+01
7.390000e+02 2.933261e+01
7.400000e+02 3.098122e+01
7.410000e+02 3.271743e+01
7.420000e+02 3.454549e+01
7.430000e+02 3.647009e+01
7.440000e+02 3.849592e+01
7.450000e+02 4.062804e+01
7.460000e+02 4.287166e+01
7.470000e+02 4.523228e+01
7.480000e+02 4.771563e+01
7.490000e+02 5.032769e+01
7.500000e+02 5.307473e+01
7.510000e+02 5.596331e+01
7.520000e+02 5.900027e+01
7.530000e+02 6.219277e+01
7.540000e+02 6.554829e+01
7.550000e+02 6.907462e+01
7.560000e+02 7.277997e+01
7.570000e+02 7.667252e+01
7.580000e+02 8.076212e+01
7.590000e+02 8.505701e+01
7.600000e+02 8.956757e+01
7.610000e+02 9.430363e+01
7.620000e+02 9.927583e+01
7.630000e+02 1.044952e+02
7.640000e+02 1.099733e+02
7.650000e+02 1.157222e+02
7.660000e+02 1.217544e+02
7.670000e+02 1.280830e+02
7.680000e+02 1.347213e+02
7.690000e+02 1.416845e+02
7.700000e+02 1.489866e+02
7.710000e+02 1.566432e+02
7.720000e+02 1.646706e+02
7.730000e+02 1.730856e+02
7.740000e+02 1.819057e+02
7.750000e+02 1.911491e+02
7.760000e+02 2.008312e+02
7.770000e+02 2.109830e+02
7.780000e+02 2.216140e+02
7.790000e+02 2.327493e+02
7.800000e+02 2.444115e+02
7.810000e+02 2.566238e+02
7.820000e+02 2.694106e+02
7.830000e+02 2.827971e+02
7.840000e+02 2.968097e+02
7.850000e+02 3.114757e+02
7.860000e+02 3.268236e+02
7.870000e+02 3.428836e+02
7.880000e+02 3.596858e+02
7.890000e+02 3.772625e+02
7.900000e+02 3.956472e+02
7.910000e+02 4.148748e+02
7.920000e+02 4.349811e+02
7.930000e+02 4.560039e+02
7.940000e+02 4.779822e+02
7.950000e+02 5.009565e+02
7.960000e+02 5.249692e+02
7.970000e+02 5.500639e+02
7.980000e+02 5.762863e+02
7.990000e+02 6.036837e+02
8.000000e+02 6.323054e+02
8.010000e+02 6.622022e+02
8.020000e+02 6.934278e+02
8.030000e+02 7.260368e+02
8.040000e+02 7.600865e+02
8.050000e+02 7.956365e+02
8.060000e+02 8.327484e+02
8.070000e+02 8.714863e+02
8.080000e+02 9.119166e+02
8.090000e+02 9.541085e+02
8.100000e+02 9.981335e+02
8.110000e+02 1.044066e+03
8.120000e+02 1.091983e+03
8.130000e+02 1.141965e+03
8.140000e+02 1.194094e+03
8.150000e+02 1.248456e+03
8.160000e+02 1.305142e+03
8.170000e+02 1.364244e+03
8.180000e+02 1.425856e+03
8.190000e+02 1.490079e+03
8.200000e+02 1.557017e+03
8.210000e+02 1.626775e+03
8.220000e+02 1.699465e+03
8.230000e+02 1.775201e+03
8.240000e+02 1.854104e+03
8.250000e+02 1.936295e+03
8.260000e+02 2.021902e+03
8.270000e+02 2.111058e+03
8.280000e+02 2.203900e+03
8.290000e+02 2.300570e+03
8.300000e+02 2.401214e+03
8.310000e+02 2.505985e+03
8.320000e+02 2.615041e+03
8.330000e+02 2.728544e+03
8.340000e+02 2.846663e+03
8.350000e+02 2.969463e+03
8.360000e+02 3.097448e+03
8.370000e+02 3.230496e+03
8.380000e+02 3.368887e+03
8.390000e+02 3.512835e+03
8.400000e+02 3.662542e+03
8.410000e+02 3.818221e+03
8.420000e+02 3.980066e+03
8.430000e+02 4.148402e+03
8.440000e+02 4.323367e+03
8.450000e+02 4.505240e+03
8.460000e+02 4.694273e+03
8.470000e+02 4.890731e+03
8.480000e+02 5.094882e+03
8.490000e+02 5.307008e+03
8.500000e+02 5.527398e+03
8.510000e+02 5.756350e+03
8.520000e+02 5.994171e+03
8.530000e+02 6.241187e+03
8.540000e+02 6.497733e+03
8.550000e+02 6.764131e+03
8.560000e+02 7.040742e+03
8.570000e+02 7.327929e+03
8.580000e+02 7.626069e+03
8.590000e+02 7.935550e+03
8.600000e+02 8.256771e+03
8.610000e+02 8.590145e+03
8.620000e+02 8.936100e+03
8.630000e+02 9.295072e+03
8.640000e+02 9.667525e+03
8.650000e+02 1.005392e+04
8.660000e+02 1.045474e+04
8.670000e+02 1.087050e+04
8.680000e+02 1.130169e+04
8.690000e+02 1.174886e+04
8.700000e+02 1.221254e+04
8.710000e+02 1.269334e+04
8.720000e+02 1.319180e+04
8.730000e+02 1.370853e+04
8.740000e+02 1.424416e+04
8.750000e+02 1.479933e+04
8.760000e+02 1.537469e+04
8.770000e+02 1.597092e+04
8.780000e+02 1.658875e+04
8.790000e+02 1.722887e+04
8.800000e+02 1.789204e+04
8.810000e+02 1.857902e+04
8.820000e+02 1.929061e+04
8.830000e+02 2.002762e+04
8.840000e+02 2.079089e+04
8.850000e+02 2.158130e+04
8.860000e+02 2.239972e+04
8.870000e+02 2.324709e+04
8.880000e+02 2.412434e+04
8.890000e+02 2.503245e+04
8.900000e+02 2.597243e+04
8.910000e+02 2.694531e+04
8.920000e+02 2.793825e+04
8.930000e+02 2.899405e+04
8.940000e+02 3.007214e+04
8.950000e+02 3.118758e+04
8.960000e+02 3.234157e+04
8.970000e+02 3.353533e+04
8.980000e+02 3.477014e+04
8.990000e+02 3.604729e+04
9.000000e+02 3.736813e+04
9.010000e+02 3.873404e+04
9.020000e+02 4.014644e+04
9.030000e+02 4.160679e+04
9.040000e+02 4.311652e+04
9.050000e+02 4.467737e+04
9.060000e+02 4.629077e+04
9.070000e+02 4.795818e+04
9.080000e+02 4.968188e+04
9.090000e+02 5.146302e+04
9.100000e+02 5.330358e+04
9.110000e+02 5.520544e+04
9.120000e+02 5.717079e+04
9.130000e+02 5.898884e+04
9.140000e+02 6.166666e+04
9.150000e+02 1.838322e+05
9.160000e+02 4.141391e+05
9.170000e+02 4.333640e+05
9.180000e+02 3.701340e+05
9.190000e+02 6.232371e+05
9.200000e+02 7.083534e+05
9.210000e+02 7.763566e+04
9.220000e+02 7.683929e+05
9.230000e+02 4.714463e+05
9.240000e+02 7.187619e+05
9.250000e+02 8.242077e+05
9.260000e+02 6.530428e+05
9.270000e+02 8.334454e+05
9.280000e+02 9.325781e+05
9.290000e+02 8.542354e+05
9.300000e+02 9.572444e+05
9.310000e+02 7.520036e+05
9.320000e+02 1.040464e+06
9.330000e+02 1.063651e+06
9.340000e+02 1.090256e+06
9.350000e+02 2.424079e+05
9.360000e+02 1.040800e+06
9.370000e+02 2.026053e+05
9.380000e+02 6.287877e+05
9.390000e+02 1.160800e+06
9.400000e+02 1.302998e+06
9.410000e+02 5.595240e+05
9.420000e+02 1.376727e+06
9.430000e+02 1.332957e+06
9.440000e+02 1.106432e+06
9.450000e+02 1.496298e+06
9.460000e+02 1.526953e+06
9.470000e+02 1.302717e+06
9.480000e+02 1.474576e+06
9.490000e+02 1.610577e+06
9.500000e+02 3.348935e+05
9.510000e+02 1.671813e+06
9.520000e+02 1.787910e+06
9.530000e+02 1.486182e+06
9.540000e+02 1.459600e+06
9.550000e+02 1.905363e+06
9.560000e+02 1.865034e+06
9.570000e+02 1.219456e+06
9.580000e+02 1.420700e+06
9.590000e+02 2.184711e+06
9.600000e+02 4.146534e+05
9.610000e+02 2.278363e+06
9.620000e+02 2.293193e+06
9.630000e+02 2.375351e+06
9.640000e+02 3.268804e+05
9.650000e+02 2.076328e+06
9.660000e+02 2.544346e+06
9.670000e+02 2.457891e+06
9.680000e+02 2.259439e+06
9.690000e+02 2.758729e+06
9.700000e+02 2.815699e+06
9.710000e+02 2.626999e+06
9.720000e+02 2.615600e+06
9.730000e+02 2.686670e+06
9.740000e+02 3.117710e+06
9.750000e+02 3.186160e+06
9.760000e+02 3.383283e+06
9.770000e+02 3.459236e+06
9.780000e+02 3.477384e+06
9.790000e+02 3.672715e+06
9.800000e+02 3.766720e+06
9.810000e+02 3.798572e+06
9.820000e+02 3.684538e+06
9.830000e+02 4.057211e+06
9.840000e+02 1.853931e+06
9.850000e+02 4.154312e+06
9.860000e+02 4.229529e+06
9.870000e+02 4.482934e+06
9.880000e+02 3.743648e+06
9.890000e+02 3.744484e+06
9.900000e+02 8.203380e+05
9.910000e+02 4.229704e+06
9.920000e+02 3.120016e+06
9.930000e+02 5.017649e+06
9.940000e+02 8.978595e+05
9.950000e+02 1.707444e+06
9.960000e+02 4.249230e+06
9.970000e+02 1.446728e+06
9.980000e+02 5.821446e+06
9.990000e+02 5.492600e+06
1.000000e+03 6.176508e+06
1.001000e+03 6.335712e+06
1.002000e+03 6.478948e+06
1.003000e+03 5.918168e+06
1.004000e+03 5.795303e+06
1.005000e+03 6.229517e+06
1.006000e+03 7.129153e+06
1.007000e+03 7.309857e+06
1.008000e+03 7.454570e+06
1.009000e+03 7.178869e+06
1.010000e+03 7.817877e+06
1.011000e+03 8.024978e+06
1.012000e+03 8.186182e+06
1.013000e+03 8.365530e+06
1.014000e+03 5.094080e+06
1.015000e+03 6.811334e+06
1.016000e+03 8.332309e+06
1.017000e+03 5.699454e+06
1.018000e+03 8.928251e+06
1.019000e+03 7.674133e+06
1.020000e+03 9.870689e+06
1.021000e+03 5.774172e+06
1.022000e+03 8.743269e+06
1.023000e+03 8.080630e+06
1.024000e+03 1.012888e+07
1.025000e+03 5.609876e+06
1.026000e+03 4.172838e+06
1.027000e+03 1.022088e+07
1.028000e+03 2.878906e+06
1.029000e+03 7.650372e+06
1.030000e+03 1.209288e+07
1.031000e+03 1.200379e+07
1.032000e+03 1.292245e+07
1.033000e+03 5.126388e+06
1.034000e+03 1.340400e+07
1.035000e+03 3.030564e+06
1.036000e+03 9.144759e+06
1.037000e+03 7.730694e+06
1.038000e+03 1.497835e+07
1.039000e+03 1.517785e+07
1.040000e+03 1.559688e+07
1.041000e+03 1.595373e+07
1.042000e+03 1.622234e+07
1.043000e+03 1.608864e+07
1.044000e+03 1.714337e+07
1.045000e+03 1.745936e+07
1.046000e+03 1.792163e+07
1.047000e+03 1.783455e+07
1.048000e+03 1.569805e+07
1.049000e+03 1.877472e+07
1.050000e+03 1.918398e+07
1.051000e+03 1.915485e+07
1.052000e+03 2.040435e+07
1.053000e+03 2.075590e+07
1.054000e+03 1.310159e+07
1.055000e+03 2.184570e+07
1.056000e+03 2.234884e+07
1.057000e+03 2.245820e+07
1.058000e+03 2.282750e+07
1.059000e+03 2.100353e+07
1.060000e+03 2.072023e+07
1.061000e+03 2.453652e+07
1.062000e+03 2.437627e+07
1.063000e+03 1.166024e+07
1.064000e+03 5.940838e+06
1.065000e+03 1.803247e+07
1.066000e+03 2.529603e+07
1.067000e+03 2.406784e+07
1.068000e+03 2.904817e+07
1.069000e+03 2.144453e+07
1.070000e+03 2.976634e+07
1.071000e+03 3.094826e+07
1.072000e+03 3.157707e+07
1.073000e+03 2.305751e+07
1.074000e+03 3.196603e+07
1.075000e+03 3.222711e+07
1.076000e+03 3.434240e+07
1.077000e+03 3.247181e+07
1.078000e+03 3.455823e+07
1.079000e+03 3.584451e+07
1.080000e+03 3.682211e+07
1.081000e+03 3.776870e+07
1.082000e+03 3.855756e+07
1.083000e+03 3.917852e+07
1.084000e+03 4.053969e+07
1.085000e+03 3.497957e+07
1.086000e+03 4.222194e+07
1.087000e+03 3.821271e+07
1.088000e+03 4.388850e+07
1.089000e+03 4.487686e+07
1.090000e+03 4.364663e+07
1.091000e+03 4.421329e+07
1.092000e+03 4.763638e+07
1.093000e+03 4.856895e+07
1.094000e+03 4.927913e+07
1.095000e+03 5.057580e+07
1.096000e+03 5.139352e+07
1.097000e+03 5.205147e+07
1.098000e+03 5.345218e+07
1.099000e+03 5.400212e+07
1.100000e+03 4.698436e+07
1.101000e+03 4.825826e+07
1.102000e+03 9.569093e+07
1.103000e+03 3.386557e+08
1.104000e+03 1.306739e+08
1.105000e+03 5.749238e+07
1.106000e+03 4.659393e+08
1.107000e+03 8.901802e+07
1.108000e+03 6.066812e+08
1.109000e+03 1.966874e+08
1.110000e+03 1.995299e+08
1.111000e+03 1.231856e+08
1.112000e+03 5.523316e+08
1.113000e+03 7.542811e+08
1.114000e+03 4.825619e+07
1.115000e+03 3.460398e+08
1.116000e+03 2.893530e+08
1.117000e+03 4.911334e+07
1.118000e+03 2.576281e+08
1.119000e+03 6.737284e+08
1.120000e+03 3.241402e+08
1.121000e+03 6.975608e+08
1.122000e+03 2.077088e+07
1.123000e+03 1.284130e+08
1.124000e+03 8.134583e+08
1.125000e+03 4.869920e+08
1.126000e+03 9.160166e+08
1.127000e+03 8.707534e+08
1.128000e+03 3.134616e+08
1.129000e+03 7.367115e+08
1.130000e+03 8.266056e+08
1.131000e+03 9.577811e+08
1.132000e+03 6.367597e+07
1.133000e+03 3.560861e+08
1.134000e+03 7.659292e+08
1.135000e+03 4.214531e+07
1.136000e+03 5.929994e+08
1.137000e+03 1.016359e+09
1.138000e+03 7.964989e+08
1.139000e+03 1.036319e+09
1.140000e+03 3.663136e+07
1.141000e+03 1.049234e+09
1.142000e+03 1.111776e+09
1.143000e+03 1.050532e+09
1.144000e+03 1.165729e+09
1.145000e+03 2.759529e+08
1.146000e+03 1.208319e+09
1.147000e+03 1.166485e+09
1.148000e+03 5.091188e+08
1.149000e+03 1.194474e+09
1.150000e+03 1.011088e+09
1.151000e+03 1.283074e+09
1.152000e+03 1.256443e+09
1.153000e+03 5.130229e+08
1.154000e+03 3.095284e+08
1.155000e+03 1.174497e+09
1.156000e+03 5.406582e+08
1.157000e+03 1.392828e+09
1.158000e+03 6.109983e+07
1.159000e+03 1.216473e+09
1.160000e+03 1.063753e+09
1.161000e+03 1.439202e+09
1.162000e+03 3.517695e+08
1.163000e+03 9.881685e+08
1.164000e+03 6.745472e+07
1.165000e+03 1.526276e+09
1.166000e+03 1.448495e+09
1.167000e+03 1.388509e+09
1.168000e+03 1.628385e+09
1.169000e+03 1.620810e+09
1.170000e+03 1.579954e+09
1.171000e+03 1.599753e+09
1.172000e+03 1.232902e+09
1.173000e+03 1.741621e+09
1.174000e+03 6.916527e+08
1.175000e+03 7.855808e+07
1.176000e+03 7.115392e+07
1.177000e+03 1.863851e+09
1.178000e+03 1.826088e+09
1.179000e+03 1.882131e+09
1.180000e+03 1.274398e+09
1.181000e+03 1.961914e+09
1.182000e+03 1.928216e+09
1.183000e+03 1.854506e+09
1.184000e+03 1.815569e+09
1.185000e+03 1.963738e+09
1.186000e+03 1.370670e+09
1.187000e+03 1.994130e+09
1.188000e+03 1.605281e+09
1.189000e+03 9.473920e+07
1.190000e+03 5.212571e+08
1.191000e+03 1.982293e+09
1.192000e+03 2.138470e+09
1.193000e+03 8.973594e+07
1.194000e+03 1.073231e+08
1.195000e+03 1.607770e+09
1.196000e+03 2.134354e+09
1.197000e+03 3.139816e+09
1.198000e+03 2.217261e+09
1.199000e+03 3.085406e+09
1.200000e+03 2.114820e+09
1.201000e+03 2.901131e+09
1.202000e+03 2.393423e+09
1.203000e+03 3.342534e+09
1.204000e+03 1.954752e+09
1.205000e+03 2.794669e+09
1.206000e+03 2.605798e+09
1.207000e+03 5.146390e+08
1.208000e+03 2.044647e+09
1.209000e+03 1.616813e+09
1.210000e+03 1.415122e+08
1.211000e+03 9.845075e+08
1.212000e+03 6.718255e+08
1.213000e+03 4.357202e+08
1.214000e+03 2.589980e+08
1.215000e+03 1.604291e+08
1.216000e+03 1.449252e+08
1.217000e+03 2.273100e+08
1.218000e+03 3.976889e+08
1.219000e+03 6.639617e+08
1.220000e+03 9.481437e+08
1.221000e+03 1.440663e+09
1.222000e+03 1.870596e+09
1.223000e+03 2.400642e+09
1.224000e+03 2.991959e+09
1.225000e+03 2.303080e+09
1.226000e+03 4.090041e+09
1.227000e+03 4.554215e+09
1.228000e+03 3.856250e+09
1.229000e+03 5.125744e+09
1.230000e+03 5.037177e+09
1.231000e+03 4.454148e+09
1.232000e+03 7.204729e+09
1.233000e+03 7.736631e+09
1.234000e+03 5.319309e+09
1.235000e+03 8.367772e+09
1.236000e+03 5.387054e+09
1.237000e+03 9.208678e+09
1.238000e+03 8.666670e+09
1.239000e+03 8.941450e+09
1.240000e+03 9.001420e+09
1.241000e+03 1.125389e+10
1.242000e+03 8.260855e+09
1.243000e+03 1.298289e+10
1.244000e+03 5.975418e+09
1.245000e+03 8.295261e+09
1.246000e+03 1.728928e+10
1.247000e+03 1.708172e+10
1.248000e+03 6.153005e+09
1.249000e+03 8.139342e+09
1.250000e+03 2.046971e+10
1.251000e+03 2.382703e+10
1.252000e+03 2.123459e+10
1.253000e+03 2.400590e+10
1.254000e+03 2.107935e+10
1.255000e+03 2.573866e+10
1.256000e+03 2.219293e+10
1.257000e+03 2.559964e+10
1.258000e+03 1.744406e+10
1.259000e+03 2.291146e+10
1.260000e+03 2.449971e+10
1.261000e+03 3.183363e+08
1.262000e+03 3.620570e+09
1.263000e+03 2.789555e+10
1.264000e+03 1.956639e+10
1.265000e+03 3.312384e+08
1.266000e+03 2.710220e+10
1.267000e+03 2.248757e+10
