# wavelength_A flux
5.000000e+02 0.000000e+00
5.010000e+02 0.000000e+00
5.020000e+02 0.000000e+00
5.030000e+02 0.000000e+00
5.040000e+02 0.000000e+00
5.050000e+02 0.000000e+00
5.060000e+02 0.000000e+00
5.070000e+02 0.000000e+00
5.080000e+02 0.000000e+00
5.090000e+02 0.000000e+00
5.100000e+02 1.401298e-45
5.110000e+02 1.401298e-45
5.120000e+02 1.401298e-45
5.130000e+02 1.401298e-45
5.140000e+02 2.802597e-45
5.150000e+02 4.203895e-45
5.160000e+02 5.605194e-45
5.170000e+02 7.006492e-45
5.180000e+02 8.407791e-45
5.190000e+02 1.121039e-44
5.200000e+02 1.541428e-44
5.210000e+02 2.101948e-44
5.220000e+02 2.662467e-44
5.230000e+02 3.643376e-44
5.240000e+02 4.764415e-44
5.250000e+02 6.305843e-44
5.260000e+02 8.267661e-44
5.270000e+02 1.079000e-43
5.280000e+02 1.429324e-43
5.290000e+02 1.877740e-43
5.300000e+02 2.452272e-43
5.310000e+02 3.222986e-43
5.320000e+02 4.217908e-43
5.330000e+02 5.507103e-43
5.340000e+02 7.202674e-43
5.350000e+02 9.402713e-43
5.360000e+02 1.226136e-42
5.370000e+02 1.597480e-42
5.380000e+02 2.078126e-42
5.390000e+02 2.701703e-42
5.400000e+02 3.510253e-42
5.410000e+02 4.554220e-42
5.420000e+02 5.903670e-42
5.430000e+02 7.645484e-42
5.440000e+02 9.890365e-42
5.450000e+02 1.278405e-41
5.460000e+02 1.650870e-41
5.470000e+02 2.129693e-41
5.480000e+02 2.744863e-41
5.490000e+02 3.534355e-41
5.500000e+02 4.546653e-41
5.510000e+02 5.843555e-41
5.520000e+02 7.503393e-41
5.530000e+02 9.625799e-41
5.540000e+02 1.233731e-40
5.550000e+02 1.579810e-40
5.560000e+02 2.021163e-40
5.570000e+02 2.583462e-40
5.580000e+02 3.299259e-40
5.590000e+02 4.209613e-40
5.600000e+02 5.366413e-40
5.610000e+02 6.835071e-40
5.620000e+02 8.698042e-40
5.630000e+02 1.105913e-39
5.640000e+02 1.404896e-39
5.650000e+02 1.783168e-39
5.660000e+02 2.261348e-39
5.670000e+02 2.865315e-39
5.680000e+02 3.627508e-39
5.690000e+02 4.588573e-39
5.700000e+02 5.799387e-39
5.710000e+02 7.323584e-39
5.720000e+02 9.240686e-39
5.730000e+02 1.164999e-38
5.740000e+02 1.467540e-38
5.750000e+02 1.847137e-38
5.760000e+02 2.323028e-38
5.770000e+02 2.919164e-38
5.780000e+02 3.665326e-38
5.790000e+02 4.598527e-38
5.800000e+02 5.764728e-38
5.810000e+02 7.220953e-38
5.820000e+02 9.037904e-38
5.830000e+02 1.130316e-37
5.840000e+02 1.412516e-37
5.850000e+02 1.763801e-37
5.860000e+02 2.200747e-37
5.870000e+02 2.743828e-37
5.880000e+02 3.418310e-37
5.890000e+02 4.255355e-37
5.900000e+02 5.293359e-37
5.910000e+02 6.579605e-37
5.920000e+02 8.172276e-37
5.930000e+02 1.014291e-36
5.940000e+02 1.257940e-36
5.950000e+02 1.558967e-36
5.960000e+02 1.930613e-36
5.970000e+02 2.389110e-36
5.980000e+02 2.954348e-36
5.990000e+02 3.650675e-36
6.000000e+02 4.507878e-36
6.010000e+02 5.562377e-36
6.020000e+02 6.858660e-36
6.030000e+02 8.451047e-36
6.040000e+02 1.040580e-35
6.050000e+02 1.280371e-35
6.060000e+02 1.574320e-35
6.070000e+02 1.934410e-35
6.080000e+02 2.375220e-35
6.090000e+02 2.914477e-35
6.100000e+02 3.573717e-35
6.110000e+02 4.379091e-35
6.120000e+02 5.362331e-35
6.130000e+02 6.561911e-35
6.140000e+02 8.024460e-35
6.150000e+02 9.806439e-35
6.160000e+02 1.197618e-34
6.170000e+02 1.461633e-34
6.180000e+02 1.782676e-34
6.190000e+02 2.172813e-34
6.200000e+02 2.646606e-34
6.210000e+02 3.221623e-34
6.220000e+02 3.919043e-34
6.230000e+02 4.764381e-34
6.240000e+02 5.788359e-34
6.250000e+02 7.027944e-34
6.260000e+02 8.527591e-34
6.270000e+02 1.034072e-33
6.280000e+02 1.253151e-33
6.290000e+02 1.517697e-33
6.300000e+02 1.836949e-33
6.310000e+02 2.221984e-33
6.320000e+02 2.686072e-33
6.330000e+02 3.245106e-33
6.340000e+02 3.918100e-33
6.350000e+02 4.727799e-33
6.360000e+02 5.701388e-33
6.370000e+02 6.871340e-33
6.380000e+02 8.276428e-33
6.390000e+02 9.962908e-33
6.400000e+02 1.198595e-32
6.410000e+02 1.441129e-32
6.420000e+02 1.731724e-32
6.430000e+02 2.079702e-32
6.440000e+02 2.496153e-32
6.450000e+02 2.994266e-32
6.460000e+02 3.589713e-32
6.470000e+02 4.301108e-32
6.480000e+02 5.150549e-32
6.490000e+02 6.164250e-32
6.500000e+02 7.373298e-32
6.510000e+02 8.814531e-32
6.520000e+02 1.053158e-31
6.530000e+02 1.257611e-31
6.540000e+02 1.500922e-31
6.550000e+02 1.790319e-31
6.560000e+02 2.134343e-31
6.570000e+02 2.543084e-31
6.580000e+02 3.028452e-31
6.590000e+02 3.604504e-31
6.600000e+02 4.287817e-31
6.610000e+02 5.097930e-31
6.620000e+02 6.057862e-31
6.630000e+02 7.194721e-31
6.640000e+02 8.540408e-31
6.650000e+02 1.013245e-30
6.660000e+02 1.201496e-30
6.670000e+02 1.423979e-30
6.680000e+02 1.686782e-30
6.690000e+02 1.997053e-30
6.700000e+02 2.363178e-30
6.710000e+02 2.794993e-30
6.720000e+02 3.304023e-30
6.730000e+02 3.903775e-30
6.740000e+02 4.610062e-30
6.750000e+02 5.441391e-30
6.760000e+02 6.419413e-30
6.770000e+02 7.569442e-30
6.780000e+02 8.921063e-30
6.790000e+02 1.050883e-29
6.800000e+02 1.237310e-29
6.810000e+02 1.456094e-29
6.820000e+02 1.712727e-29
6.830000e+02 2.013613e-29
6.840000e+02 2.366212e-29
6.850000e+02 2.779214e-29
6.860000e+02 3.262737e-29
6.870000e+02 3.828553e-29
6.880000e+02 4.490357e-29
6.890000e+02 5.264068e-29
6.900000e+02 6.168184e-29
6.910000e+02 7.224195e-29
6.920000e+02 8.457045e-29
6.930000e+02 9.895685e-29
6.940000e+02 1.157369e-28
6.950000e+02 1.353000e-28
6.960000e+02 1.580972e-28
6.970000e+02 1.846511e-28
6.980000e+02 2.155670e-28
6.990000e+02 2.515450e-28
7.000000e+02 2.933953e-28
7.010000e+02 3.420546e-28
7.020000e+02 3.986056e-28
7.030000e+02 4.642993e-28
7.040000e+02 5.405801e-28
7.050000e+02 6.291153e-28
7.060000e+02 7.318288e-28
7.070000e+02 8.509393e-28
7.080000e+02 9.890047e-28
7.090000e+02 1.148972e-27
7.100000e+02 1.334237e-27
7.110000e+02 1.548708e-27
7.120000e+02 1.796884e-27
7.130000e+02 2.083940e-27
7.140000e+02 2.415827e-27
7.150000e+02 2.799384e-27
7.160000e+02 3.242473e-27
7.170000e+02 3.754117e-27
7.180000e+02 4.344681e-27
7.190000e+02 5.026055e-27
7.200000e+02 5.811880e-27
7.210000e+02 6.717797e-27
7.220000e+02 7.761733e-27
7.230000e+02 8.964226e-27
7.240000e+02 1.034880e-26
7.250000e+02 1.194238e-26
7.260000e+02 1.377578e-26
7.270000e+02 1.588426e-26
7.280000e+02 1.830812e-26
7.290000e+02 2.109343e-26
7.300000e+02 2.429282e-26
7.310000e+02 2.796642e-26
7.320000e+02 3.218286e-26
7.330000e+02 3.702047e-26
7.340000e+02 4.256862e-26
7.350000e+02 4.892920e-26
7.360000e+02 5.621837e-26
7.370000e+02 6.456851e-26
7.380000e+02 7.413038e-26
7.390000e+02 8.507569e-26
7.400000e+02 9.759983e-26
7.410000e+02 1.119252e-25
7.420000e+02 1.283046e-25
7.430000e+02 1.470256e-25
7.440000e+02 1.684150e-25
7.450000e+02 1.928441e-25
7.460000e+02 2.207345e-25
7.470000e+02 2.525651e-25
7.480000e+02 2.888790e-25
7.490000e+02 3.302928e-25
7.500000e+02 3.775053e-25
7.510000e+02 4.313092e-25
7.520000e+02 4.926024e-25
7.530000e+02 5.624026e-25
7.540000e+02 6.418620e-25
7.550000e+02 7.322849e-25
7.560000e+02 8.351477e-25
7.570000e+02 9.521204e-25
7.580000e+02 1.085092e-24
7.590000e+02 1.236197e-24
7.600000e+02 1.407849e-24
7.610000e+02 1.602775e-24
7.620000e+02 1.824052e-24
7.630000e+02 2.075158e-24
7.640000e+02 2.360014e-24
7.650000e+02 2.683046e-24
7.660000e+02 3.049248e-24
7.670000e+02 3.464245e-24
7.680000e+02 3.934382e-24
7.690000e+02 4.466805e-24
7.700000e+02 5.069565e-24
7.710000e+02 5.751724e-24
7.720000e+02 6.523487e-24
7.730000e+02 7.396332e-24
7.740000e+02 8.383174e-24
7.750000e+02 9.498532e-24
7.760000e+02 1.075873e-23
7.770000e+02 1.218212e-23
7.780000e+02 1.378930e-23
7.790000e+02 1.560343e-23
7.800000e+02 1.765048e-23
7.810000e+02 1.995963e-23
7.820000e+02 2.256358e-23
7.830000e+02 2.549906e-23
7.840000e+02 2.880722e-23
7.850000e+02 3.253418e-23
7.860000e+02 3.673166e-23
7.870000e+02 4.145756e-23
7.880000e+02 4.677675e-23
7.890000e+02 5.276184e-23
7.900000e+02 5.949410e-23
7.910000e+02 6.706449e-23
7.920000e+02 7.557470e-23
7.930000e+02 8.513850e-23
7.940000e+02 9.588303e-23
7.950000e+02 1.079504e-22
7.960000e+02 1.214993e-22
7.970000e+02 1.367072e-22
7.980000e+02 1.537719e-22
7.990000e+02 1.729144e-22
8.000000e+02 1.943814e-22
8.010000e+02 2.184480e-22
8.020000e+02 2.454209e-22
8.030000e+02 2.756422e-22
8.040000e+02 3.094931e-22
8.050000e+02 3.473985e-22
8.060000e+02 3.898317e-22
8.070000e+02 4.373195e-22
8.080000e+02 4.904489e-22
8.090000e+02 5.498727e-22
8.100000e+02 6.163178e-22
8.110000e+02 6.905922e-22
8.120000e+02 7.735950e-22
8.130000e+02 8.663255e-22
8.140000e+02 9.698944e-22
8.150000e+02 1.085536e-21
8.160000e+02 1.214621e-21
8.170000e+02 1.358672e-21
8.180000e+02 1.519379e-21
8.190000e+02 1.698619e-21
8.200000e+02 1.898473e-21
8.210000e+02 2.121251e-21
8.220000e+02 2.369513e-21
8.230000e+02 2.646099e-21
8.240000e+02 2.954157e-21
8.250000e+02 3.297174e-21
8.260000e+02 3.679015e-21
8.270000e+02 4.103958e-21
8.280000e+02 4.576742e-21
8.290000e+02 5.102612e-21
8.300000e+02 5.687373e-21
8.310000e+02 6.337446e-21
8.320000e+02 7.059936e-21
8.330000e+02 7.862697e-21
8.340000e+02 8.754412e-21
8.350000e+02 9.744680e-21
8.360000e+02 1.084411e-20
8.370000e+02 1.206440e-20
8.380000e+02 1.341851e-20
8.390000e+02 1.492071e-20
8.400000e+02 1.658678e-20
8.410000e+02 1.843411e-20
8.420000e+02 2.048190e-20
8.430000e+02 2.275132e-20
8.440000e+02 2.526574e-20
8.450000e+02 2.805088e-20
8.460000e+02 3.113512e-20
8.470000e+02 3.454972e-20
8.480000e+02 3.832914e-20
8.490000e+02 4.251129e-20
8.500000e+02 4.713795e-20
8.510000e+02 5.225509e-20
8.520000e+02 5.791333e-20
8.530000e+02 6.416833e-20
8.540000e+02 7.108135e-20
8.550000e+02 7.871974e-20
8.560000e+02 8.715757e-20
8.570000e+02 9.647626e-20
8.580000e+02 1.067653e-19
8.590000e+02 1.181229e-19
8.600000e+02 1.306571e-19
8.610000e+02 1.444866e-19
8.620000e+02 1.597414e-19
8.630000e+02 1.765647e-19
8.640000e+02 1.951131e-19
8.650000e+02 2.155588e-19
8.660000e+02 2.380906e-19
8.670000e+02 2.629155e-19
8.680000e+02 2.902606e-19
8.690000e+02 3.203747e-19
8.700000e+02 3.535306e-19
8.710000e+02 3.900269e-19
8.720000e+02 4.301911e-19
8.730000e+02 4.743818e-19
8.740000e+02 5.229913e-19
8.750000e+02 5.764496e-19
8.760000e+02 6.352268e-19
8.770000e+02 6.998376e-19
8.780000e+02 7.708451e-19
8.790000e+02 8.488651e-19
8.800000e+02 9.345709e-19
8.810000e+02 1.028699e-18
8.820000e+02 1.132053e-18
8.830000e+02 1.245514e-18
8.840000e+02 1.370041e-18
8.850000e+02 1.506684e-18
8.860000e+02 1.656590e-18
8.870000e+02 1.821010e-18
8.880000e+02 2.001308e-18
8.890000e+02 2.198978e-18
8.900000e+02 2.415644e-18
8.910000e+02 2.653083e-18
8.920000e+02 2.913229e-18
8.930000e+02 3.198193e-18
8.940000e+02 3.510276e-18
8.950000e+02 3.851988e-18
8.960000e+02 4.226061e-18
8.970000e+02 4.635474e-18
8.980000e+02 5.083471e-18
8.990000e+02 5.573587e-18
9.000000e+02 6.109669e-18
9.010000e+02 6.695907e-18
9.020000e+02 7.336860e-18
9.030000e+02 8.037490e-18
9.040000e+02 8.803195e-18
9.050000e+02 9.639850e-18
9.060000e+02 1.055384e-17
9.070000e+02 1.155211e-17
9.080000e+02 1.264221e-17
9.090000e+02 1.383235e-17
9.100000e+02 1.513145e-17
9.110000e+02 1.654919e-17
9.120000e+02 1.809610e-17
9.130000e+02 1.978362e-17
9.140000e+02 2.170522e-17
9.150000e+02 8.872328e-15
9.160000e+02 1.042416e-13
9.170000e+02 6.939371e-14
9.180000e+02 1.262245e-14
9.190000e+02 4.090383e-13
9.200000e+02 1.755504e-12
9.210000e+02 4.008222e-17
9.220000e+02 3.246179e-12
9.230000e+02 5.886648e-15
9.240000e+02 3.018592e-12
9.250000e+02 4.939139e-12
9.260000e+02 2.096985e-14
9.270000e+02 4.235193e-12
9.280000e+02 2.265857e-11
9.290000e+02 6.528964e-12
9.300000e+02 2.234918e-12
9.310000e+02 2.004835e-14
9.320000e+02 1.420263e-11
9.330000e+02 4.000041e-11
9.340000e+02 5.068984e-11
9.350000e+02 3.098003e-14
9.360000e+02 2.032636e-11
9.370000e+02 6.245303e-15
9.380000e+02 3.958814e-15
9.390000e+02 3.952824e-12
9.400000e+02 5.032440e-11
9.410000e+02 1.860963e-13
9.420000e+02 1.059941e-10
9.430000e+02 2.521708e-11
9.440000e+02 1.241586e-10
9.450000e+02 1.211742e-10
9.460000e+02 9.715908e-11
9.470000e+02 6.301557e-14
9.480000e+02 2.308305e-12
9.490000e+02 8.171154e-13
9.500000e+02 2.584066e-15
9.510000e+02 9.039549e-12
9.520000e+02 6.435576e-11
9.530000e+02 5.684939e-12
9.540000e+02 1.270104e-13
9.550000e+02 4.529543e-11
9.560000e+02 1.170050e-12
9.570000e+02 7.337075e-12
9.580000e+02 3.522183e-14
9.590000e+02 4.021531e-10
9.600000e+02 4.754530e-14
9.610000e+02 4.217785e-10
9.620000e+02 3.788855e-10
9.630000e+02 1.621239e-11
9.640000e+02 9.663381e-13
9.650000e+02 2.878808e-13
9.660000e+02 1.558138e-10
9.670000e+02 9.769602e-12
9.680000e+02 5.914796e-12
9.690000e+02 1.692757e-10
9.700000e+02 9.568537e-11
9.710000e+02 4.918542e-12
9.720000e+02 1.454988e-13
9.730000e+02 1.283235e-13
9.740000e+02 1.420894e-11
9.750000e+02 8.610342e-11
9.760000e+02 3.535912e-10
9.770000e+02 5.901946e-10
9.780000e+02 7.127918e-10
9.790000e+02 1.066949e-09
9.800000e+02 1.254509e-09
9.810000e+02 1.107416e-09
9.820000e+02 4.569176e-10
9.830000e+02 1.686649e-09
9.840000e+02 2.933198e-11
9.850000e+02 3.061114e-10
9.860000e+02 2.502093e-10
9.870000e+02 2.282972e-09
9.880000e+02 1.023182e-12
9.890000e+02 2.441581e-09
9.900000e+02 1.393302e-09
9.910000e+02 4.049457e-10
9.920000e+02 1.807335e-13
9.930000e+02 1.803330e-09
9.940000e+02 3.597123e-14
9.950000e+02 6.665668e-11
9.960000e+02 5.706102e-12
9.970000e+02 2.292888e-13
9.980000e+02 4.112087e-09
9.990000e+02 4.977155e-10
1.000000e+03 4.944410e-09
1.001000e+03 4.184356e-09
1.002000e+03 5.796639e-09
1.003000e+03 5.869401e-10
1.004000e+03 2.467027e-12
1.005000e+03 3.160899e-09
1.006000e+03 7.010172e-09
1.007000e+03 7.313651e-09
1.008000e+03 7.304479e-09
1.009000e+03 1.271698e-10
1.010000e+03 8.013630e-09
1.011000e+03 8.270569e-09
1.012000e+03 8.415372e-09
1.013000e+03 8.559963e-09
1.014000e+03 9.636736e-13
1.015000e+03 4.588330e-12
1.016000e+03 1.228428e-09
1.017000e+03 8.792966e-13
1.018000e+03 7.908785e-10
1.019000e+03 7.659207e-12
1.020000e+03 4.439319e-09
1.021000e+03 3.947020e-11
1.022000e+03 5.057121e-10
1.023000e+03 3.064782e-11
1.024000e+03 4.435302e-11
1.025000e+03 4.568689e-13
1.026000e+03 2.107955e-13
1.027000e+03 2.777335e-11
1.028000e+03 3.354955e-12
1.029000e+03 1.783906e-12
1.030000e+03 4.171319e-09
1.031000e+03 1.613293e-08
1.032000e+03 1.541466e-08
1.033000e+03 1.074731e-10
1.034000e+03 3.031356e-08
1.035000e+03 1.342926e-12
1.036000e+03 8.434142e-12
1.037000e+03 1.325339e-07
1.038000e+03 1.614750e-07
1.039000e+03 1.680588e-07
1.040000e+03 2.015889e-07
1.041000e+03 1.489371e-07
1.042000e+03 2.462473e-07
1.043000e+03 1.230617e-07
1.044000e+03 2.930457e-07
1.045000e+03 3.344870e-12
1.046000e+03 2.722338e-07
1.047000e+03 2.228779e-07
1.048000e+03 2.126143e-09
1.049000e+03 2.723233e-07
1.050000e+03 2.553998e-08
1.051000e+03 4.679237e-09
1.052000e+03 4.628086e-07
1.053000e+03 5.134949e-07
1.054000e+03 1.455192e-11
1.055000e+03 1.601305e-08
1.056000e+03 5.667559e-07
1.057000e+03 3.365762e-07
1.058000e+03 3.569640e-08
1.059000e+03 3.000252e-09
1.060000e+03 7.583481e-10
1.061000e+03 7.513055e-07
1.062000e+03 1.291333e-08
1.063000e+03 2.273334e-11
1.064000e+03 2.671641e-12
1.065000e+03 2.694378e-11
1.066000e+03 1.256751e-09
1.067000e+03 1.046947e-08
1.068000e+03 1.100079e-06
1.069000e+03 1.547040e-09
1.070000e+03 4.869264e-07
1.071000e+03 1.236742e-06
1.072000e+03 1.326055e-06
1.073000e+03 1.148237e-10
1.074000e+03 1.193792e-06
1.075000e+03 1.140954e-06
1.076000e+03 9.094805e-08
1.077000e+03 3.250307e-10
1.078000e+03 5.168931e-08
1.079000e+03 6.197334e-07
1.080000e+03 6.988488e-07
1.081000e+03 2.024253e-06
1.082000e+03 1.835654e-06
1.083000e+03 1.188303e-06
1.084000e+03 1.686744e-06
1.085000e+03 5.325776e-07
1.086000e+03 2.608232e-06
1.087000e+03 5.093170e-08
1.088000e+03 2.759836e-06
1.089000e+03 2.901577e-06
1.090000e+03 6.832495e-07
1.091000e+03 1.201842e-06
1.092000e+03 3.806916e-07
1.093000e+03 2.613811e-06
1.094000e+03 2.045821e-06
1.095000e+03 3.858370e-06
1.096000e+03 5.202969e-08
1.097000e+03 4.032540e-06
1.098000e+03 5.153062e-07
1.099000e+03 1.176672e-06
1.100000e+03 2.978624e-09
1.101000e+03 1.010659e-08
1.102000e+03 2.112431e-06
1.103000e+03 5.272900e-06
1.104000e+03 5.737851e-06
1.105000e+03 5.968197e-06
1.106000e+03 2.995794e-06
1.107000e+03 1.559602e-08
1.108000e+03 6.738360e-06
1.109000e+03 1.064353e-06
1.110000e+03 6.006941e-06
1.111000e+03 6.841001e-06
1.112000e+03 7.627811e-06
1.113000e+03 6.424932e-06
1.114000e+03 1.978600e-06
1.115000e+03 4.621138e-07
1.116000e+03 6.435548e-08
1.117000e+03 9.949493e-06
1.118000e+03 1.793130e-06
1.119000e+03 9.703363e-06
1.120000e+03 3.263622e-07
1.121000e+03 1.137193e-05
1.122000e+03 5.778991e-06
1.123000e+03 1.737965e-05
1.124000e+03 2.151208e-05
1.125000e+03 1.882010e-05
1.126000e+03 1.435752e-05
1.127000e+03 1.439981e-05
1.128000e+03 1.432802e-05
1.129000e+03 1.297264e-05
1.130000e+03 1.370830e-05
1.131000e+03 1.146962e-05
1.132000e+03 2.850538e-07
1.133000e+03 7.748478e-06
1.134000e+03 1.153781e-05
1.135000e+03 1.056846e-06
1.136000e+03 6.817778e-06
1.137000e+03 8.677940e-06
1.138000e+03 1.056486e-05
1.139000e+03 1.083972e-05
1.140000e+03 1.051616e-05
1.141000e+03 8.539893e-06
1.142000e+03 1.053611e-05
1.143000e+03 8.692669e-06
1.144000e+03 9.776745e-06
1.145000e+03 1.342169e-07
1.146000e+03 1.076079e-05
1.147000e+03 1.091389e-05
1.148000e+03 4.525766e-06
1.149000e+03 1.065849e-05
1.150000e+03 1.021662e-05
1.151000e+03 1.037572e-05
1.152000e+03 1.007335e-05
1.153000e+03 9.871169e-06
1.154000e+03 9.299565e-06
1.155000e+03 9.354961e-06
1.156000e+03 5.515321e-07
1.157000e+03 8.895517e-06
1.158000e+03 8.809528e-06
1.159000e+03 8.852184e-06
1.160000e+03 8.655809e-06
1.161000e+03 7.954715e-06
1.162000e+03 4.476458e-06
1.163000e+03 6.215545e-06
1.164000e+03 1.070748e-08
1.165000e+03 3.893040e-06
1.166000e+03 1.701850e-06
1.167000e+03 9.888657e-07
1.168000e+03 8.999176e-06
1.169000e+03 7.950478e-06
1.170000e+03 1.066317e-06
1.171000e+03 3.327127e-06
1.172000e+03 2.553229e-06
1.173000e+03 2.040031e-06
1.174000e+03 1.179531e-06
1.175000e+03 1.369381e-08
1.176000e+03 3.092055e-09
1.177000e+03 1.212932e-05
1.178000e+03 1.120065e-05
1.179000e+03 1.051217e-05
1.180000e+03 9.552502e-06
1.181000e+03 9.169699e-06
1.182000e+03 8.766521e-06
1.183000e+03 8.238870e-06
1.184000e+03 7.681279e-06
1.185000e+03 7.463914e-06
1.186000e+03 3.613696e-06
1.187000e+03 6.813435e-06
1.188000e+03 6.535350e-06
1.189000e+03 6.358712e-06
1.190000e+03 6.110052e-06
1.191000e+03 5.688162e-06
1.192000e+03 4.971063e-06
1.193000e+03 4.925539e-06
1.194000e+03 4.683262e-06
1.195000e+03 4.417253e-06
1.196000e+03 1.506437e-04
1.197000e+03 1.402375e-04
1.198000e+03 6.951534e-05
1.199000e+03 1.120582e-04
1.200000e+03 7.801244e-05
1.201000e+03 8.716030e-05
1.202000e+03 6.812175e-05
1.203000e+03 5.937132e-05
1.204000e+03 4.077128e-05
1.205000e+03 3.517268e-05
1.206000e+03 2.522569e-05
1.207000e+03 1.174467e-06
1.208000e+03 9.734127e-06
1.209000e+03 6.446980e-06
1.210000e+03 2.452884e-08
1.211000e+03 1.792015e-06
1.212000e+03 7.721429e-07
1.213000e+03 2.827705e-07
1.214000e+03 7.051305e-08
1.215000e+03 1.151350e-08
1.216000e+03 1.033285e-08
1.217000e+03 4.301417e-08
1.218000e+03 2.304809e-07
1.219000e+03 7.616522e-07
1.220000e+03 1.994374e-06
1.221000e+03 4.338310e-06
1.222000e+03 8.940604e-06
1.223000e+03 1.551153e-05
1.224000e+03 2.568442e-05
1.225000e+03 3.078545e-05
1.226000e+03 6.338528e-05
1.227000e+03 9.059881e-05
1.228000e+03 1.283022e-04
1.229000e+03 1.705251e-04
1.230000e+03 1.459197e-06
1.231000e+03 1.875067e-04
1.232000e+03 3.174794e-04
1.233000e+03 3.817668e-04
1.234000e+03 3.517010e-04
1.235000e+03 5.080438e-04
1.236000e+03 5.543823e-04
1.237000e+03 6.383917e-04
1.238000e+03 7.066301e-04
1.239000e+03 7.446875e-04
1.240000e+03 6.093970e-05
1.241000e+03 8.200596e-04
1.242000e+03 9.706770e-04
1.243000e+03 1.046026e-03
1.244000e+03 1.125729e-03
1.245000e+03 7.075212e-04
1.246000e+03 1.246767e-03
1.247000e+03 1.273020e-03
1.248000e+03 2.272488e-04
1.249000e+03 1.352781e-03
1.250000e+03 1.425193e-03
1.251000e+03 1.619726e-03
1.252000e+03 1.517658e-03
1.253000e+03 1.724029e-03
1.254000e+03 1.705743e-03
1.255000e+03 1.158847e-04
1.256000e+03 1.494857e-03
1.257000e+03 1.258677e-03
1.258000e+03 1.507667e-03
1.259000e+03 1.917494e-03
1.260000e+03 2.061285e-03
1.261000e+03 4.543620e-05
1.262000e+03 2.149501e-03
1.263000e+03 1.112268e-03
1.264000e+03 1.907896e-03
1.265000e+03 1.450126e-03
1.266000e+03 2.634582e-03
1.267000e+03 2.845594e-03
