# wavelength_A flux
5.000000e+02 7.315058e-41
5.010000e+02 9.639812e-41
5.020000e+02 1.268890e-40
5.030000e+02 1.668400e-40
5.040000e+02 2.191280e-40
5.050000e+02 2.875352e-40
5.060000e+02 3.768190e-40
5.070000e+02 4.932879e-40
5.080000e+02 6.450611e-40
5.090000e+02 8.426246e-40
5.100000e+02 1.099366e-39
5.110000e+02 1.433223e-39
5.120000e+02 1.866227e-39
5.130000e+02 2.427517e-39
5.140000e+02 3.154327e-39
5.150000e+02 4.094502e-39
5.160000e+02 5.309434e-39
5.170000e+02 6.877825e-39
5.180000e+02 8.900447e-39
5.190000e+02 1.150623e-38
5.200000e+02 1.485996e-38
5.210000e+02 1.917201e-38
5.220000e+02 2.471071e-38
5.230000e+02 3.181812e-38
5.240000e+02 4.092951e-38
5.250000e+02 5.259859e-38
5.260000e+02 6.752889e-38
5.270000e+02 8.661349e-38
5.280000e+02 1.109850e-37
5.290000e+02 1.420784e-37
5.300000e+02 1.817103e-37
5.310000e+02 2.321780e-37
5.320000e+02 2.963838e-37
5.330000e+02 3.779920e-37
5.340000e+02 4.816233e-37
5.350000e+02 6.131001e-37
5.360000e+02 7.797523e-37
5.370000e+02 9.907685e-37
5.380000e+02 1.257825e-36
5.390000e+02 1.595376e-36
5.400000e+02 2.021696e-36
5.410000e+02 2.559652e-36
5.420000e+02 3.237880e-36
5.430000e+02 4.092204e-36
5.440000e+02 5.167404e-36
5.450000e+02 6.519414e-36
5.460000e+02 8.218030e-36
5.470000e+02 1.035028e-35
5.480000e+02 1.302457e-35
5.490000e+02 1.637585e-35
5.500000e+02 2.057195e-35
5.510000e+02 2.582145e-35
5.520000e+02 3.238328e-35
5.530000e+02 4.057872e-35
5.540000e+02 5.080601e-35
5.550000e+02 6.355841e-35
5.560000e+02 7.944637e-35
5.570000e+02 9.922479e-35
5.580000e+02 1.238264e-34
5.590000e+02 1.544028e-34
5.600000e+02 1.923747e-34
5.610000e+02 2.394933e-34
5.620000e+02 2.979157e-34
5.630000e+02 3.702966e-34
5.640000e+02 4.599010e-34
5.650000e+02 5.707408e-34
5.660000e+02 7.077426e-34
5.670000e+02 8.769514e-34
5.680000e+02 1.085778e-33
5.690000e+02 1.343303e-33
5.700000e+02 1.660641e-33
5.710000e+02 2.051390e-33
5.720000e+02 2.532172e-33
5.730000e+02 3.123290e-33
5.740000e+02 3.849528e-33
5.750000e+02 4.741112e-33
5.760000e+02 5.834884e-33
5.770000e+02 7.175717e-33
5.780000e+02 8.818221e-33
5.790000e+02 1.082882e-32
5.800000e+02 1.328822e-32
5.810000e+02 1.629448e-32
5.820000e+02 1.996655e-32
5.830000e+02 2.444875e-32
5.840000e+02 2.991593e-32
5.850000e+02 3.657991e-32
5.860000e+02 4.469698e-32
5.870000e+02 5.457715e-32
5.880000e+02 6.659509e-32
5.890000e+02 8.120334e-32
5.900000e+02 9.894806e-32
5.910000e+02 1.204881e-31
5.920000e+02 1.466174e-31
5.930000e+02 1.782926e-31
5.940000e+02 2.166652e-31
5.950000e+02 2.631202e-31
5.960000e+02 3.193228e-31
5.970000e+02 3.872736e-31
5.980000e+02 4.693746e-31
5.990000e+02 5.685078e-31
6.000000e+02 6.881289e-31
6.010000e+02 8.323791e-31
6.020000e+02 1.006218e-30
6.030000e+02 1.215580e-30
6.040000e+02 1.467565e-30
6.050000e+02 1.770659e-30
6.060000e+02 2.134997e-30
6.070000e+02 2.572682e-30
6.080000e+02 3.098151e-30
6.090000e+02 3.728619e-30
6.100000e+02 4.484603e-30
6.110000e+02 5.390532e-30
6.120000e+02 6.475485e-30
6.130000e+02 7.774052e-30
6.140000e+02 9.327348e-30
6.150000e+02 1.118423e-29
6.160000e+02 1.340269e-29
6.170000e+02 1.605157e-29
6.180000e+02 1.921250e-29
6.190000e+02 2.298224e-29
6.200000e+02 2.747541e-29
6.210000e+02 3.282771e-29
6.220000e+02 3.919971e-29
6.230000e+02 4.678129e-29
6.240000e+02 5.579687e-29
6.250000e+02 6.651154e-29
6.260000e+02 7.923824e-29
6.270000e+02 9.434625e-29
6.280000e+02 1.122710e-28
6.290000e+02 1.335257e-28
6.300000e+02 1.587148e-28
6.310000e+02 1.885501e-28
6.320000e+02 2.238690e-28
6.330000e+02 2.656563e-28
6.340000e+02 3.150694e-28
6.350000e+02 3.734683e-28
6.360000e+02 4.424495e-28
6.370000e+02 5.238864e-28
6.380000e+02 6.199765e-28
6.390000e+02 7.332956e-28
6.400000e+02 8.668616e-28
6.410000e+02 1.024209e-27
6.420000e+02 1.209473e-27
6.430000e+02 1.427493e-27
6.440000e+02 1.683927e-27
6.450000e+02 1.985384e-27
6.460000e+02 2.339588e-27
6.470000e+02 2.755551e-27
6.480000e+02 3.243793e-27
6.490000e+02 3.816579e-27
6.500000e+02 4.488208e-27
6.510000e+02 5.275338e-27
6.520000e+02 6.197367e-27
6.530000e+02 7.276873e-27
6.540000e+02 8.540120e-27
6.550000e+02 1.001765e-26
6.560000e+02 1.174496e-26
6.570000e+02 1.376327e-26
6.580000e+02 1.612046e-26
6.590000e+02 1.887208e-26
6.600000e+02 2.208258e-26
6.610000e+02 2.582668e-26
6.620000e+02 3.019095e-26
6.630000e+02 3.527568e-26
6.640000e+02 4.119700e-26
6.650000e+02 4.808926e-26
6.660000e+02 5.610790e-26
6.670000e+02 6.543260e-26
6.680000e+02 7.627103e-26
6.690000e+02 8.886304e-26
6.700000e+02 1.034856e-25
6.710000e+02 1.204582e-25
6.720000e+02 1.401496e-25
6.730000e+02 1.629848e-25
6.740000e+02 1.894536e-25
6.750000e+02 2.201205e-25
6.760000e+02 2.556351e-25
6.770000e+02 2.967453e-25
6.780000e+02 3.443114e-25
6.790000e+02 3.993227e-25
6.800000e+02 4.629165e-25
6.810000e+02 5.363992e-25
6.820000e+02 6.212712e-25
6.830000e+02 7.192550e-25
6.840000e+02 8.323269e-25
6.850000e+02 9.627538e-25
6.860000e+02 1.113134e-24
6.870000e+02 1.286447e-24
6.880000e+02 1.486102e-24
6.890000e+02 1.716008e-24
6.900000e+02 1.980633e-24
6.910000e+02 2.285094e-24
6.920000e+02 2.635240e-24
6.930000e+02 3.037756e-24
6.940000e+02 3.500284e-24
6.950000e+02 4.031549e-24
6.960000e+02 4.641516e-24
6.970000e+02 5.341555e-24
6.980000e+02 6.144638e-24
6.990000e+02 7.065557e-24
7.000000e+02 8.121173e-24
7.010000e+02 9.330699e-24
7.020000e+02 1.071602e-23
7.030000e+02 1.230204e-23
7.040000e+02 1.411713e-23
7.050000e+02 1.619353e-23
7.060000e+02 1.856792e-23
7.070000e+02 2.128202e-23
7.080000e+02 2.438320e-23
7.090000e+02 2.792528e-23
7.100000e+02 3.196937e-23
7.110000e+02 3.658484e-23
7.120000e+02 4.185038e-23
7.130000e+02 4.785525e-23
7.140000e+02 5.470064e-23
7.150000e+02 6.250123e-23
7.160000e+02 7.138693e-23
7.170000e+02 8.150488e-23
7.180000e+02 9.302163e-23
7.190000e+02 1.061257e-22
7.200000e+02 1.210302e-22
7.210000e+02 1.379763e-22
7.220000e+02 1.572365e-22
7.230000e+02 1.791188e-22
7.240000e+02 2.039711e-22
7.250000e+02 2.321861e-22
7.260000e+02 2.642072e-22
7.270000e+02 3.005346e-22
7.280000e+02 3.417328e-22
7.290000e+02 3.884380e-22
7.300000e+02 4.413673e-22
7.310000e+02 5.013289e-22
7.320000e+02 5.692331e-22
7.330000e+02 6.461048e-22
7.340000e+02 7.330978e-22
7.350000e+02 8.315100e-22
7.360000e+02 9.428018e-22
7.370000e+02 1.068615e-21
7.380000e+02 1.210795e-21
7.390000e+02 1.371417e-21
7.400000e+02 1.552809e-21
7.410000e+02 1.757587e-21
7.420000e+02 1.988689e-21
7.430000e+02 2.249409e-21
7.440000e+02 2.543444e-21
7.450000e+02 2.874941e-21
7.460000e+02 3.248546e-21
7.470000e+02 3.669469e-21
7.480000e+02 4.143545e-21
7.490000e+02 4.677310e-21
7.500000e+02 5.278080e-21
7.510000e+02 5.954046e-21
7.520000e+02 6.714372e-21
7.530000e+02 7.569307e-21
7.540000e+02 8.530313e-21
7.550000e+02 9.610201e-21
7.560000e+02 1.082329e-20
7.570000e+02 1.218557e-20
7.580000e+02 1.371490e-20
7.590000e+02 1.543123e-20
7.600000e+02 1.735681e-20
7.610000e+02 1.951647e-20
7.620000e+02 2.193791e-20
7.630000e+02 2.465201e-20
7.640000e+02 2.769319e-20
7.650000e+02 3.109983e-20
7.660000e+02 3.491465e-20
7.670000e+02 3.918525e-20
7.680000e+02 4.396462e-20
7.690000e+02 4.931176e-20
7.700000e+02 5.529227e-20
7.710000e+02 6.197917e-20
7.720000e+02 6.945364e-20
7.730000e+02 7.780592e-20
7.740000e+02 8.713632e-20
7.750000e+02 9.755629e-20
7.760000e+02 1.091896e-19
7.770000e+02 1.221737e-19
7.780000e+02 1.366612e-19
7.790000e+02 1.528214e-19
7.800000e+02 1.708421e-19
7.810000e+02 1.909318e-19
7.820000e+02 2.133214e-19
7.830000e+02 2.382672e-19
7.840000e+02 2.660528e-19
7.850000e+02 2.969929e-19
7.860000e+02 3.314355e-19
7.870000e+02 3.697664e-19
7.880000e+02 4.124123e-19
7.890000e+02 4.598458e-19
7.900000e+02 5.125895e-19
7.910000e+02 5.712213e-19
7.920000e+02 6.363805e-19
7.930000e+02 7.087737e-19
7.940000e+02 7.891816e-19
7.950000e+02 8.784671e-19
7.960000e+02 9.775830e-19
7.970000e+02 1.087582e-18
7.980000e+02 1.209625e-18
7.990000e+02 1.344994e-18
8.000000e+02 1.495104e-18
8.010000e+02 1.661516e-18
8.020000e+02 1.845950e-18
8.030000e+02 2.050303e-18
8.040000e+02 2.276666e-18
8.050000e+02 2.527344e-18
8.060000e+02 2.804874e-18
8.070000e+02 3.112053e-18
8.080000e+02 3.451958e-18
8.090000e+02 3.827978e-18
8.100000e+02 4.243841e-18
8.110000e+02 4.703651e-18
8.120000e+02 5.211920e-18
8.130000e+02 5.773610e-18
8.140000e+02 6.394178e-18
8.150000e+02 7.079619e-18
8.160000e+02 7.836521e-18
8.170000e+02 8.672126e-18
8.180000e+02 9.594382e-18
8.190000e+02 1.061202e-17
8.200000e+02 1.173462e-17
8.210000e+02 1.297270e-17
8.220000e+02 1.433780e-17
8.230000e+02 1.584258e-17
8.240000e+02 1.750091e-17
8.250000e+02 1.932803e-17
8.260000e+02 2.134062e-17
8.270000e+02 2.355695e-17
8.280000e+02 2.599707e-17
8.290000e+02 2.868291e-17
8.300000e+02 3.163851e-17
8.310000e+02 3.489018e-17
8.320000e+02 3.846671e-17
8.330000e+02 4.239963e-17
8.340000e+02 4.672341e-17
8.350000e+02 5.147578e-17
8.360000e+02 5.669797e-17
8.370000e+02 6.243509e-17
8.380000e+02 6.873643e-17
8.390000e+02 7.565585e-17
8.400000e+02 8.325222e-17
8.410000e+02 9.158983e-17
8.420000e+02 1.007389e-16
8.430000e+02 1.107761e-16
8.440000e+02 1.217850e-16
8.450000e+02 1.338571e-16
8.460000e+02 1.470919e-16
8.470000e+02 1.615982e-16
8.480000e+02 1.774945e-16
8.490000e+02 1.949100e-16
8.500000e+02 2.139858e-16
8.510000e+02 2.348753e-16
8.520000e+02 2.577459e-16
8.530000e+02 2.827799e-16
8.540000e+02 3.101759e-16
8.550000e+02 3.401502e-16
8.560000e+02 3.729382e-16
8.570000e+02 4.087960e-16
8.580000e+02 4.480027e-16
8.590000e+02 4.908616e-16
8.600000e+02 5.377028e-16
8.610000e+02 5.888851e-16
8.620000e+02 6.447990e-16
8.630000e+02 7.058687e-16
8.640000e+02 7.725553e-16
8.650000e+02 8.453600e-16
8.660000e+02 9.248272e-16
8.670000e+02 1.011548e-15
8.680000e+02 1.106165e-15
8.690000e+02 1.209375e-15
8.700000e+02 1.321936e-15
8.710000e+02 1.444668e-15
8.720000e+02 1.578463e-15
8.730000e+02 1.724287e-15
8.740000e+02 1.883191e-15
8.750000e+02 2.056310e-15
8.760000e+02 2.244879e-15
8.770000e+02 2.450234e-15
8.780000e+02 2.673823e-15
8.790000e+02 2.917217e-15
8.800000e+02 3.182116e-15
8.810000e+02 3.470362e-15
8.820000e+02 3.783950e-15
8.830000e+02 4.125039e-15
8.840000e+02 4.495967e-15
8.850000e+02 4.899266e-15
8.860000e+02 5.337671e-15
8.870000e+02 5.814147e-15
8.880000e+02 6.331895e-15
8.890000e+02 6.894383e-15
8.900000e+02 7.505355e-15
8.910000e+02 8.168863e-15
8.920000e+02 8.889283e-15
8.930000e+02 9.671346e-15
8.940000e+02 1.052016e-14
8.950000e+02 1.144125e-14
8.960000e+02 1.244058e-14
8.970000e+02 1.352459e-14
8.980000e+02 1.470022e-14
8.990000e+02 1.597499e-14
9.000000e+02 1.735698e-14
9.010000e+02 1.885494e-14
9.020000e+02 2.047829e-14
9.030000e+02 2.223721e-14
9.040000e+02 2.414265e-14
9.050000e+02 2.620644e-14
9.060000e+02 2.844133e-14
9.070000e+02 3.086105e-14
9.080000e+02 3.348040e-14
9.090000e+02 3.631536e-14
9.100000e+02 3.938308e-14
9.110000e+02 4.270209e-14
9.120000e+02 4.629231e-14
9.130000e+02 5.017521e-14
9.140000e+02 5.589279e-14
9.150000e+02 9.926801e-12
9.160000e+02 7.576104e-11
9.170000e+02 7.286937e-12
9.180000e+02 1.311100e-11
9.190000e+02 2.308437e-10
9.200000e+02 7.109628e-10
9.210000e+02 9.495212e-14
9.220000e+02 8.784431e-10
9.230000e+02 3.826176e-12
9.240000e+02 1.238010e-11
9.250000e+02 2.760000e-10
9.260000e+02 2.073914e-11
9.270000e+02 1.394904e-11
9.280000e+02 5.377833e-09
9.290000e+02 5.081217e-09
9.300000e+02 9.649812e-10
9.310000e+02 1.001818e-11
9.320000e+02 3.996332e-09
9.330000e+02 2.949919e-09
9.340000e+02 7.297123e-10
9.350000e+02 7.371655e-12
9.360000e+02 7.119416e-11
9.370000e+02 2.510357e-12
9.380000e+02 4.925232e-12
9.390000e+02 2.601649e-10
9.400000e+02 1.043883e-08
9.410000e+02 5.810879e-10
9.420000e+02 2.089904e-08
9.430000e+02 5.578737e-10
9.440000e+02 2.421575e-08
9.450000e+02 2.373348e-08
9.460000e+02 9.020016e-09
9.470000e+02 4.301892e-12
9.480000e+02 6.493645e-09
9.490000e+02 5.160002e-10
9.500000e+02 6.611762e-12
9.510000e+02 2.793934e-09
9.520000e+02 1.146133e-08
9.530000e+02 9.462575e-11
9.540000e+02 4.850231e-12
9.550000e+02 1.213426e-09
9.560000e+02 3.983331e-08
9.570000e+02 3.680736e-10
9.580000e+02 2.338130e-12
9.590000e+02 3.687474e-08
9.600000e+02 2.017408e-11
9.610000e+02 2.296107e-08
9.620000e+02 8.108230e-09
9.630000e+02 4.481961e-10
9.640000e+02 1.258780e-10
9.650000e+02 1.849543e-11
9.660000e+02 1.392138e-09
9.670000e+02 1.500737e-10
9.680000e+02 1.027267e-10
9.690000e+02 7.451138e-09
9.700000e+02 1.300568e-08
9.710000e+02 2.524576e-10
9.720000e+02 4.211084e-11
9.730000e+02 1.105039e-10
9.740000e+02 4.610700e-09
9.750000e+02 3.160149e-09
9.760000e+02 6.621918e-08
9.770000e+02 6.485111e-08
9.780000e+02 3.998952e-08
9.790000e+02 1.859645e-07
9.800000e+02 2.001647e-07
9.810000e+02 2.279245e-08
9.820000e+02 2.931202e-09
9.830000e+02 2.474464e-07
9.840000e+02 4.305665e-09
9.850000e+02 7.999719e-09
9.860000e+02 1.235985e-08
9.870000e+02 2.888776e-07
9.880000e+02 7.945289e-11
9.890000e+02 1.438223e-07
9.900000e+02 2.496942e-07
9.910000e+02 3.585999e-09
9.920000e+02 2.310893e-11
9.930000e+02 4.079631e-07
9.940000e+02 2.632561e-11
9.950000e+02 1.345243e-08
9.960000e+02 4.577032e-10
9.970000e+02 5.049394e-09
9.980000e+02 3.921521e-07
9.990000e+02 5.159095e-09
1.000000e+03 7.905498e-07
1.001000e+03 6.748202e-07
1.002000e+03 7.957843e-07
1.003000e+03 4.968626e-09
1.004000e+03 1.271019e-10
1.005000e+03 3.091179e-08
1.006000e+03 8.639797e-07
1.007000e+03 1.042997e-06
1.008000e+03 7.447204e-07
1.009000e+03 6.653018e-09
1.010000e+03 7.084739e-07
1.011000e+03 7.007286e-07
1.012000e+03 9.321440e-07
1.013000e+03 9.511583e-07
1.014000e+03 1.019203e-10
1.015000e+03 3.145146e-10
1.016000e+03 3.907155e-08
1.017000e+03 9.873702e-11
1.018000e+03 7.231733e-09
1.019000e+03 2.710294e-10
1.020000e+03 7.044536e-07
1.021000e+03 1.754074e-08
1.022000e+03 2.783716e-08
1.023000e+03 1.000387e-09
1.024000e+03 3.501794e-08
1.025000e+03 1.533014e-10
1.026000e+03 2.013027e-10
1.027000e+03 1.481078e-08
1.028000e+03 9.953780e-10
1.029000e+03 2.235083e-10
1.030000e+03 1.324599e-07
1.031000e+03 5.773026e-07
1.032000e+03 2.555894e-06
1.033000e+03 1.260264e-08
1.034000e+03 6.755225e-07
1.035000e+03 6.543814e-10
1.036000e+03 4.347385e-10
1.037000e+03 6.991255e-06
1.038000e+03 1.692627e-05
1.039000e+03 9.526159e-06
1.040000e+03 5.973243e-06
1.041000e+03 2.002037e-05
1.042000e+03 2.108891e-05
1.043000e+03 1.449122e-05
1.044000e+03 3.463200e-05
1.045000e+03 8.363350e-10
1.046000e+03 7.057531e-06
1.047000e+03 3.583566e-06
1.048000e+03 1.923308e-08
1.049000e+03 2.810245e-06
1.050000e+03 3.330770e-07
1.051000e+03 1.411900e-07
1.052000e+03 3.676511e-05
1.053000e+03 4.510374e-05
1.054000e+03 1.087756e-09
1.055000e+03 4.514757e-05
1.056000e+03 5.402379e-05
1.057000e+03 1.144609e-05
1.058000e+03 1.337575e-07
1.059000e+03 9.665018e-08
1.060000e+03 2.727393e-08
1.061000e+03 3.005477e-05
1.062000e+03 6.530615e-08
1.063000e+03 1.001941e-06
1.064000e+03 2.255547e-09
1.065000e+03 1.993612e-09
1.066000e+03 3.195769e-05
1.067000e+03 1.481092e-07
1.068000e+03 1.127167e-04
1.069000e+03 2.442279e-08
1.070000e+03 2.524743e-06
1.071000e+03 6.820478e-05
1.072000e+03 1.451054e-04
1.073000e+03 4.416506e-09
1.074000e+03 1.714491e-05
1.075000e+03 8.679664e-06
1.076000e+03 1.237077e-04
1.077000e+03 4.845242e-08
1.078000e+03 2.158631e-07
1.079000e+03 1.656636e-06
1.080000e+03 1.293842e-05
1.081000e+03 1.099519e-04
1.082000e+03 5.909266e-05
1.083000e+03 2.746315e-05
1.084000e+03 2.669134e-04
1.085000e+03 3.323235e-06
1.086000e+03 2.561807e-04
1.087000e+03 4.151952e-07
1.088000e+03 3.155523e-04
1.089000e+03 3.339453e-04
1.090000e+03 2.505644e-06
1.091000e+03 5.203998e-06
1.092000e+03 3.458036e-04
1.093000e+03 3.970352e-04
1.094000e+03 5.049619e-05
1.095000e+03 4.493216e-04
1.096000e+03 7.181050e-06
1.097000e+03 3.506808e-04
1.098000e+03 4.511257e-04
1.099000e+03 1.061108e-05
1.100000e+03 6.339110e-08
1.101000e+03 2.363350e-07
1.102000e+03 8.766160e-06
1.103000e+03 6.265138e-04
1.104000e+03 6.277549e-04
1.105000e+03 6.756498e-04
1.106000e+03 6.747894e-05
1.107000e+03 1.842855e-07
1.108000e+03 4.910856e-04
1.109000e+03 4.096539e-06
1.110000e+03 7.677308e-04
1.111000e+03 7.126675e-04
1.112000e+03 2.729536e-04
1.113000e+03 5.266554e-04
1.114000e+03 1.263813e-04
1.115000e+03 3.651578e-06
1.116000e+03 7.352425e-07
1.117000e+03 1.025366e-03
1.118000e+03 7.699127e-06
1.119000e+03 2.544008e-04
1.120000e+03 1.721201e-06
1.121000e+03 9.738572e-04
1.122000e+03 1.611053e-03
1.123000e+03 1.827479e-03
1.124000e+03 2.350357e-03
1.125000e+03 1.510693e-03
1.126000e+03 2.207636e-03
1.127000e+03 1.385939e-03
1.128000e+03 1.279579e-03
1.129000e+03 7.360917e-04
1.130000e+03 1.478816e-03
1.131000e+03 1.082062e-03
1.132000e+03 3.110676e-06
1.133000e+03 8.008548e-05
1.134000e+03 8.889487e-04
1.135000e+03 1.095307e-03
1.136000e+03 1.446981e-04
1.137000e+03 9.637902e-04
1.138000e+03 6.714853e-04
1.139000e+03 1.150113e-03
1.140000e+03 1.066406e-03
1.141000e+03 1.110098e-03
1.142000e+03 1.108461e-03
1.143000e+03 5.737180e-04
1.144000e+03 1.082532e-03
1.145000e+03 1.877546e-06
1.146000e+03 1.154118e-03
1.147000e+03 1.159766e-03
1.148000e+03 2.584036e-05
1.149000e+03 1.056318e-03
1.150000e+03 1.025145e-03
1.151000e+03 1.103870e-03
1.152000e+03 9.891233e-04
1.153000e+03 1.063171e-03
1.154000e+03 1.047704e-03
1.155000e+03 9.719333e-04
1.156000e+03 7.563166e-04
1.157000e+03 9.478967e-04
1.158000e+03 6.371564e-04
1.159000e+03 9.790219e-04
1.160000e+03 7.666613e-04
1.161000e+03 8.956050e-04
1.162000e+03 1.209652e-04
1.163000e+03 4.242769e-04
1.164000e+03 1.742679e-06
1.165000e+03 4.850229e-04
1.166000e+03 2.490224e-04
1.167000e+03 1.627264e-04
1.168000e+03 1.021518e-03
1.169000e+03 1.045874e-03
1.170000e+03 1.672973e-04
1.171000e+03 4.515563e-04
1.172000e+03 3.535562e-04
1.173000e+03 3.062326e-04
1.174000e+03 1.386506e-05
1.175000e+03 1.497334e-06
1.176000e+03 6.856280e-07
1.177000e+03 1.365758e-03
1.178000e+03 1.284885e-03
1.179000e+03 1.213680e-03
1.180000e+03 1.080420e-03
1.181000e+03 1.091495e-03
1.182000e+03 1.056361e-03
1.183000e+03 9.607951e-04
1.184000e+03 9.157906e-04
1.185000e+03 8.914278e-04
1.186000e+03 8.171673e-05
1.187000e+03 8.708640e-04
1.188000e+03 7.830134e-04
1.189000e+03 8.355380e-04
1.190000e+03 8.125225e-04
1.191000e+03 7.641901e-04
1.192000e+03 6.910354e-04
1.193000e+03 6.841770e-04
1.194000e+03 6.637200e-04
1.195000e+03 6.341141e-04
1.196000e+03 1.452324e-02
1.197000e+03 1.370334e-02
1.198000e+03 4.277965e-04
1.199000e+03 1.113064e-02
1.200000e+03 2.012162e-03
1.201000e+03 8.390910e-03
1.202000e+03 6.348704e-03
1.203000e+03 5.878590e-03
1.204000e+03 1.849713e-03
1.205000e+03 3.698458e-03
1.206000e+03 2.803548e-03
1.207000e+03 3.326717e-04
1.208000e+03 1.267432e-03
1.209000e+03 9.130965e-04
1.210000e+03 3.843335e-06
1.211000e+03 3.158912e-04
1.212000e+03 1.520907e-04
1.213000e+03 6.235747e-05
1.214000e+03 1.770966e-05
1.215000e+03 3.962281e-06
1.216000e+03 3.701716e-06
1.217000e+03 1.147452e-05
1.218000e+03 5.176295e-05
1.219000e+03 1.499369e-04
1.220000e+03 3.190321e-04
1.221000e+03 6.980263e-04
1.222000e+03 1.265150e-03
1.223000e+03 1.999703e-03
1.224000e+03 2.874586e-03
1.225000e+03 6.883261e-04
1.226000e+03 6.617563e-03
1.227000e+03 9.344774e-03
1.228000e+03 7.117420e-03
1.229000e+03 1.577569e-02
1.230000e+03 1.467851e-02
1.231000e+03 4.732473e-03
1.232000e+03 2.873284e-02
1.233000e+03 3.429262e-02
1.234000e+03 3.376035e-02
1.235000e+03 4.523241e-02
1.236000e+03 2.201970e-02
1.237000e+03 5.762757e-02
1.238000e+03 6.394971e-02
1.239000e+03 6.144696e-02
1.240000e+03 1.012655e-02
1.241000e+03 6.814297e-02
1.242000e+03 8.889239e-02
1.243000e+03 9.698622e-02
1.244000e+03 1.043270e-01
1.245000e+03 1.097643e-01
1.246000e+03 1.104654e-01
1.247000e+03 1.200069e-01
1.248000e+03 9.673849e-02
1.249000e+03 1.374508e-01
1.250000e+03 1.099039e-01
1.251000e+03 1.512327e-01
1.252000e+03 1.483009e-01
1.253000e+03 1.601100e-01
1.254000e+03 1.568049e-01
1.255000e+03 2.909198e-02
1.256000e+03 1.309295e-01
1.257000e+03 8.633123e-02
1.258000e+03 1.530411e-01
1.259000e+03 1.675070e-01
1.260000e+03 1.858672e-01
1.261000e+03 2.351522e-03
1.262000e+03 1.925398e-01
1.263000e+03 1.826112e-01
1.264000e+03 1.669350e-01
1.265000e+03 1.641434e-01
1.266000e+03 2.366717e-01
1.267000e+03 2.451511e-01
