# wavelength_A flux
5.000000e+02 1.473421e-09
5.010000e+02 1.680704e-09
5.020000e+02 1.916105e-09
5.030000e+02 2.183296e-09
5.040000e+02 2.486410e-09
5.050000e+02 2.940659e-09
5.060000e+02 3.344722e-09
5.070000e+02 3.802305e-09
5.080000e+02 4.320233e-09
5.090000e+02 4.906476e-09
5.100000e+02 5.569029e-09
5.110000e+02 6.317828e-09
5.120000e+02 7.163639e-09
5.130000e+02 8.118564e-09
5.140000e+02 9.196144e-09
5.150000e+02 1.041136e-08
5.160000e+02 1.178167e-08
5.170000e+02 1.332475e-08
5.180000e+02 1.506425e-08
5.190000e+02 1.702150e-08
5.200000e+02 1.922370e-08
5.210000e+02 2.170024e-08
5.220000e+02 2.448004e-08
5.230000e+02 2.761177e-08
5.240000e+02 3.112427e-08
5.250000e+02 3.506722e-08
5.260000e+02 3.949094e-08
5.270000e+02 4.445195e-08
5.280000e+02 5.001295e-08
5.290000e+02 5.622376e-08
5.300000e+02 6.322152e-08
5.310000e+02 7.103267e-08
5.320000e+02 7.977308e-08
5.330000e+02 8.954801e-08
5.340000e+02 1.004755e-07
5.350000e+02 1.126860e-07
5.360000e+02 1.263226e-07
5.370000e+02 1.387236e-07
5.380000e+02 1.585380e-07
5.390000e+02 1.774963e-07
5.400000e+02 1.986335e-07
5.410000e+02 2.221649e-07
5.420000e+02 2.484282e-07
5.430000e+02 2.776546e-07
5.440000e+02 3.101836e-07
5.450000e+02 3.463771e-07
5.460000e+02 3.865269e-07
5.470000e+02 4.313843e-07
5.480000e+02 4.811154e-07
5.490000e+02 5.363622e-07
5.500000e+02 5.977049e-07
5.510000e+02 6.657850e-07
5.520000e+02 7.413261e-07
5.530000e+02 8.251051e-07
5.540000e+02 9.179835e-07
5.550000e+02 1.020909e-06
5.560000e+02 1.134923e-06
5.570000e+02 1.261173e-06
5.580000e+02 1.400915e-06
5.590000e+02 1.555533e-06
5.600000e+02 1.726545e-06
5.610000e+02 1.915618e-06
5.620000e+02 2.124578e-06
5.630000e+02 2.355431e-06
5.640000e+02 2.610374e-06
5.650000e+02 2.891811e-06
5.660000e+02 3.202401e-06
5.670000e+02 3.545012e-06
5.680000e+02 3.922820e-06
5.690000e+02 4.339280e-06
5.700000e+02 4.798178e-06
5.710000e+02 5.303686e-06
5.720000e+02 5.860301e-06
5.730000e+02 6.472989e-06
5.740000e+02 7.147153e-06
5.750000e+02 7.888805e-06
5.760000e+02 8.702510e-06
5.770000e+02 9.600452e-06
5.780000e+02 1.058526e-05
5.790000e+02 1.166699e-05
5.800000e+02 1.285476e-05
5.810000e+02 1.415852e-05
5.820000e+02 1.558906e-05
5.830000e+02 1.715797e-05
5.840000e+02 1.886987e-05
5.850000e+02 2.076303e-05
5.860000e+02 2.283208e-05
5.870000e+02 2.509664e-05
5.880000e+02 2.757640e-05
5.890000e+02 3.029020e-05
5.900000e+02 3.326172e-05
5.910000e+02 3.651170e-05
5.920000e+02 4.006617e-05
5.930000e+02 4.395226e-05
5.940000e+02 4.819960e-05
5.950000e+02 5.283615e-05
5.960000e+02 5.790871e-05
5.970000e+02 6.344348e-05
5.980000e+02 6.948424e-05
5.990000e+02 7.607705e-05
6.000000e+02 8.326916e-05
6.010000e+02 9.110030e-05
6.020000e+02 9.966365e-05
6.030000e+02 1.089831e-04
6.040000e+02 1.191376e-04
6.050000e+02 1.301985e-04
6.060000e+02 1.422421e-04
6.070000e+02 1.553535e-04
6.080000e+02 1.696216e-04
6.090000e+02 1.851443e-04
6.100000e+02 2.020266e-04
6.110000e+02 2.203833e-04
6.120000e+02 2.403362e-04
6.130000e+02 2.620183e-04
6.140000e+02 2.855724e-04
6.150000e+02 3.111530e-04
6.160000e+02 3.389264e-04
6.170000e+02 3.690720e-04
6.180000e+02 4.017832e-04
6.190000e+02 4.372621e-04
6.200000e+02 4.757449e-04
6.210000e+02 5.174677e-04
6.220000e+02 5.626904e-04
6.230000e+02 6.116934e-04
6.240000e+02 6.647779e-04
6.250000e+02 7.222682e-04
6.260000e+02 7.845124e-04
6.270000e+02 8.518862e-04
6.280000e+02 9.247927e-04
6.290000e+02 1.003658e-03
6.300000e+02 1.088960e-03
6.310000e+02 1.181178e-03
6.320000e+02 1.280892e-03
6.330000e+02 1.388634e-03
6.340000e+02 1.505040e-03
6.350000e+02 1.630769e-03
6.360000e+02 1.762042e-03
6.370000e+02 1.913104e-03
6.380000e+02 2.071260e-03
6.390000e+02 2.241941e-03
6.400000e+02 2.426058e-03
6.410000e+02 2.624619e-03
6.420000e+02 2.838703e-03
6.430000e+02 3.069466e-03
6.440000e+02 3.318144e-03
6.450000e+02 3.586059e-03
6.460000e+02 3.874638e-03
6.470000e+02 4.185379e-03
6.480000e+02 4.519918e-03
6.490000e+02 4.880001e-03
6.500000e+02 5.267457e-03
6.510000e+02 5.684278e-03
6.520000e+02 6.132583e-03
6.530000e+02 6.614632e-03
6.540000e+02 7.132842e-03
6.550000e+02 7.689795e-03
6.560000e+02 8.288246e-03
6.570000e+02 8.930692e-03
6.580000e+02 9.621454e-03
6.590000e+02 1.036284e-02
6.600000e+02 1.115867e-02
6.610000e+02 1.201289e-02
6.620000e+02 1.292944e-02
6.630000e+02 1.391267e-02
6.640000e+02 1.496721e-02
6.650000e+02 1.609792e-02
6.660000e+02 1.731020e-02
6.670000e+02 1.860933e-02
6.680000e+02 2.000156e-02
6.690000e+02 2.149308e-02
6.700000e+02 2.309057e-02
6.710000e+02 2.480133e-02
6.720000e+02 2.663224e-02
6.730000e+02 2.859327e-02
6.740000e+02 3.069121e-02
6.750000e+02 3.293530e-02
6.760000e+02 3.533629e-02
6.770000e+02 3.790405e-02
6.780000e+02 4.064956e-02
6.790000e+02 4.358450e-02
6.800000e+02 4.672126e-02
6.810000e+02 5.007308e-02
6.820000e+02 5.365391e-02
6.830000e+02 5.747861e-02
6.840000e+02 6.156293e-02
6.850000e+02 6.592329e-02
6.860000e+02 7.057831e-02
6.870000e+02 7.554480e-02
6.880000e+02 8.084640e-02
6.890000e+02 8.650088e-02
6.900000e+02 9.253171e-02
6.910000e+02 9.896288e-02
6.920000e+02 1.058171e-01
6.930000e+02 1.131255e-01
6.940000e+02 1.209141e-01
6.950000e+02 1.292130e-01
6.960000e+02 1.380538e-01
6.970000e+02 1.474663e-01
6.980000e+02 1.574972e-01
6.990000e+02 1.681728e-01
7.000000e+02 1.795367e-01
7.010000e+02 1.916294e-01
7.020000e+02 2.044982e-01
7.030000e+02 2.181888e-01
7.040000e+02 2.327507e-01
7.050000e+02 2.482367e-01
7.060000e+02 2.647021e-01
7.070000e+02 2.822061e-01
7.080000e+02 3.008100e-01
7.090000e+02 3.205720e-01
7.100000e+02 3.415782e-01
7.110000e+02 3.638901e-01
7.120000e+02 3.875869e-01
7.130000e+02 4.127499e-01
7.140000e+02 4.394649e-01
7.150000e+02 4.678225e-01
7.160000e+02 4.979188e-01
7.170000e+02 5.298506e-01
7.180000e+02 5.637210e-01
7.190000e+02 5.996726e-01
7.200000e+02 6.377864e-01
7.210000e+02 6.782006e-01
7.220000e+02 7.210456e-01
7.230000e+02 7.664620e-01
7.240000e+02 8.145783e-01
7.250000e+02 8.655780e-01
7.260000e+02 9.196082e-01
7.270000e+02 9.768406e-01
7.280000e+02 1.037453e+00
7.290000e+02 1.101634e+00
7.300000e+02 1.169583e+00
7.310000e+02 1.241508e+00
7.320000e+02 1.317619e+00
7.330000e+02 1.398168e+00
7.340000e+02 1.483389e+00
7.350000e+02 1.573537e+00
7.360000e+02 1.668878e+00
7.370000e+02 1.769703e+00
7.380000e+02 1.876302e+00
7.390000e+02 1.988990e+00
7.400000e+02 2.108043e+00
7.410000e+02 2.233921e+00
7.420000e+02 2.366895e+00
7.430000e+02 2.507405e+00
7.440000e+02 2.655804e+00
7.450000e+02 2.812528e+00
7.460000e+02 2.978018e+00
7.470000e+02 3.152735e+00
7.480000e+02 3.337164e+00
7.490000e+02 3.531816e+00
7.500000e+02 3.737226e+00
7.510000e+02 3.953950e+00
7.520000e+02 4.182583e+00
7.530000e+02 4.423738e+00
7.540000e+02 4.678018e+00
7.550000e+02 4.946187e+00
7.560000e+02 5.228915e+00
7.570000e+02 5.526706e+00
7.580000e+02 5.841026e+00
7.590000e+02 6.171994e+00
7.600000e+02 6.520807e+00
7.610000e+02 6.888188e+00
7.620000e+02 7.275222e+00
7.630000e+02 7.682827e+00
7.640000e+02 8.112046e+00
7.650000e+02 8.563951e+00
7.660000e+02 9.039690e+00
7.670000e+02 9.540426e+00
7.680000e+02 1.006727e+01
7.690000e+02 1.062188e+01
7.700000e+02 1.120529e+01
7.710000e+02 1.181900e+01
7.720000e+02 1.246451e+01
7.730000e+02 1.314336e+01
7.740000e+02 1.385716e+01
7.750000e+02 1.460762e+01
7.760000e+02 1.539383e+01
7.770000e+02 1.622568e+01
7.780000e+02 1.709707e+01
7.790000e+02 1.801268e+01
7.800000e+02 1.897464e+01
7.810000e+02 1.998517e+01
7.820000e+02 2.104654e+01
7.830000e+02 2.216116e+01
7.840000e+02 2.333159e+01
7.850000e+02 2.456042e+01
7.860000e+02 2.585034e+01
7.870000e+02 2.720447e+01
7.880000e+02 2.862542e+01
7.890000e+02 3.011619e+01
7.900000e+02 3.168051e+01
7.910000e+02 3.332172e+01
7.920000e+02 3.504313e+01
7.930000e+02 3.684850e+01
7.940000e+02 3.874168e+01
7.950000e+02 4.072667e+01
7.960000e+02 4.280763e+01
7.970000e+02 4.498901e+01
7.980000e+02 4.727530e+01
7.990000e+02 4.967124e+01
8.000000e+02 5.218177e+01
8.010000e+02 5.481184e+01
8.020000e+02 5.756737e+01
8.030000e+02 6.045338e+01
8.040000e+02 6.347589e+01
8.050000e+02 6.664094e+01
8.060000e+02 6.995484e+01
8.070000e+02 7.342416e+01
8.080000e+02 7.705573e+01
8.090000e+02 8.085669e+01
8.100000e+02 8.483440e+01
8.110000e+02 8.899664e+01
8.120000e+02 9.335114e+01
8.130000e+02 9.790637e+01
8.140000e+02 1.026705e+02
8.150000e+02 1.076539e+02
8.160000e+02 1.128658e+02
8.170000e+02 1.183152e+02
8.180000e+02 1.240126e+02
8.190000e+02 1.299684e+02
8.200000e+02 1.361937e+02
8.210000e+02 1.426999e+02
8.220000e+02 1.494989e+02
8.230000e+02 1.566029e+02
8.240000e+02 1.640250e+02
8.250000e+02 1.717783e+02
8.260000e+02 1.798767e+02
8.270000e+02 1.883345e+02
8.280000e+02 1.971668e+02
8.290000e+02 2.063890e+02
8.300000e+02 2.160172e+02
8.310000e+02 2.260683e+02
8.320000e+02 2.365595e+02
8.330000e+02 2.475089e+02
8.340000e+02 2.589352e+02
8.350000e+02 2.708129e+02
8.360000e+02 2.832944e+02
8.370000e+02 2.962737e+02
8.380000e+02 3.098052e+02
8.390000e+02 3.239235e+02
8.400000e+02 3.386459e+02
8.410000e+02 3.539969e+02
8.420000e+02 3.699906e+02
8.430000e+02 3.866906e+02
8.440000e+02 4.040848e+02
8.450000e+02 4.222147e+02
8.460000e+02 4.411092e+02
8.470000e+02 4.607986e+02
8.480000e+02 4.813141e+02
8.490000e+02 5.026880e+02
8.500000e+02 5.249538e+02
8.510000e+02 5.481464e+02
8.520000e+02 5.722999e+02
8.530000e+02 5.974567e+02
8.540000e+02 6.236563e+02
8.550000e+02 6.509295e+02
8.560000e+02 6.793229e+02
8.570000e+02 7.088796e+02
8.580000e+02 7.396437e+02
8.590000e+02 7.716618e+02
8.600000e+02 8.049814e+02
8.610000e+02 8.396517e+02
8.620000e+02 8.757083e+02
8.630000e+02 9.132329e+02
8.640000e+02 9.522707e+02
8.650000e+02 9.928685e+02
8.660000e+02 1.035099e+03
8.670000e+02 1.079011e+03
8.680000e+02 1.124671e+03
8.690000e+02 1.172144e+03
8.700000e+02 1.221492e+03
8.710000e+02 1.272799e+03
8.720000e+02 1.326122e+03
8.730000e+02 1.381540e+03
8.740000e+02 1.439131e+03
8.750000e+02 1.498972e+03
8.760000e+02 1.561147e+03
8.770000e+02 1.625733e+03
8.780000e+02 1.692839e+03
8.790000e+02 1.762534e+03
8.800000e+02 1.834918e+03
8.810000e+02 1.910089e+03
8.820000e+02 1.988146e+03
8.830000e+02 2.069190e+03
8.840000e+02 2.153308e+03
8.850000e+02 2.240655e+03
8.860000e+02 2.331321e+03
8.870000e+02 2.425425e+03
8.880000e+02 2.523086e+03
8.890000e+02 2.624431e+03
8.900000e+02 2.729589e+03
8.910000e+02 2.838692e+03
8.920000e+02 2.944346e+03
8.930000e+02 3.069292e+03
8.940000e+02 3.191076e+03
8.950000e+02 3.317381e+03
8.960000e+02 3.448372e+03
8.970000e+02 3.584201e+03
8.980000e+02 3.725038e+03
8.990000e+02 3.871054e+03
9.000000e+02 4.022426e+03
9.010000e+02 4.179336e+03
9.020000e+02 4.341973e+03
9.030000e+02 4.510527e+03
9.040000e+02 4.685099e+03
9.050000e+02 4.866199e+03
9.060000e+02 5.053699e+03
9.070000e+02 5.247802e+03
9.080000e+02 5.449253e+03
9.090000e+02 5.657760e+03
9.100000e+02 5.873727e+03
9.110000e+02 6.097429e+03
9.120000e+02 6.329343e+03
9.130000e+02 6.384334e+03
9.140000e+02 7.036664e+03
9.150000e+02 4.481902e+04
9.160000e+02 1.432585e+05
9.170000e+02 1.496963e+05
9.180000e+02 1.520025e+05
9.190000e+02 1.604776e+05
9.200000e+02 1.656402e+05
9.210000e+02 8.274288e+03
9.220000e+02 1.755791e+05
9.230000e+02 1.771591e+05
9.240000e+02 1.662797e+05
9.250000e+02 1.885124e+05
9.260000e+02 1.955178e+05
9.270000e+02 2.029730e+05
9.280000e+02 2.094087e+05
9.290000e+02 1.870831e+05
9.300000e+02 2.187095e+05
9.310000e+02 2.249211e+05
9.320000e+02 2.351469e+05
9.330000e+02 2.414099e+05
9.340000e+02 2.489485e+05
9.350000e+02 7.772369e+04
9.360000e+02 2.625808e+05
9.370000e+02 5.282828e+04
9.380000e+02 1.537037e+05
9.390000e+02 2.869674e+05
9.400000e+02 2.954040e+05
9.410000e+02 1.590522e+05
9.420000e+02 3.127275e+05
9.430000e+02 3.216401e+05
9.440000e+02 2.127634e+05
9.450000e+02 3.400712e+05
9.460000e+02 3.496890e+05
9.470000e+02 2.360493e+05
9.480000e+02 3.349565e+05
9.490000e+02 3.756832e+05
9.500000e+02 7.530159e+04
9.510000e+02 3.860802e+05
9.520000e+02 4.129735e+05
9.530000e+02 4.210746e+05
9.540000e+02 3.523984e+05
9.550000e+02 4.490434e+05
9.560000e+02 4.062240e+05
9.570000e+02 3.699235e+05
9.580000e+02 4.845218e+05
9.590000e+02 5.031598e+05
9.600000e+02 1.102051e+05
9.610000e+02 5.309886e+05
9.620000e+02 5.460723e+05
9.630000e+02 5.614177e+05
9.640000e+02 4.317256e+04
9.650000e+02 5.323673e+05
9.660000e+02 6.084701e+05
9.670000e+02 6.208109e+05
9.680000e+02 6.378576e+05
9.690000e+02 6.537934e+05
9.700000e+02 6.744073e+05
9.710000e+02 6.861784e+05
9.720000e+02 6.380591e+05
9.730000e+02 6.344038e+05
9.740000e+02 7.386972e+05
9.750000e+02 7.697103e+05
9.760000e+02 7.925291e+05
9.770000e+02 8.145530e+05
9.780000e+02 8.344905e+05
9.790000e+02 8.592951e+05
9.800000e+02 8.816723e+05
9.810000e+02 9.056322e+05
9.820000e+02 9.257608e+05
9.830000e+02 9.533881e+05
9.840000e+02 3.364760e+05
9.850000e+02 1.004408e+06
9.860000e+02 1.030572e+06
9.870000e+02 1.057252e+06
9.880000e+02 1.080418e+06
9.890000e+02 8.479054e+05
9.900000e+02 1.221519e+05
9.910000e+02 1.160894e+06
9.920000e+02 1.039798e+06
9.930000e+02 1.146068e+06
9.940000e+02 1.857066e+05
9.950000e+02 2.913583e+05
9.960000e+02 4.785250e+05
9.970000e+02 2.721031e+05
9.980000e+02 1.394160e+06
9.990000e+02 1.400058e+06
1.000000e+03 1.470883e+06
1.001000e+03 1.508197e+06
1.002000e+03 1.545616e+06
1.003000e+03 1.474923e+06
1.004000e+03 1.623484e+06
1.005000e+03 1.509562e+06
1.006000e+03 1.707139e+06
1.007000e+03 1.746602e+06
1.008000e+03 1.789899e+06
1.009000e+03 1.798226e+06
1.010000e+03 1.882713e+06
1.011000e+03 1.928958e+06
1.012000e+03 1.976113e+06
1.013000e+03 2.024490e+06
1.014000e+03 2.063466e+06
1.015000e+03 2.093957e+06
1.016000e+03 2.171683e+06
1.017000e+03 2.216454e+06
1.018000e+03 2.276766e+06
1.019000e+03 2.326836e+06
1.020000e+03 2.380293e+06
1.021000e+03 1.670006e+06
1.022000e+03 2.348113e+06
1.023000e+03 2.479378e+06
1.024000e+03 2.353142e+06
1.025000e+03 1.722136e+06
1.026000e+03 7.176692e+05
1.027000e+03 2.374136e+06
1.028000e+03 8.097862e+05
1.029000e+03 2.889112e+06
1.030000e+03 2.965184e+06
1.031000e+03 3.090598e+06
1.032000e+03 3.160366e+06
1.033000e+03 1.778984e+06
1.034000e+03 3.337631e+06
1.035000e+03 7.408942e+05
1.036000e+03 3.365874e+06
1.037000e+03 4.380815e+05
1.038000e+03 3.671827e+06
1.039000e+03 3.725630e+06
1.040000e+03 3.849102e+06
1.041000e+03 3.915913e+06
1.042000e+03 3.992620e+06
1.043000e+03 4.046181e+06
1.044000e+03 4.215488e+06
1.045000e+03 4.313266e+06
1.046000e+03 4.423614e+06
1.047000e+03 4.523836e+06
1.048000e+03 4.608751e+06
1.049000e+03 4.566066e+06
1.050000e+03 4.845916e+06
1.051000e+03 4.957606e+06
1.052000e+03 5.071935e+06
1.053000e+03 5.140190e+06
1.054000e+03 5.275104e+06
1.055000e+03 5.402521e+06
1.056000e+03 5.550278e+06
1.057000e+03 5.674351e+06
1.058000e+03 5.800454e+06
1.059000e+03 5.931766e+06
1.060000e+03 6.063716e+06
1.061000e+03 6.204928e+06
1.062000e+03 6.343362e+06
1.063000e+03 2.898979e+06
1.064000e+03 1.346345e+06
1.065000e+03 6.793055e+06
1.066000e+03 6.167865e+06
1.067000e+03 6.965912e+06
1.068000e+03 7.281962e+06
1.069000e+03 7.359927e+06
1.070000e+03 7.544193e+06
1.071000e+03 7.779727e+06
1.072000e+03 7.950184e+06
1.073000e+03 8.104996e+06
1.074000e+03 8.301856e+06
1.075000e+03 8.481308e+06
1.076000e+03 8.668908e+06
1.077000e+03 8.846823e+06
1.078000e+03 9.047584e+06
1.079000e+03 9.218383e+06
1.080000e+03 9.442920e+06
1.081000e+03 9.649363e+06
1.082000e+03 9.851408e+06
1.083000e+03 1.006093e+07
1.084000e+03 1.017936e+07
1.085000e+03 7.282772e+06
1.086000e+03 1.073080e+07
1.087000e+03 1.095124e+07
1.088000e+03 1.115021e+07
1.089000e+03 1.142744e+07
1.090000e+03 1.165883e+07
1.091000e+03 1.190295e+07
1.092000e+03 1.216619e+07
1.093000e+03 1.241129e+07
1.094000e+03 1.268455e+07
1.095000e+03 1.294119e+07
1.096000e+03 1.321867e+07
1.097000e+03 1.333361e+07
1.098000e+03 1.365204e+07
1.099000e+03 1.405273e+07
1.100000e+03 1.404183e+07
1.101000e+03 1.328100e+07
1.102000e+03 3.169483e+07
1.103000e+03 1.143922e+08
1.104000e+03 3.983878e+07
1.105000e+03 1.451960e+07
1.106000e+03 3.141005e+08
1.107000e+03 2.814926e+08
1.108000e+03 3.204275e+08
1.109000e+03 1.827192e+08
1.110000e+03 5.149527e+07
1.111000e+03 3.547853e+07
1.112000e+03 2.859944e+08
1.113000e+03 3.524547e+08
1.114000e+03 1.141352e+07
1.115000e+03 3.390703e+08
1.116000e+03 3.578719e+08
1.117000e+03 1.244627e+07
1.118000e+03 2.392989e+08
1.119000e+03 3.812059e+08
1.120000e+03 3.818570e+08
1.121000e+03 3.279610e+08
1.122000e+03 3.915984e+06
1.123000e+03 2.962829e+07
1.124000e+03 4.097663e+08
1.125000e+03 1.602721e+08
1.126000e+03 4.248973e+08
1.127000e+03 4.075249e+08
1.128000e+03 2.093633e+08
1.129000e+03 4.313933e+08
1.130000e+03 3.636232e+08
1.131000e+03 4.602673e+08
1.132000e+03 1.168928e+07
1.133000e+03 3.723714e+08
1.134000e+03 4.533195e+08
1.135000e+03 6.827104e+06
1.136000e+03 4.866073e+08
1.137000e+03 5.024014e+08
1.138000e+03 5.106456e+08
1.139000e+03 5.015059e+08
1.140000e+03 7.792992e+06
1.141000e+03 5.353639e+08
1.142000e+03 5.261620e+08
1.143000e+03 5.492143e+08
1.144000e+03 5.593394e+08
1.145000e+03 4.204469e+08
1.146000e+03 5.753267e+08
1.147000e+03 5.709885e+08
1.148000e+03 5.745139e+08
1.149000e+03 6.004417e+08
1.150000e+03 5.927467e+08
1.151000e+03 6.124786e+08
1.152000e+03 6.247364e+08
1.153000e+03 1.345951e+08
1.154000e+03 2.110912e+07
1.155000e+03 4.081632e+08
1.156000e+03 1.352189e+08
1.157000e+03 6.704575e+08
1.158000e+03 1.246389e+07
1.159000e+03 5.488532e+08
1.160000e+03 6.797464e+08
1.161000e+03 7.168586e+08
1.162000e+03 1.171664e+08
1.163000e+03 7.255825e+08
1.164000e+03 2.320054e+07
1.165000e+03 7.580428e+08
1.166000e+03 7.619983e+08
1.167000e+03 7.536360e+08
1.168000e+03 7.937275e+08
1.169000e+03 7.724874e+08
1.170000e+03 8.178751e+08
1.171000e+03 8.299299e+08
1.172000e+03 8.237933e+08
1.173000e+03 8.522207e+08
1.174000e+03 8.290635e+08
1.175000e+03 2.577299e+07
1.176000e+03 1.915891e+07
1.177000e+03 8.961471e+08
1.178000e+03 8.431014e+08
1.179000e+03 9.221896e+08
1.180000e+03 7.429817e+08
1.181000e+03 9.341140e+08
1.182000e+03 9.561074e+08
1.183000e+03 9.656976e+08
1.184000e+03 9.751591e+08
1.185000e+03 9.609334e+08
1.186000e+03 9.880841e+08
1.187000e+03 9.984427e+08
1.188000e+03 9.903160e+08
1.189000e+03 2.105082e+07
1.190000e+03 1.169269e+08
1.191000e+03 9.879317e+08
1.192000e+03 9.906409e+08
1.193000e+03 1.827635e+07
1.194000e+03 2.441101e+07
1.195000e+03 6.467138e+08
1.196000e+03 9.799736e+08
1.197000e+03 1.165872e+09
1.198000e+03 1.168542e+09
1.199000e+03 1.125621e+09
1.200000e+03 9.813665e+08
1.201000e+03 1.028221e+09
1.202000e+03 1.008004e+09
1.203000e+03 1.057721e+09
1.204000e+03 9.514356e+08
1.205000e+03 8.711276e+08
1.206000e+03 7.483850e+08
1.207000e+03 2.541139e+08
1.208000e+03 5.624193e+08
1.209000e+03 4.227319e+08
1.210000e+03 4.111603e+07
1.211000e+03 2.435679e+08
1.212000e+03 1.563856e+08
1.213000e+03 9.599349e+07
1.214000e+03 5.486114e+07
1.215000e+03 3.353334e+07
1.216000e+03 2.979507e+07
1.217000e+03 4.804956e+07
1.218000e+03 8.664297e+07
1.219000e+03 1.529596e+08
1.220000e+03 2.483174e+08
1.221000e+03 3.696191e+08
1.222000e+03 5.117774e+08
1.223000e+03 6.700156e+08
1.224000e+03 8.403956e+08
1.225000e+03 1.016961e+09
1.226000e+03 1.198228e+09
1.227000e+03 1.374404e+09
1.228000e+03 1.579187e+09
1.229000e+03 1.766197e+09
1.230000e+03 1.953809e+09
1.231000e+03 2.138915e+09
1.232000e+03 2.328284e+09
1.233000e+03 2.508137e+09
1.234000e+03 1.512054e+09
1.235000e+03 2.852779e+09
1.236000e+03 3.012345e+09
1.237000e+03 3.183792e+09
1.238000e+03 3.344378e+09
1.239000e+03 3.499821e+09
1.240000e+03 3.313723e+09
1.241000e+03 6.010281e+09
1.242000e+03 3.234389e+09
1.243000e+03 4.911438e+09
1.244000e+03 1.978327e+09
1.245000e+03 3.028303e+09
1.246000e+03 1.009398e+10
1.247000e+03 1.062514e+10
1.248000e+03 2.182776e+09
1.249000e+03 2.775067e+09
1.250000e+03 1.289116e+10
1.251000e+03 1.339332e+10
1.252000e+03 1.378299e+10
1.253000e+03 1.502054e+10
1.254000e+03 1.540173e+10
1.255000e+03 1.621907e+10
1.256000e+03 1.665561e+10
1.257000e+03 1.767164e+10
1.258000e+03 1.770448e+10
1.259000e+03 1.714377e+10
1.260000e+03 1.252526e+10
1.261000e+03 7.310931e+07
1.262000e+03 1.310157e+09
1.263000e+03 2.009899e+10
1.264000e+03 1.674160e+10
1.265000e+03 7.006592e+07
1.266000e+03 2.154824e+10
1.267000e+03 2.382669e+10
