# wavelength_A flux
5.000000e+02 4.203895e-45
5.010000e+02 5.605194e-45
5.020000e+02 8.407791e-45
5.030000e+02 9.809089e-45
5.040000e+02 1.401298e-44
5.050000e+02 1.821688e-44
5.060000e+02 2.522337e-44
5.070000e+02 3.363116e-44
5.080000e+02 4.344025e-44
5.090000e+02 5.885454e-44
5.100000e+02 7.847271e-44
5.110000e+02 1.036961e-43
5.120000e+02 1.373272e-43
5.130000e+02 1.821688e-43
5.140000e+02 2.410233e-43
5.150000e+02 3.180948e-43
5.160000e+02 4.203895e-43
5.170000e+02 5.549142e-43
5.180000e+02 7.300765e-43
5.190000e+02 9.612907e-43
5.200000e+02 1.263971e-42
5.210000e+02 1.660539e-42
5.220000e+02 2.179019e-42
5.230000e+02 2.857248e-42
5.240000e+02 3.741467e-42
5.250000e+02 4.894736e-42
5.260000e+02 6.395526e-42
5.270000e+02 8.348936e-42
5.280000e+02 1.088669e-41
5.290000e+02 1.418254e-41
5.300000e+02 1.845650e-41
5.310000e+02 2.399583e-41
5.320000e+02 3.116488e-41
5.330000e+02 4.043587e-41
5.340000e+02 5.241137e-41
5.350000e+02 6.786909e-41
5.360000e+02 8.779836e-41
5.370000e+02 1.134645e-40
5.380000e+02 1.465016e-40
5.390000e+02 1.889693e-40
5.400000e+02 2.435134e-40
5.410000e+02 3.135027e-40
5.420000e+02 4.032250e-40
5.430000e+02 5.181343e-40
5.440000e+02 6.651670e-40
5.450000e+02 8.531259e-40
5.460000e+02 1.093182e-39
5.470000e+02 1.399494e-39
5.480000e+02 1.789991e-39
5.490000e+02 2.287356e-39
5.500000e+02 2.920265e-39
5.510000e+02 3.724937e-39
5.520000e+02 4.747067e-39
5.530000e+02 6.044270e-39
5.540000e+02 7.689117e-39
5.550000e+02 9.772943e-39
5.560000e+02 1.241059e-38
5.570000e+02 1.574636e-38
5.580000e+02 1.996137e-38
5.590000e+02 2.528279e-38
5.600000e+02 3.199530e-38
5.610000e+02 4.045534e-38
5.620000e+02 5.110884e-38
5.630000e+02 6.451322e-38
5.640000e+02 8.136468e-38
5.650000e+02 1.025320e-37
5.660000e+02 1.290986e-37
5.670000e+02 1.624141e-37
5.680000e+02 2.041589e-37
5.690000e+02 2.564229e-37
5.700000e+02 3.218040e-37
5.710000e+02 4.035282e-37
5.720000e+02 5.055988e-37
5.730000e+02 6.329796e-37
5.740000e+02 7.918205e-37
5.750000e+02 9.897354e-37
5.760000e+02 1.236142e-36
5.770000e+02 1.542682e-36
5.780000e+02 1.923735e-36
5.790000e+02 2.397046e-36
5.800000e+02 2.984500e-36
5.810000e+02 3.713066e-36
5.820000e+02 4.615952e-36
5.830000e+02 5.734021e-36
5.840000e+02 7.117513e-36
5.850000e+02 8.828158e-36
5.860000e+02 1.094174e-35
5.870000e+02 1.355122e-35
5.880000e+02 1.677060e-35
5.890000e+02 2.073948e-35
5.900000e+02 2.562881e-35
5.910000e+02 3.164765e-35
5.920000e+02 3.905161e-35
5.930000e+02 4.815288e-35
5.940000e+02 5.933256e-35
5.950000e+02 7.305552e-35
5.960000e+02 8.988838e-35
5.970000e+02 1.105214e-34
5.980000e+02 1.357947e-34
5.990000e+02 1.667304e-34
6.000000e+02 2.045707e-34
6.010000e+02 2.508249e-34
6.020000e+02 3.073248e-34
6.030000e+02 3.762929e-34
6.040000e+02 4.604233e-34
6.050000e+02 5.629799e-34
6.060000e+02 6.879144e-34
6.070000e+02 8.400076e-34
6.080000e+02 1.025040e-33
6.090000e+02 1.249996e-33
6.100000e+02 1.523309e-33
6.110000e+02 1.855156e-33
6.120000e+02 2.257809e-33
6.130000e+02 2.746061e-33
6.140000e+02 3.337723e-33
6.150000e+02 4.054236e-33
6.160000e+02 4.921391e-33
6.170000e+02 5.970189e-33
6.180000e+02 7.237876e-33
6.190000e+02 8.769167e-33
6.200000e+02 1.061771e-32
6.210000e+02 1.284785e-32
6.220000e+02 1.553667e-32
6.230000e+02 1.877652e-32
6.240000e+02 2.267791e-32
6.250000e+02 2.737303e-32
6.260000e+02 3.301993e-32
6.270000e+02 3.980743e-32
6.280000e+02 4.796097e-32
6.290000e+02 5.774960e-32
6.300000e+02 6.949419e-32
6.310000e+02 8.357717e-32
6.320000e+02 1.004541e-31
6.330000e+02 1.206675e-31
6.340000e+02 1.448625e-31
6.350000e+02 1.738066e-31
6.360000e+02 2.084119e-31
6.370000e+02 2.497617e-31
6.380000e+02 2.991420e-31
6.390000e+02 3.580786e-31
6.400000e+02 4.283808e-31
6.410000e+02 5.121928e-31
6.420000e+02 6.120541e-31
6.430000e+02 7.309713e-31
6.440000e+02 8.725015e-31
6.450000e+02 1.040851e-30
6.460000e+02 1.240990e-30
6.470000e+02 1.478791e-30
6.480000e+02 1.761185e-30
6.490000e+02 2.096352e-30
6.500000e+02 2.493937e-30
6.510000e+02 2.965309e-30
6.520000e+02 3.523861e-30
6.530000e+02 4.185360e-30
6.540000e+02 4.968363e-30
6.550000e+02 5.894695e-30
6.560000e+02 6.990013e-30
6.570000e+02 8.284460e-30
6.580000e+02 9.813438e-30
6.590000e+02 1.161850e-29
6.600000e+02 1.374838e-29
6.610000e+02 1.626023e-29
6.620000e+02 1.922104e-29
6.630000e+02 2.270926e-29
6.640000e+02 2.681674e-29
6.650000e+02 3.165097e-29
6.660000e+02 3.733764e-29
6.670000e+02 4.402372e-29
6.680000e+02 5.188090e-29
6.690000e+02 6.110971e-29
6.700000e+02 7.194420e-29
6.710000e+02 8.465747e-29
6.720000e+02 9.956797e-29
6.730000e+02 1.170469e-28
6.740000e+02 1.375266e-28
6.750000e+02 1.615108e-28
6.760000e+02 1.895854e-28
6.770000e+02 2.224323e-28
6.780000e+02 2.608444e-28
6.790000e+02 3.057430e-28
6.800000e+02 3.581987e-28
6.810000e+02 4.194545e-28
6.820000e+02 4.909532e-28
6.830000e+02 5.743682e-28
6.840000e+02 6.716403e-28
6.850000e+02 7.850189e-28
6.860000e+02 9.171099e-28
6.870000e+02 1.070931e-27
6.880000e+02 1.249974e-27
6.890000e+02 1.458281e-27
6.900000e+02 1.700524e-27
6.910000e+02 1.982105e-27
6.920000e+02 2.309265e-27
6.930000e+02 2.689210e-27
6.940000e+02 3.130261e-27
6.950000e+02 3.642018e-27
6.960000e+02 4.235554e-27
6.970000e+02 4.923633e-27
6.980000e+02 5.720966e-27
6.990000e+02 6.644497e-27
7.000000e+02 7.713735e-27
7.010000e+02 8.951132e-27
7.020000e+02 1.038252e-26
7.030000e+02 1.203760e-26
7.040000e+02 1.395051e-26
7.050000e+02 1.616048e-26
7.060000e+02 1.871256e-26
7.070000e+02 2.165846e-26
7.080000e+02 2.505752e-26
7.090000e+02 2.897783e-26
7.100000e+02 3.349743e-26
7.110000e+02 3.870577e-26
7.120000e+02 4.470534e-26
7.130000e+02 5.161349e-26
7.140000e+02 5.956457e-26
7.150000e+02 6.871230e-26
7.160000e+02 7.923251e-26
7.170000e+02 9.132622e-26
7.180000e+02 1.052232e-25
7.190000e+02 1.211859e-25
7.200000e+02 1.395142e-25
7.210000e+02 1.605501e-25
7.220000e+02 1.846842e-25
7.230000e+02 2.123618e-25
7.240000e+02 2.440909e-25
7.250000e+02 2.804501e-25
7.260000e+02 3.220991e-25
7.270000e+02 3.697889e-25
7.280000e+02 4.243745e-25
7.290000e+02 4.868292e-25
7.300000e+02 5.582600e-25
7.310000e+02 6.399258e-25
7.320000e+02 7.332578e-25
7.330000e+02 8.398823e-25
7.340000e+02 9.616463e-25
7.350000e+02 1.100648e-24
7.360000e+02 1.259268e-24
7.370000e+02 1.440207e-24
7.380000e+02 1.646531e-24
7.390000e+02 1.881714e-24
7.400000e+02 2.149693e-24
7.410000e+02 2.454932e-24
7.420000e+02 2.802483e-24
7.430000e+02 3.198068e-24
7.440000e+02 3.648165e-24
7.450000e+02 4.160100e-24
7.460000e+02 4.742160e-24
7.470000e+02 5.403717e-24
7.480000e+02 6.155358e-24
7.490000e+02 7.009051e-24
7.500000e+02 7.978308e-24
7.510000e+02 9.078388e-24
7.520000e+02 1.032651e-23
7.530000e+02 1.174211e-23
7.540000e+02 1.334710e-23
7.550000e+02 1.516618e-23
7.560000e+02 1.722721e-23
7.570000e+02 1.956158e-23
7.580000e+02 2.220462e-23
7.590000e+02 2.519614e-23
7.600000e+02 2.858094e-23
7.610000e+02 3.240942e-23
7.620000e+02 3.673829e-23
7.630000e+02 4.163133e-23
7.640000e+02 4.716021e-23
7.650000e+02 5.340549e-23
7.660000e+02 6.045765e-23
7.670000e+02 6.841834e-23
7.680000e+02 7.740164e-23
7.690000e+02 8.753563e-23
7.700000e+02 9.896396e-23
7.710000e+02 1.118478e-22
7.720000e+02 1.263678e-22
7.730000e+02 1.427264e-22
7.740000e+02 1.611508e-22
7.750000e+02 1.818949e-22
7.760000e+02 2.052436e-22
7.770000e+02 2.315155e-22
7.780000e+02 2.610673e-22
7.790000e+02 2.942981e-22
7.800000e+02 3.316541e-22
7.810000e+02 3.736343e-22
7.820000e+02 4.207966e-22
7.830000e+02 4.737643e-22
7.840000e+02 5.332335e-22
7.850000e+02 5.999821e-22
7.860000e+02 6.748779e-22
7.870000e+02 7.588900e-22
7.880000e+02 8.530994e-22
7.890000e+02 9.587119e-22
7.900000e+02 1.077072e-21
7.910000e+02 1.209679e-21
7.920000e+02 1.358203e-21
7.930000e+02 1.524505e-21
7.940000e+02 1.710659e-21
7.950000e+02 1.918972e-21
7.960000e+02 2.152013e-21
7.970000e+02 2.412642e-21
7.980000e+02 2.704039e-21
7.990000e+02 3.029743e-21
8.000000e+02 3.393686e-21
8.010000e+02 3.800241e-21
8.020000e+02 4.254267e-21
8.030000e+02 4.761161e-21
8.040000e+02 5.326918e-21
8.050000e+02 5.958194e-21
8.060000e+02 6.662378e-21
8.070000e+02 7.447668e-21
8.080000e+02 8.323159e-21
8.090000e+02 9.298941e-21
8.100000e+02 1.038620e-20
8.110000e+02 1.159733e-20
8.120000e+02 1.294607e-20
8.130000e+02 1.444765e-20
8.140000e+02 1.611893e-20
8.150000e+02 1.797856e-20
8.160000e+02 2.004723e-20
8.170000e+02 2.234780e-20
8.180000e+02 2.490558e-20
8.190000e+02 2.774855e-20
8.200000e+02 3.090766e-20
8.210000e+02 3.441714e-20
8.220000e+02 3.831479e-20
8.230000e+02 4.264241e-20
8.240000e+02 4.744616e-20
8.250000e+02 5.277701e-20
8.260000e+02 5.869124e-20
8.270000e+02 6.525100e-20
8.280000e+02 7.252482e-20
8.290000e+02 8.058835e-20
8.300000e+02 8.952501e-20
8.310000e+02 9.942679e-20
8.320000e+02 1.103951e-19
8.330000e+02 1.225417e-19
8.340000e+02 1.359898e-19
8.350000e+02 1.508750e-19
8.360000e+02 1.673466e-19
8.370000e+02 1.855693e-19
8.380000e+02 2.057241e-19
8.390000e+02 2.280102e-19
8.400000e+02 2.526469e-19
8.410000e+02 2.798754e-19
8.420000e+02 3.099608e-19
8.430000e+02 3.431947e-19
8.440000e+02 3.798975e-19
8.450000e+02 4.204214e-19
8.460000e+02 4.651533e-19
8.470000e+02 5.145181e-19
8.480000e+02 5.689825e-19
8.490000e+02 6.290588e-19
8.500000e+02 6.953092e-19
8.510000e+02 7.683506e-19
8.520000e+02 8.488601e-19
8.530000e+02 9.375801e-19
8.540000e+02 1.035324e-18
8.550000e+02 1.142986e-18
8.560000e+02 1.261543e-18
8.570000e+02 1.392067e-18
8.580000e+02 1.535732e-18
8.590000e+02 1.693826e-18
8.600000e+02 1.867756e-18
8.610000e+02 2.059064e-18
8.620000e+02 2.269438e-18
8.630000e+02 2.500726e-18
8.640000e+02 2.754948e-18
8.650000e+02 3.034314e-18
8.660000e+02 3.341242e-18
8.670000e+02 3.678373e-18
8.680000e+02 4.048598e-18
8.690000e+02 4.455073e-18
8.700000e+02 4.901247e-18
8.710000e+02 5.390887e-18
8.720000e+02 5.928110e-18
8.730000e+02 6.517407e-18
8.740000e+02 7.163684e-18
8.750000e+02 7.872294e-18
8.760000e+02 8.649079e-18
8.770000e+02 9.500410e-18
8.780000e+02 1.043324e-17
8.790000e+02 1.145515e-17
8.800000e+02 1.257439e-17
8.810000e+02 1.379999e-17
8.820000e+02 1.514175e-17
8.830000e+02 1.661037e-17
8.840000e+02 1.821750e-17
8.850000e+02 1.997583e-17
8.860000e+02 2.189918e-17
8.870000e+02 2.400259e-17
8.880000e+02 2.630243e-17
8.890000e+02 2.881651e-17
8.900000e+02 3.156423e-17
8.910000e+02 3.456666e-17
8.920000e+02 3.784674e-17
8.930000e+02 4.142939e-17
8.940000e+02 4.534173e-17
8.950000e+02 4.961321e-17
8.960000e+02 5.427584e-17
8.970000e+02 5.936440e-17
8.980000e+02 6.491668e-17
8.990000e+02 7.097370e-17
9.000000e+02 7.758001e-17
9.010000e+02 8.478395e-17
9.020000e+02 9.263804e-17
9.030000e+02 1.011992e-16
9.040000e+02 1.105293e-16
9.050000e+02 1.206953e-16
9.060000e+02 1.317699e-16
9.070000e+02 1.438320e-16
9.080000e+02 1.569669e-16
9.090000e+02 1.712675e-16
9.100000e+02 1.868339e-16
9.110000e+02 2.037750e-16
9.120000e+02 2.222086e-16
9.130000e+02 2.422623e-16
9.140000e+02 2.685298e-16
9.150000e+02 1.091293e-13
9.160000e+02 1.104796e-12
9.170000e+02 7.533497e-13
9.180000e+02 1.483860e-13
9.190000e+02 4.011923e-12
9.200000e+02 1.565170e-11
9.210000e+02 4.802410e-16
9.220000e+02 2.780722e-11
9.230000e+02 7.089662e-14
9.240000e+02 2.681243e-11
9.250000e+02 2.387902e-11
9.260000e+02 2.418506e-13
9.270000e+02 2.287838e-12
9.280000e+02 1.728945e-10
9.290000e+02 1.450619e-10
9.300000e+02 2.017492e-11
9.310000e+02 2.066438e-13
9.320000e+02 1.133444e-10
9.330000e+02 2.983541e-10
9.340000e+02 3.730150e-10
9.350000e+02 2.128029e-13
9.360000e+02 1.782753e-11
9.370000e+02 4.861151e-14
9.380000e+02 5.099340e-14
9.390000e+02 2.761842e-11
9.400000e+02 3.765610e-10
9.410000e+02 2.198130e-12
9.420000e+02 7.590329e-10
9.430000e+02 2.327535e-10
9.440000e+02 8.841922e-10
9.450000e+02 8.665778e-10
9.460000e+02 6.720182e-10
9.470000e+02 4.870548e-13
9.480000e+02 4.172118e-11
9.490000e+02 8.174716e-12
9.500000e+02 3.265843e-14
9.510000e+02 7.751530e-11
9.520000e+02 4.811873e-10
9.530000e+02 2.520348e-11
9.540000e+02 7.163124e-13
9.550000e+02 2.927741e-10
9.560000e+02 6.597756e-11
9.570000e+02 3.988987e-11
9.580000e+02 2.048361e-13
9.590000e+02 2.763520e-09
9.600000e+02 3.618217e-13
9.610000e+02 2.681473e-09
9.620000e+02 2.091774e-09
9.630000e+02 1.029632e-10
9.640000e+02 7.049250e-12
9.650000e+02 2.190026e-12
9.660000e+02 6.336582e-10
9.670000e+02 4.123035e-11
9.680000e+02 2.596823e-11
9.690000e+02 1.372398e-09
9.700000e+02 7.071539e-10
9.710000e+02 3.243528e-11
9.720000e+02 1.428179e-12
9.730000e+02 1.384716e-12
9.740000e+02 1.316729e-10
9.750000e+02 5.181069e-10
9.760000e+02 2.527831e-09
9.770000e+02 3.984832e-09
9.780000e+02 4.481158e-09
9.790000e+02 7.186693e-09
9.800000e+02 8.383785e-09
9.810000e+02 5.934676e-09
9.820000e+02 1.570353e-09
9.830000e+02 1.113495e-08
9.840000e+02 1.642564e-10
9.850000e+02 2.717421e-09
9.860000e+02 2.533524e-09
9.870000e+02 1.495248e-08
9.880000e+02 8.426149e-12
9.890000e+02 1.516030e-08
9.900000e+02 8.701821e-09
9.910000e+02 1.413726e-09
9.920000e+02 1.350406e-12
9.930000e+02 1.229213e-08
9.940000e+02 2.939871e-13
9.950000e+02 4.112394e-10
9.960000e+02 5.240963e-11
9.970000e+02 3.745670e-12
9.980000e+02 2.548258e-08
9.990000e+02 1.765811e-09
1.000000e+03 3.135867e-08
1.001000e+03 2.743962e-08
1.002000e+03 3.684110e-08
1.003000e+03 2.021631e-09
1.004000e+03 1.577583e-11
1.005000e+03 1.318085e-08
1.006000e+03 4.427265e-08
1.007000e+03 4.625014e-08
1.008000e+03 4.602027e-08
1.009000e+03 1.086124e-09
1.010000e+03 4.998311e-08
1.011000e+03 5.260657e-08
1.012000e+03 5.302618e-08
1.013000e+03 5.372486e-08
1.014000e+03 6.806999e-12
1.015000e+03 3.439737e-11
1.016000e+03 7.960907e-09
1.017000e+03 4.877876e-12
1.018000e+03 2.698247e-09
1.019000e+03 3.979039e-11
1.020000e+03 2.984904e-08
1.021000e+03 3.988205e-10
1.022000e+03 3.095867e-09
1.023000e+03 1.618314e-10
1.024000e+03 5.776630e-10
1.025000e+03 3.305457e-12
1.026000e+03 2.003355e-12
1.027000e+03 2.765270e-10
1.028000e+03 2.314482e-11
1.029000e+03 1.146461e-11
1.030000e+03 2.751993e-08
1.031000e+03 9.014182e-08
1.032000e+03 1.115634e-07
1.033000e+03 5.749428e-10
1.034000e+03 1.729485e-07
1.035000e+03 9.976020e-12
1.036000e+03 4.467893e-11
1.037000e+03 7.484647e-07
1.038000e+03 8.933109e-07
1.039000e+03 9.142083e-07
1.040000e+03 1.119136e-06
1.041000e+03 9.536996e-07
1.042000e+03 1.334628e-06
1.043000e+03 6.753692e-07
1.044000e+03 1.598147e-06
1.045000e+03 2.118118e-11
1.046000e+03 1.368487e-06
1.047000e+03 1.077662e-06
1.048000e+03 6.636014e-09
1.049000e+03 1.203184e-06
1.050000e+03 1.688404e-07
1.051000e+03 3.528021e-08
1.052000e+03 2.508804e-06
1.053000e+03 2.751776e-06
1.054000e+03 8.185452e-11
1.055000e+03 1.118706e-06
1.056000e+03 3.024872e-06
1.057000e+03 1.790289e-06
1.058000e+03 8.706843e-08
1.059000e+03 1.226294e-08
1.060000e+03 4.782351e-09
1.061000e+03 3.811648e-06
1.062000e+03 3.203485e-08
1.063000e+03 4.139962e-10
1.064000e+03 2.546585e-11
1.065000e+03 1.396074e-10
1.066000e+03 4.707340e-08
1.067000e+03 5.180066e-08
1.068000e+03 5.772620e-06
1.069000e+03 6.253202e-09
1.070000e+03 1.777737e-06
1.071000e+03 6.314766e-06
1.072000e+03 6.907654e-06
1.073000e+03 5.611582e-10
1.074000e+03 5.379247e-06
1.075000e+03 4.715442e-06
1.076000e+03 1.371459e-06
1.077000e+03 2.636170e-09
1.078000e+03 1.205390e-07
1.079000e+03 1.681471e-06
1.080000e+03 3.616082e-06
1.081000e+03 1.029400e-05
1.082000e+03 9.445709e-06
1.083000e+03 7.675364e-06
1.084000e+03 9.485527e-06
1.085000e+03 1.893582e-06
1.086000e+03 1.332542e-05
1.087000e+03 1.658318e-07
1.088000e+03 1.443556e-05
1.089000e+03 1.481577e-05
1.090000e+03 1.979797e-06
1.091000e+03 4.325904e-06
1.092000e+03 7.043126e-06
1.093000e+03 1.512655e-05
1.094000e+03 1.216537e-05
1.095000e+03 1.957720e-05
1.096000e+03 2.480792e-07
1.097000e+03 2.053953e-05
1.098000e+03 1.395685e-05
1.099000e+03 5.025790e-06
1.100000e+03 1.319023e-08
1.101000e+03 5.098667e-08
1.102000e+03 6.571547e-06
1.103000e+03 2.718609e-05
1.104000e+03 2.880315e-05
1.105000e+03 2.998077e-05
1.106000e+03 1.535607e-05
1.107000e+03 5.474431e-08
1.108000e+03 3.332018e-05
1.109000e+03 2.794510e-06
1.110000e+03 3.221248e-05
1.111000e+03 3.426524e-05
1.112000e+03 3.612224e-05
1.113000e+03 3.009894e-05
1.114000e+03 1.513239e-05
1.115000e+03 1.550467e-06
1.116000e+03 2.386909e-07
1.117000e+03 4.907806e-05
1.118000e+03 5.132977e-06
1.119000e+03 4.451159e-05
1.120000e+03 8.362658e-07
1.121000e+03 5.603989e-05
1.122000e+03 4.357269e-05
1.123000e+03 8.392458e-05
1.124000e+03 1.030167e-04
1.125000e+03 8.892279e-05
1.126000e+03 7.821961e-05
1.127000e+03 7.760076e-05
1.128000e+03 6.746378e-05
1.129000e+03 6.541448e-05
1.130000e+03 6.772757e-05
1.131000e+03 5.506950e-05
1.132000e+03 1.054341e-06
1.133000e+03 3.127276e-05
1.134000e+03 5.719730e-05
1.135000e+03 1.405591e-05
1.136000e+03 3.291510e-05
1.137000e+03 4.350771e-05
1.138000e+03 5.229657e-05
1.139000e+03 5.470552e-05
1.140000e+03 5.307981e-05
1.141000e+03 4.551427e-05
1.142000e+03 5.331594e-05
1.143000e+03 4.353534e-05
1.144000e+03 4.976770e-05
1.145000e+03 5.100701e-07
1.146000e+03 5.505796e-05
1.147000e+03 5.562568e-05
1.148000e+03 1.371642e-05
1.149000e+03 5.447939e-05
1.150000e+03 5.337786e-05
1.151000e+03 5.338814e-05
1.152000e+03 5.205674e-05
1.153000e+03 5.105586e-05
1.154000e+03 4.856741e-05
1.155000e+03 4.860171e-05
1.156000e+03 2.666532e-05
1.157000e+03 4.624509e-05
1.158000e+03 4.536549e-05
1.159000e+03 4.657971e-05
1.160000e+03 4.523937e-05
1.161000e+03 4.227753e-05
1.162000e+03 2.191195e-05
1.163000e+03 3.276372e-05
1.164000e+03 5.860420e-08
1.165000e+03 2.185586e-05
1.166000e+03 1.013259e-05
1.167000e+03 6.110616e-06
1.168000e+03 4.806870e-05
1.169000e+03 4.852641e-05
1.170000e+03 6.567519e-06
1.171000e+03 1.909892e-05
1.172000e+03 1.492392e-05
1.173000e+03 1.214130e-05
1.174000e+03 4.183141e-06
1.175000e+03 6.841219e-08
1.176000e+03 1.724220e-08
1.177000e+03 6.433100e-05
1.178000e+03 5.990701e-05
1.179000e+03 5.647712e-05
1.180000e+03 5.147525e-05
1.181000e+03 4.985962e-05
1.182000e+03 4.792754e-05
1.183000e+03 4.526319e-05
1.184000e+03 4.311594e-05
1.185000e+03 4.139650e-05
1.186000e+03 1.744069e-05
1.187000e+03 3.819824e-05
1.188000e+03 3.666115e-05
1.189000e+03 3.597521e-05
1.190000e+03 3.470750e-05
1.191000e+03 3.249223e-05
1.192000e+03 2.872888e-05
1.193000e+03 2.847386e-05
1.194000e+03 2.725793e-05
1.195000e+03 2.582301e-05
1.196000e+03 7.009871e-04
1.197000e+03 6.540971e-04
1.198000e+03 2.261683e-04
1.199000e+03 5.450126e-04
1.200000e+03 3.446993e-04
1.201000e+03 4.201840e-04
1.202000e+03 3.458089e-04
1.203000e+03 2.954128e-04
1.204000e+03 1.980664e-04
1.205000e+03 1.814035e-04
1.206000e+03 1.333382e-04
1.207000e+03 9.672091e-06
1.208000e+03 5.416494e-05
1.209000e+03 3.742803e-05
1.210000e+03 1.270309e-07
1.211000e+03 1.120512e-05
1.212000e+03 5.032895e-06
1.213000e+03 1.892214e-06
1.214000e+03 4.827658e-07
1.215000e+03 7.634240e-08
1.216000e+03 6.768299e-08
1.217000e+03 2.941021e-07
1.218000e+03 1.544619e-06
1.219000e+03 4.926907e-06
1.220000e+03 1.240728e-05
1.221000e+03 2.612654e-05
1.222000e+03 5.211593e-05
1.223000e+03 8.928254e-05
1.224000e+03 1.381812e-04
1.225000e+03 1.369894e-04
1.226000e+03 3.295738e-04
1.227000e+03 4.669238e-04
1.228000e+03 6.098138e-04
1.229000e+03 8.228198e-04
1.230000e+03 6.539046e-05
1.231000e+03 8.022059e-04
1.232000e+03 1.479605e-03
1.233000e+03 1.749560e-03
1.234000e+03 1.573611e-03
1.235000e+03 2.291749e-03
1.236000e+03 2.400717e-03
1.237000e+03 2.848231e-03
1.238000e+03 3.136921e-03
1.239000e+03 3.315939e-03
1.240000e+03 2.830292e-04
1.241000e+03 3.596551e-03
1.242000e+03 4.277627e-03
1.243000e+03 4.577902e-03
1.244000e+03 4.895904e-03
1.245000e+03 4.635994e-03
1.246000e+03 5.386864e-03
1.247000e+03 5.584309e-03
1.248000e+03 1.879517e-03
1.249000e+03 6.064828e-03
1.250000e+03 6.025913e-03
1.251000e+03 6.954752e-03
1.252000e+03 6.645508e-03
1.253000e+03 7.384965e-03
1.254000e+03 7.321126e-03
1.255000e+03 9.034094e-04
1.256000e+03 6.982397e-03
1.257000e+03 5.125443e-03
1.258000e+03 6.918278e-03
1.259000e+03 8.195622e-03
1.260000e+03 8.794600e-03
1.261000e+03 1.733992e-04
1.262000e+03 9.170271e-03
1.263000e+03 6.484120e-03
1.264000e+03 8.880390e-03
1.265000e+03 5.792314e-03
1.266000e+03 1.115816e-02
1.267000e+03 1.198608e-02
