# wavelength_A flux
5.000000e+02 3.407781e-39
5.010000e+02 4.386209e-39
5.020000e+02 5.639918e-39
5.030000e+02 7.244765e-39
5.040000e+02 9.297181e-39
5.050000e+02 3.416316e-38
5.060000e+02 4.365385e-38
5.070000e+02 5.537662e-38
5.080000e+02 7.076750e-38
5.090000e+02 8.994258e-38
5.100000e+02 2.152228e-39
5.110000e+02 1.449000e-37
5.120000e+02 1.824991e-37
5.130000e+02 2.325764e-37
5.140000e+02 2.942555e-37
5.150000e+02 3.718573e-37
5.160000e+02 4.694194e-37
5.170000e+02 5.927279e-37
5.180000e+02 7.473202e-37
5.190000e+02 9.413653e-37
5.200000e+02 1.184755e-36
5.210000e+02 1.489682e-36
5.220000e+02 1.863336e-36
5.230000e+02 2.349516e-36
5.240000e+02 2.947859e-36
5.250000e+02 3.694621e-36
5.260000e+02 4.626597e-36
5.270000e+02 5.788854e-36
5.280000e+02 7.237133e-36
5.290000e+02 9.038688e-36
5.300000e+02 1.128301e-35
5.310000e+02 1.407202e-35
5.320000e+02 1.753728e-35
5.330000e+02 2.183637e-35
5.340000e+02 2.716763e-35
5.350000e+02 3.377221e-35
5.360000e+02 4.193781e-35
5.370000e+02 3.035752e-35
5.380000e+02 6.456105e-35
5.390000e+02 8.004311e-35
5.400000e+02 9.913247e-35
5.410000e+02 1.225888e-34
5.420000e+02 1.516870e-34
5.430000e+02 1.874208e-34
5.440000e+02 2.313985e-34
5.450000e+02 2.854822e-34
5.460000e+02 3.518934e-34
5.470000e+02 4.335617e-34
5.480000e+02 5.337133e-34
5.490000e+02 6.565207e-34
5.500000e+02 8.070001e-34
5.510000e+02 9.912552e-34
5.520000e+02 1.216736e-33
5.530000e+02 1.492402e-33
5.540000e+02 1.829226e-33
5.550000e+02 2.240485e-33
5.560000e+02 2.742296e-33
5.570000e+02 3.354135e-33
5.580000e+02 4.099634e-33
5.590000e+02 5.007369e-33
5.600000e+02 6.111891e-33
5.610000e+02 7.454948e-33
5.620000e+02 9.086956e-33
5.630000e+02 1.106875e-32
5.640000e+02 1.347368e-32
5.650000e+02 1.639061e-32
5.660000e+02 1.992520e-32
5.670000e+02 2.420596e-32
5.680000e+02 2.938709e-32
5.690000e+02 3.565386e-32
5.700000e+02 4.322876e-32
5.710000e+02 5.237903e-32
5.720000e+02 6.342523e-32
5.730000e+02 7.675168e-32
5.740000e+02 9.281889e-32
5.750000e+02 1.121783e-31
5.760000e+02 1.348366e-31
5.770000e+02 1.636944e-31
5.780000e+02 1.974675e-31
5.790000e+02 2.380521e-31
5.800000e+02 2.867970e-31
5.810000e+02 3.453010e-31
5.820000e+02 4.154486e-31
5.830000e+02 4.993246e-31
5.840000e+02 5.924890e-31
5.850000e+02 7.189905e-31
5.860000e+02 8.655746e-31
5.870000e+02 1.038725e-30
5.880000e+02 1.245613e-30
5.890000e+02 1.492650e-30
5.900000e+02 1.786861e-30
5.910000e+02 2.139667e-30
5.920000e+02 2.559468e-30
5.930000e+02 3.059850e-30
5.940000e+02 3.655949e-30
5.950000e+02 4.365674e-30
5.960000e+02 5.210243e-30
5.970000e+02 6.214631e-30
5.980000e+02 7.408460e-30
5.990000e+02 8.826670e-30
6.000000e+02 1.051053e-29
6.010000e+02 1.250663e-29
6.020000e+02 1.487888e-29
6.030000e+02 1.768794e-29
6.040000e+02 2.101585e-29
6.050000e+02 2.495631e-29
6.060000e+02 2.961958e-29
6.070000e+02 3.513530e-29
6.080000e+02 4.165582e-29
6.090000e+02 4.936013e-29
6.100000e+02 5.845826e-29
6.110000e+02 6.919706e-29
6.120000e+02 8.186547e-29
6.130000e+02 9.680578e-29
6.140000e+02 1.144101e-28
6.150000e+02 1.351448e-28
6.160000e+02 1.595552e-28
6.170000e+02 1.882781e-28
6.180000e+02 2.220586e-28
6.190000e+02 2.617671e-28
6.200000e+02 3.084207e-28
6.210000e+02 3.632067e-28
6.220000e+02 4.275108e-28
6.230000e+02 5.029491e-28
6.240000e+02 5.914175e-28
6.250000e+02 6.950922e-28
6.260000e+02 8.165460e-28
6.270000e+02 9.587536e-28
6.280000e+02 1.125184e-27
6.290000e+02 1.319865e-27
6.300000e+02 1.547425e-27
6.310000e+02 1.782393e-27
6.320000e+02 2.124223e-27
6.330000e+02 2.483900e-27
6.340000e+02 2.910384e-27
6.350000e+02 3.402823e-27
6.360000e+02 3.979719e-27
6.370000e+02 4.651008e-27
6.380000e+02 5.432628e-27
6.390000e+02 6.342682e-27
6.400000e+02 7.401793e-27
6.410000e+02 8.633818e-27
6.420000e+02 1.006634e-26
6.430000e+02 1.173125e-26
6.440000e+02 1.366538e-26
6.450000e+02 1.591120e-26
6.460000e+02 1.851801e-26
6.470000e+02 2.154201e-26
6.480000e+02 2.504913e-26
6.490000e+02 2.911439e-26
6.500000e+02 3.382087e-26
6.510000e+02 3.927985e-26
6.520000e+02 4.559539e-26
6.530000e+02 5.290337e-26
6.540000e+02 6.135648e-26
6.550000e+02 7.112970e-26
6.560000e+02 8.242459e-26
6.570000e+02 9.547103e-26
6.580000e+02 1.105396e-25
6.590000e+02 1.279307e-25
6.600000e+02 1.479957e-25
6.610000e+02 1.711376e-25
6.620000e+02 1.978157e-25
6.630000e+02 2.285605e-25
6.640000e+02 2.639730e-25
6.650000e+02 3.047474e-25
6.660000e+02 3.517986e-25
6.670000e+02 4.058049e-25
6.680000e+02 4.679176e-25
6.690000e+02 5.393189e-25
6.700000e+02 6.213681e-25
6.710000e+02 7.156151e-25
6.720000e+02 8.238315e-25
6.730000e+02 9.480392e-25
6.740000e+02 1.090546e-24
6.750000e+02 1.253985e-24
6.760000e+02 1.441359e-24
6.770000e+02 1.656088e-24
6.780000e+02 1.902083e-24
6.790000e+02 2.183792e-24
6.800000e+02 2.506244e-24
6.810000e+02 2.875219e-24
6.820000e+02 3.297267e-24
6.830000e+02 3.779844e-24
6.840000e+02 4.331424e-24
6.850000e+02 4.961631e-24
6.860000e+02 5.681442e-24
6.870000e+02 6.503258e-24
6.880000e+02 7.441189e-24
6.890000e+02 8.511222e-24
6.900000e+02 9.731570e-24
6.910000e+02 1.112290e-23
6.920000e+02 1.270859e-23
6.930000e+02 1.451523e-23
6.940000e+02 1.657258e-23
6.950000e+02 1.891478e-23
6.960000e+02 2.158029e-23
6.970000e+02 2.461255e-23
6.980000e+02 2.806127e-23
6.990000e+02 3.198181e-23
7.000000e+02 3.643733e-23
7.010000e+02 4.149920e-23
7.020000e+02 4.724772e-23
7.030000e+02 5.377364e-23
7.040000e+02 6.118053e-23
7.050000e+02 6.958340e-23
7.060000e+02 7.654215e-23
7.070000e+02 8.991877e-23
7.080000e+02 1.021643e-22
7.090000e+02 1.160381e-22
7.100000e+02 1.317523e-22
7.110000e+02 1.495441e-22
7.120000e+02 1.696820e-22
7.130000e+02 1.924678e-22
7.140000e+02 2.182412e-22
7.150000e+02 2.473843e-22
7.160000e+02 2.803276e-22
7.170000e+02 3.175533e-22
7.180000e+02 3.596046e-22
7.190000e+02 4.070961e-22
7.200000e+02 4.607085e-22
7.210000e+02 5.212186e-22
7.220000e+02 5.894818e-22
7.230000e+02 6.664745e-22
7.240000e+02 7.532820e-22
7.250000e+02 8.511268e-22
7.260000e+02 9.613766e-22
7.270000e+02 1.085570e-21
7.280000e+02 1.225421e-21
7.290000e+02 1.382859e-21
7.300000e+02 1.560040e-21
7.310000e+02 1.759379e-21
7.320000e+02 1.983579e-21
7.330000e+02 2.236142e-21
7.340000e+02 2.519558e-21
7.350000e+02 2.838018e-21
7.360000e+02 3.195636e-21
7.370000e+02 3.597516e-21
7.380000e+02 4.048559e-21
7.390000e+02 4.554786e-21
7.400000e+02 5.122778e-21
7.410000e+02 5.759901e-21
7.420000e+02 6.474325e-21
7.430000e+02 7.275258e-21
7.440000e+02 8.172835e-21
7.450000e+02 9.178462e-21
7.460000e+02 1.030482e-20
7.470000e+02 1.156604e-20
7.480000e+02 1.297786e-20
7.490000e+02 1.455782e-20
7.500000e+02 1.632544e-20
7.510000e+02 1.830244e-20
7.520000e+02 2.051300e-20
7.530000e+02 2.298402e-20
7.540000e+02 2.574541e-20
7.550000e+02 2.883043e-20
7.560000e+02 3.227605e-20
7.570000e+02 3.610775e-20
7.580000e+02 4.041797e-20
7.590000e+02 4.521051e-20
7.600000e+02 5.055752e-20
7.610000e+02 5.652119e-20
7.620000e+02 6.317096e-20
7.630000e+02 7.058392e-20
7.640000e+02 7.884503e-20
7.650000e+02 8.804907e-20
7.660000e+02 9.830092e-20
7.670000e+02 1.097168e-19
7.680000e+02 1.224248e-19
7.690000e+02 1.348439e-19
7.700000e+02 1.522990e-19
7.710000e+02 1.698130e-19
7.720000e+02 1.892807e-19
7.730000e+02 2.109244e-19
7.740000e+02 2.349812e-19
7.750000e+02 2.617129e-19
7.760000e+02 2.913725e-19
7.770000e+02 3.243913e-19
7.780000e+02 3.610122e-19
7.790000e+02 4.016632e-19
7.800000e+02 4.467765e-19
7.810000e+02 4.968303e-19
7.820000e+02 5.523488e-19
7.830000e+02 6.139146e-19
7.840000e+02 6.821691e-19
7.850000e+02 7.578200e-19
7.860000e+02 8.416470e-19
7.870000e+02 9.345904e-19
7.880000e+02 1.037450e-18
7.890000e+02 1.151343e-18
7.900000e+02 1.277421e-18
7.910000e+02 1.416951e-18
7.920000e+02 1.569633e-18
7.930000e+02 1.741687e-18
7.940000e+02 1.930974e-18
7.950000e+02 2.139787e-18
7.960000e+02 2.370601e-18
7.970000e+02 2.625673e-18
7.980000e+02 2.907486e-18
7.990000e+02 3.218776e-18
8.000000e+02 3.562530e-18
8.010000e+02 3.942041e-18
8.020000e+02 4.360946e-18
8.030000e+02 4.823212e-18
8.040000e+02 5.333212e-18
8.050000e+02 5.498700e-18
8.060000e+02 6.438527e-18
8.070000e+02 7.199971e-18
8.080000e+02 7.936800e-18
8.090000e+02 8.784353e-18
8.100000e+02 9.699658e-18
8.110000e+02 1.070770e-17
8.120000e+02 1.181777e-17
8.130000e+02 1.303992e-17
8.140000e+02 1.438515e-17
8.150000e+02 1.586552e-17
8.160000e+02 1.749424e-17
8.170000e+02 1.928582e-17
8.180000e+02 2.125601e-17
8.190000e+02 2.342216e-17
8.200000e+02 2.580325e-17
8.210000e+02 2.842001e-17
8.220000e+02 3.129514e-17
8.230000e+02 3.445345e-17
8.240000e+02 3.792206e-17
8.250000e+02 4.173062e-17
8.260000e+02 4.591153e-17
8.270000e+02 5.050023e-17
8.280000e+02 5.553531e-17
8.290000e+02 6.105905e-17
8.300000e+02 6.711756e-17
8.310000e+02 7.376118e-17
8.320000e+02 8.104484e-17
8.330000e+02 8.902851e-17
8.340000e+02 9.777781e-17
8.350000e+02 1.071477e-16
8.360000e+02 1.178638e-16
8.370000e+02 1.293637e-16
8.380000e+02 1.419539e-16
8.390000e+02 1.557394e-16
8.400000e+02 1.708258e-16
8.410000e+02 1.873343e-16
8.420000e+02 2.053934e-16
8.430000e+02 2.251497e-16
8.440000e+02 2.467538e-16
8.450000e+02 2.703737e-16
8.460000e+02 2.961932e-16
8.470000e+02 3.244112e-16
8.480000e+02 3.552444e-16
8.490000e+02 3.889282e-16
8.500000e+02 4.257195e-16
8.510000e+02 4.658951e-16
8.520000e+02 5.097582e-16
8.530000e+02 5.576385e-16
8.540000e+02 6.098922e-16
8.550000e+02 6.669077e-16
8.560000e+02 7.291070e-16
8.570000e+02 7.969475e-16
8.580000e+02 8.661813e-16
8.590000e+02 9.515832e-16
8.600000e+02 1.039503e-15
8.610000e+02 1.133758e-15
8.620000e+02 1.239728e-15
8.630000e+02 1.353469e-15
8.640000e+02 1.477351e-15
8.650000e+02 1.612156e-15
8.660000e+02 1.759161e-15
8.670000e+02 1.919060e-15
8.680000e+02 2.093089e-15
8.690000e+02 2.282458e-15
8.700000e+02 2.488481e-15
8.710000e+02 2.712580e-15
8.720000e+02 2.956295e-15
8.730000e+02 3.221293e-15
8.740000e+02 3.509377e-15
8.750000e+02 3.822500e-15
8.760000e+02 4.162775e-15
8.770000e+02 4.532482e-15
8.780000e+02 4.934058e-15
8.790000e+02 5.370022e-15
8.800000e+02 5.843977e-15
8.810000e+02 6.358255e-15
8.820000e+02 6.916497e-15
8.830000e+02 7.522345e-15
8.840000e+02 8.179784e-15
8.850000e+02 8.893030e-15
8.860000e+02 9.666697e-15
8.870000e+02 1.050575e-14
8.880000e+02 1.141555e-14
8.890000e+02 1.240185e-14
8.900000e+02 1.347100e-14
8.910000e+02 1.462964e-14
8.920000e+02 1.588434e-14
8.930000e+02 1.724515e-14
8.940000e+02 1.871828e-14
8.950000e+02 2.031371e-14
8.960000e+02 2.204115e-14
8.970000e+02 2.391126e-14
8.980000e+02 2.593544e-14
8.990000e+02 2.812603e-14
9.000000e+02 3.049629e-14
9.010000e+02 3.306049e-14
9.020000e+02 3.583389e-14
9.030000e+02 3.883048e-14
9.040000e+02 4.207645e-14
9.050000e+02 4.556981e-14
9.060000e+02 4.937160e-14
9.070000e+02 5.346815e-14
9.080000e+02 5.789380e-14
9.090000e+02 6.267483e-14
9.100000e+02 6.783909e-14
9.110000e+02 7.342008e-14
9.120000e+02 7.949146e-14
9.130000e+02 7.352463e-14
9.140000e+02 1.008527e-12
9.150000e+02 2.262952e-09
9.160000e+02 2.549140e-08
9.170000e+02 1.254616e-08
9.180000e+02 3.020429e-09
9.190000e+02 9.724723e-08
9.200000e+02 4.135519e-07
9.210000e+02 1.490440e-13
9.220000e+02 6.485479e-07
9.230000e+02 1.361146e-09
9.240000e+02 2.282016e-07
9.250000e+02 7.943153e-07
9.260000e+02 4.522409e-09
9.270000e+02 1.903075e-07
9.280000e+02 4.432129e-06
9.290000e+02 3.632590e-06
9.300000e+02 4.512084e-07
9.310000e+02 3.833562e-09
9.320000e+02 2.689231e-06
9.330000e+02 7.111986e-06
9.340000e+02 8.756144e-06
9.350000e+02 3.609316e-09
9.360000e+02 9.205958e-07
9.370000e+02 8.189112e-10
9.380000e+02 8.602116e-10
9.390000e+02 8.832837e-07
9.400000e+02 8.061978e-06
9.410000e+02 3.343433e-08
9.420000e+02 1.579156e-05
9.430000e+02 9.356145e-06
9.440000e+02 1.661882e-05
9.450000e+02 1.724818e-05
9.460000e+02 1.397285e-05
9.470000e+02 3.851756e-08
9.480000e+02 6.852861e-07
9.490000e+02 1.266055e-07
9.500000e+02 4.921804e-10
9.510000e+02 1.323748e-06
9.520000e+02 8.738401e-06
9.530000e+02 9.751852e-07
9.540000e+02 6.255300e-08
9.550000e+02 1.290903e-05
9.560000e+02 9.479463e-07
9.570000e+02 8.234929e-07
9.580000e+02 1.418812e-08
9.590000e+02 4.431567e-05
9.600000e+02 4.434696e-09
9.610000e+02 4.415941e-05
9.620000e+02 3.797867e-05
9.630000e+02 1.029945e-05
9.640000e+02 3.088644e-09
9.650000e+02 1.646076e-07
9.660000e+02 2.097509e-05
9.670000e+02 2.534678e-06
9.680000e+02 1.220624e-06
9.690000e+02 2.033801e-05
9.700000e+02 1.011251e-05
9.710000e+02 7.315991e-07
9.720000e+02 2.251352e-08
9.730000e+02 1.622353e-08
9.740000e+02 1.694163e-06
9.750000e+02 8.612883e-06
9.760000e+02 3.276391e-05
9.770000e+02 5.160534e-05
9.780000e+02 5.959659e-05
9.790000e+02 8.742719e-05
9.800000e+02 1.000171e-04
9.810000e+02 8.670259e-05
9.820000e+02 3.774256e-05
9.830000e+02 1.268908e-04
9.840000e+02 1.565940e-06
9.850000e+02 5.345184e-05
9.860000e+02 6.430048e-05
9.870000e+02 1.604243e-04
9.880000e+02 4.028407e-07
9.890000e+02 1.566525e-04
9.900000e+02 5.172501e-06
9.910000e+02 2.197919e-05
9.920000e+02 6.222012e-08
9.930000e+02 1.237946e-04
9.940000e+02 2.604793e-09
9.950000e+02 3.825048e-06
9.960000e+02 2.062938e-06
9.970000e+02 3.585774e-08
9.980000e+02 2.353156e-04
9.990000e+02 2.116935e-05
1.000000e+03 2.502025e-04
1.001000e+03 2.439931e-04
1.002000e+03 3.205691e-04
1.003000e+03 5.685365e-05
1.004000e+03 7.418712e-07
1.005000e+03 1.739318e-04
1.006000e+03 3.660908e-04
1.007000e+03 3.776058e-04
1.008000e+03 3.729475e-04
1.009000e+03 4.381420e-05
1.010000e+03 3.968202e-04
1.011000e+03 4.098384e-04
1.012000e+03 4.095111e-04
1.013000e+03 4.099369e-04
1.014000e+03 2.088782e-07
1.015000e+03 1.091510e-06
1.016000e+03 1.155181e-04
1.017000e+03 1.748267e-07
1.018000e+03 6.372313e-05
1.019000e+03 1.232867e-06
1.020000e+03 2.205556e-04
1.021000e+03 3.058172e-06
1.022000e+03 2.837779e-05
1.023000e+03 2.757843e-06
1.024000e+03 4.113724e-06
1.025000e+03 6.955804e-08
1.026000e+03 1.197753e-08
1.027000e+03 1.916388e-06
1.028000e+03 1.672706e-07
1.029000e+03 3.520181e-07
1.030000e+03 2.499367e-04
1.031000e+03 5.814597e-04
1.032000e+03 6.887778e-04
1.033000e+03 3.767549e-06
1.034000e+03 1.457678e-03
1.035000e+03 7.031485e-08
1.036000e+03 1.031207e-06
1.037000e+03 3.583375e-03
1.038000e+03 4.150404e-03
1.039000e+03 4.109566e-03
1.040000e+03 4.936281e-03
1.041000e+03 4.244802e-03
1.042000e+03 5.722232e-03
1.043000e+03 3.100287e-03
1.044000e+03 6.523897e-03
1.045000e+03 1.502680e-07
1.046000e+03 6.521941e-03
1.047000e+03 5.281481e-03
1.048000e+03 9.454135e-05
1.049000e+03 5.820977e-03
1.050000e+03 2.704239e-03
1.051000e+03 1.089004e-03
1.052000e+03 9.146459e-03
1.053000e+03 9.772487e-03
1.054000e+03 1.686625e-06
1.055000e+03 4.365231e-03
1.056000e+03 1.041698e-02
1.057000e+03 7.221566e-03
1.058000e+03 2.217879e-03
1.059000e+03 5.473476e-05
1.060000e+03 7.990841e-05
1.061000e+03 1.226912e-02
1.062000e+03 8.556462e-04
1.063000e+03 2.205874e-06
1.064000e+03 1.145527e-07
1.065000e+03 2.983958e-06
1.066000e+03 2.025273e-04
1.067000e+03 4.437749e-04
1.068000e+03 1.671472e-02
1.069000e+03 6.770174e-05
1.070000e+03 1.147325e-02
1.071000e+03 1.820840e-02
1.072000e+03 1.906643e-02
1.073000e+03 9.305775e-06
1.074000e+03 1.623296e-02
1.075000e+03 1.459167e-02
1.076000e+03 5.518365e-03
1.077000e+03 1.271442e-05
1.078000e+03 2.362188e-03
1.079000e+03 1.217156e-02
1.080000e+03 1.469003e-02
1.081000e+03 2.526081e-02
1.082000e+03 2.439490e-02
1.083000e+03 2.106133e-02
1.084000e+03 2.407669e-02
1.085000e+03 7.062644e-03
1.086000e+03 3.068338e-02
1.087000e+03 1.569275e-03
1.088000e+03 3.233560e-02
1.089000e+03 3.308602e-02
1.090000e+03 1.045307e-02
1.091000e+03 1.551326e-02
1.092000e+03 1.896808e-02
1.093000e+03 3.340644e-02
1.094000e+03 3.248566e-02
1.095000e+03 4.043729e-02
1.096000e+03 8.254461e-04
1.097000e+03 3.953119e-02
1.098000e+03 2.997308e-02
1.099000e+03 2.407614e-02
1.100000e+03 1.723690e-04
1.101000e+03 6.527980e-04
1.102000e+03 2.249547e-02
1.103000e+03 5.183467e-02
1.104000e+03 5.388540e-02
1.105000e+03 5.499005e-02
1.106000e+03 3.599327e-02
1.107000e+03 3.930889e-04
1.108000e+03 5.967650e-02
1.109000e+03 1.252003e-02
1.110000e+03 5.424038e-02
1.111000e+03 6.038633e-02
1.112000e+03 6.393629e-02
1.113000e+03 5.553593e-02
1.114000e+03 3.508925e-02
1.115000e+03 9.030402e-03
1.116000e+03 4.192769e-03
1.117000e+03 7.791447e-02
1.118000e+03 2.005806e-02
1.119000e+03 7.821684e-02
1.120000e+03 7.429421e-03
1.121000e+03 8.725365e-02
1.122000e+03 4.319905e-02
1.123000e+03 1.177677e-01
1.124000e+03 1.388661e-01
1.125000e+03 1.214532e-01
1.126000e+03 1.133645e-01
1.127000e+03 1.107612e-01
1.128000e+03 8.726638e-02
1.129000e+03 9.868887e-02
1.130000e+03 9.745598e-02
1.131000e+03 8.561189e-02
1.132000e+03 6.654300e-03
1.133000e+03 5.676606e-02
1.134000e+03 8.546316e-02
1.135000e+03 2.103589e-03
1.136000e+03 6.356219e-02
1.137000e+03 7.072553e-02
1.138000e+03 8.045153e-02
1.139000e+03 8.299239e-02
1.140000e+03 7.662488e-02
1.141000e+03 7.117765e-02
1.142000e+03 8.097516e-02
1.143000e+03 7.051434e-02
1.144000e+03 7.648098e-02
1.145000e+03 3.013410e-03
1.146000e+03 8.254088e-02
1.147000e+03 8.299746e-02
1.148000e+03 3.627690e-02
1.149000e+03 8.156781e-02
1.150000e+03 8.017050e-02
1.151000e+03 8.015914e-02
1.152000e+03 7.851057e-02
1.153000e+03 7.536764e-02
1.154000e+03 7.403012e-02
1.155000e+03 7.396432e-02
1.156000e+03 4.519507e-02
1.157000e+03 7.047298e-02
1.158000e+03 6.918609e-02
1.159000e+03 7.112730e-02
1.160000e+03 6.929759e-02
1.161000e+03 6.561235e-02
1.162000e+03 4.164073e-02
1.163000e+03 5.355803e-02
1.164000e+03 1.385584e-04
1.165000e+03 3.772469e-02
1.166000e+03 1.930913e-02
1.167000e+03 1.222358e-02
1.168000e+03 7.214065e-02
1.169000e+03 7.258301e-02
1.170000e+03 1.291283e-02
1.171000e+03 3.310875e-02
1.172000e+03 2.666092e-02
1.173000e+03 2.218129e-02
1.174000e+03 1.802251e-02
1.175000e+03 1.528263e-04
1.176000e+03 3.629923e-05
1.177000e+03 9.045188e-02
1.178000e+03 8.526660e-02
1.179000e+03 8.114017e-02
1.180000e+03 7.403293e-02
1.181000e+03 7.315750e-02
1.182000e+03 7.046916e-02
1.183000e+03 6.733698e-02
1.184000e+03 6.454218e-02
1.185000e+03 6.230554e-02
1.186000e+03 4.054798e-02
1.187000e+03 5.799581e-02
1.188000e+03 5.554612e-02
1.189000e+03 5.462978e-02
1.190000e+03 5.313292e-02
1.191000e+03 5.008775e-02
1.192000e+03 4.490804e-02
1.193000e+03 4.206882e-02
1.194000e+03 4.262970e-02
1.195000e+03 4.062391e-02
1.196000e+03 5.644537e-01
1.197000e+03 5.374459e-01
1.198000e+03 3.385688e-01
1.199000e+03 4.704797e-01
1.200000e+03 3.591111e-01
1.201000e+03 3.886760e-01
1.202000e+03 3.369155e-01
1.203000e+03 2.990677e-01
1.204000e+03 2.241176e-01
1.205000e+03 2.047080e-01
1.206000e+03 1.599616e-01
1.207000e+03 1.598775e-02
1.208000e+03 7.520420e-02
1.209000e+03 5.405530e-02
1.210000e+03 2.294183e-04
1.211000e+03 1.802281e-02
1.212000e+03 8.442317e-03
1.213000e+03 3.314080e-03
1.214000e+03 8.964899e-04
1.215000e+03 9.383838e-05
1.216000e+03 2.050734e-05
1.217000e+03 5.442546e-04
1.218000e+03 2.674959e-03
1.219000e+03 8.035370e-03
1.220000e+03 1.914839e-02
1.221000e+03 3.804970e-02
1.222000e+03 7.069566e-02
1.223000e+03 1.130339e-01
1.224000e+03 1.633036e-01
1.225000e+03 1.890429e-01
1.226000e+03 3.307525e-01
1.227000e+03 4.345101e-01
1.228000e+03 5.353966e-01
1.229000e+03 6.692265e-01
1.230000e+03 8.510834e-02
1.231000e+03 6.886685e-01
1.232000e+03 1.034439e+00
1.233000e+03 1.170805e+00
1.234000e+03 9.532644e-01
1.235000e+03 1.424998e+00
1.236000e+03 1.475152e+00
1.237000e+03 1.668862e+00
1.238000e+03 1.790280e+00
1.239000e+03 1.870466e+00
1.240000e+03 2.961644e-01
1.241000e+03 1.982305e+00
1.242000e+03 2.243668e+00
1.243000e+03 2.357210e+00
1.244000e+03 2.465431e+00
1.245000e+03 2.401967e+00
1.246000e+03 2.659421e+00
1.247000e+03 2.727221e+00
1.248000e+03 1.209033e+00
1.249000e+03 2.919323e+00
1.250000e+03 2.745512e+00
1.251000e+03 3.216689e+00
1.252000e+03 3.118149e+00
1.253000e+03 3.376017e+00
1.254000e+03 3.368875e+00
1.255000e+03 7.822978e-01
1.256000e+03 3.260932e+00
1.257000e+03 2.705598e+00
1.258000e+03 3.300578e+00
1.259000e+03 3.478871e+00
1.260000e+03 3.898652e+00
1.261000e+03 1.800601e-01
1.262000e+03 4.051977e+00
1.263000e+03 3.224292e+00
1.264000e+03 4.006069e+00
1.265000e+03 1.552057e-01
1.266000e+03 4.693496e+00
1.267000e+03 4.927469e+00
