# wavelength_A flux
5.000000e+02 9.107944e-19
5.010000e+02 1.086240e-18
5.020000e+02 1.294549e-18
5.030000e+02 1.541701e-18
5.040000e+02 1.834727e-18
5.050000e+02 1.736215e-18
5.060000e+02 2.065600e-18
5.070000e+02 2.455736e-18
5.080000e+02 2.917508e-18
5.090000e+02 3.463688e-18
5.100000e+02 4.109275e-18
5.110000e+02 4.871801e-18
5.120000e+02 5.771873e-18
5.130000e+02 6.833571e-18
5.140000e+02 8.085077e-18
5.150000e+02 9.560314e-18
5.160000e+02 1.129484e-17
5.170000e+02 1.334188e-17
5.180000e+02 1.573687e-17
5.190000e+02 1.855701e-17
5.200000e+02 2.186827e-17
5.210000e+02 2.575408e-17
5.220000e+02 3.034229e-17
5.230000e+02 3.565053e-17
5.240000e+02 4.190237e-17
5.250000e+02 4.921777e-17
5.260000e+02 5.777653e-17
5.270000e+02 6.778107e-17
5.280000e+02 7.946829e-17
5.290000e+02 9.334232e-17
5.300000e+02 1.090326e-16
5.310000e+02 1.275957e-16
5.320000e+02 1.492279e-16
5.330000e+02 1.744218e-16
5.340000e+02 2.037465e-16
5.350000e+02 2.378606e-16
5.360000e+02 2.775384e-16
5.370000e+02 3.646886e-16
5.380000e+02 3.771849e-16
5.390000e+02 4.391823e-16
5.400000e+02 5.111834e-16
5.410000e+02 5.952664e-16
5.420000e+02 6.914315e-16
5.430000e+02 8.033147e-16
5.440000e+02 9.328769e-16
5.450000e+02 1.082720e-15
5.460000e+02 1.258512e-15
5.470000e+02 1.456008e-15
5.480000e+02 1.687042e-15
5.490000e+02 1.953617e-15
5.500000e+02 2.261082e-15
5.510000e+02 2.615494e-15
5.520000e+02 3.023804e-15
5.530000e+02 3.493953e-15
5.540000e+02 4.035016e-15
5.550000e+02 4.657358e-15
5.560000e+02 5.372807e-15
5.570000e+02 6.194861e-15
5.580000e+02 7.138905e-15
5.590000e+02 8.222481e-15
5.600000e+02 9.465561e-15
5.610000e+02 1.089089e-14
5.620000e+02 1.252435e-14
5.630000e+02 1.439538e-14
5.640000e+02 1.653743e-14
5.650000e+02 1.898866e-14
5.660000e+02 2.179185e-14
5.670000e+02 2.499641e-14
5.680000e+02 2.865780e-14
5.690000e+02 3.283910e-14
5.700000e+02 3.761195e-14
5.710000e+02 4.305677e-14
5.720000e+02 4.926580e-14
5.730000e+02 5.634265e-14
5.740000e+02 6.440471e-14
5.750000e+02 7.357292e-14
5.760000e+02 8.408266e-14
5.770000e+02 9.590335e-14
5.780000e+02 1.094161e-13
5.790000e+02 1.247737e-13
5.800000e+02 1.422202e-13
5.810000e+02 1.620312e-13
5.820000e+02 1.845194e-13
5.830000e+02 2.100521e-13
5.840000e+02 2.396754e-13
5.850000e+02 2.719155e-13
5.860000e+02 3.088707e-13
5.870000e+02 3.508928e-13
5.880000e+02 3.984726e-13
5.890000e+02 4.523495e-13
5.900000e+02 5.131857e-13
5.910000e+02 5.820010e-13
5.920000e+02 6.597518e-13
5.930000e+02 7.475603e-13
5.940000e+02 8.466841e-13
5.950000e+02 9.585333e-13
5.960000e+02 1.084686e-12
5.970000e+02 1.226911e-12
5.980000e+02 1.387188e-12
5.990000e+02 1.567732e-12
6.000000e+02 1.771019e-12
6.010000e+02 2.000039e-12
6.020000e+02 2.257227e-12
6.030000e+02 2.546699e-12
6.040000e+02 2.872092e-12
6.050000e+02 3.237717e-12
6.060000e+02 3.648426e-12
6.070000e+02 4.109439e-12
6.080000e+02 4.626871e-12
6.090000e+02 5.207334e-12
6.100000e+02 5.858259e-12
6.110000e+02 6.587862e-12
6.120000e+02 7.405378e-12
6.130000e+02 8.321022e-12
6.140000e+02 9.346170e-12
6.150000e+02 1.049346e-11
6.160000e+02 1.177696e-11
6.170000e+02 1.321228e-11
6.180000e+02 1.481676e-11
6.190000e+02 1.660965e-11
6.200000e+02 1.861228e-11
6.210000e+02 2.084839e-11
6.220000e+02 2.334422e-11
6.230000e+02 2.612890e-11
6.240000e+02 2.923470e-11
6.250000e+02 3.269737e-11
6.260000e+02 3.655647e-11
6.270000e+02 4.085582e-11
6.280000e+02 4.564383e-11
6.290000e+02 5.097416e-11
6.300000e+02 5.690608e-11
6.310000e+02 6.387750e-11
6.320000e+02 7.084341e-11
6.330000e+02 7.900897e-11
6.340000e+02 8.806662e-11
6.350000e+02 9.815115e-11
6.360000e+02 1.093224e-10
6.370000e+02 1.217341e-10
6.380000e+02 1.355098e-10
6.390000e+02 1.507914e-10
6.400000e+02 1.677376e-10
6.410000e+02 1.865231e-10
6.420000e+02 2.073406e-10
6.430000e+02 2.304017e-10
6.440000e+02 2.559398e-10
6.450000e+02 2.842119e-10
6.460000e+02 3.154983e-10
6.470000e+02 3.501111e-10
6.480000e+02 3.883892e-10
6.490000e+02 4.307081e-10
6.500000e+02 4.774829e-10
6.510000e+02 5.291514e-10
6.520000e+02 5.862222e-10
6.530000e+02 6.492342e-10
6.540000e+02 7.187855e-10
6.550000e+02 7.955229e-10
6.560000e+02 8.801692e-10
6.570000e+02 9.736689e-10
6.580000e+02 1.076396e-09
6.590000e+02 1.189778e-09
6.600000e+02 1.314690e-09
6.610000e+02 1.452239e-09
6.620000e+02 1.603681e-09
6.630000e+02 1.770358e-09
6.640000e+02 1.953745e-09
6.650000e+02 2.155476e-09
6.660000e+02 2.377254e-09
6.670000e+02 2.621063e-09
6.680000e+02 2.888987e-09
6.690000e+02 3.183323e-09
6.700000e+02 3.506576e-09
6.710000e+02 3.861483e-09
6.720000e+02 4.251025e-09
6.730000e+02 4.678456e-09
6.740000e+02 5.147322e-09
6.750000e+02 5.661488e-09
6.760000e+02 6.225167e-09
6.770000e+02 6.842945e-09
6.780000e+02 7.519819e-09
6.790000e+02 8.261227e-09
6.800000e+02 9.073087e-09
6.810000e+02 9.961841e-09
6.820000e+02 1.093449e-08
6.830000e+02 1.199865e-08
6.840000e+02 1.316261e-08
6.850000e+02 1.443541e-08
6.860000e+02 1.582672e-08
6.870000e+02 1.734735e-08
6.880000e+02 1.900853e-08
6.890000e+02 2.082307e-08
6.900000e+02 2.280446e-08
6.910000e+02 2.496744e-08
6.920000e+02 2.732803e-08
6.930000e+02 2.990358e-08
6.940000e+02 3.271290e-08
6.950000e+02 3.577638e-08
6.960000e+02 3.911612e-08
6.970000e+02 4.276218e-08
6.980000e+02 4.672215e-08
6.990000e+02 5.104244e-08
7.000000e+02 5.574734e-08
7.010000e+02 6.086974e-08
7.020000e+02 6.644523e-08
7.030000e+02 7.251232e-08
7.040000e+02 7.911264e-08
7.050000e+02 8.629119e-08
7.060000e+02 9.409670e-08
7.070000e+02 1.025816e-07
7.080000e+02 1.118028e-07
7.090000e+02 1.218227e-07
7.100000e+02 1.327044e-07
7.110000e+02 1.445225e-07
7.120000e+02 1.573532e-07
7.130000e+02 1.712799e-07
7.140000e+02 1.863922e-07
7.150000e+02 2.027872e-07
7.160000e+02 2.205693e-07
7.170000e+02 2.398570e-07
7.180000e+02 2.607831e-07
7.190000e+02 2.834092e-07
7.200000e+02 3.079567e-07
7.210000e+02 3.345488e-07
7.220000e+02 3.633494e-07
7.230000e+02 3.945328e-07
7.240000e+02 4.282899e-07
7.250000e+02 4.648239e-07
7.260000e+02 5.043539e-07
7.270000e+02 5.471155e-07
7.280000e+02 5.933621e-07
7.290000e+02 6.433662e-07
7.300000e+02 6.974204e-07
7.310000e+02 7.558395e-07
7.320000e+02 8.189612e-07
7.330000e+02 8.871488e-07
7.340000e+02 9.607917e-07
7.350000e+02 1.040309e-06
7.360000e+02 1.126157e-06
7.370000e+02 1.218793e-06
7.380000e+02 1.318760e-06
7.390000e+02 1.426604e-06
7.400000e+02 1.542935e-06
7.410000e+02 1.668344e-06
7.420000e+02 1.803577e-06
7.430000e+02 1.949305e-06
7.440000e+02 2.106358e-06
7.450000e+02 2.275563e-06
7.460000e+02 2.457821e-06
7.470000e+02 2.654095e-06
7.480000e+02 2.865418e-06
7.490000e+02 3.092896e-06
7.500000e+02 3.337711e-06
7.510000e+02 3.601129e-06
7.520000e+02 3.884504e-06
7.530000e+02 4.189283e-06
7.540000e+02 4.517014e-06
7.550000e+02 4.869353e-06
7.560000e+02 5.248067e-06
7.570000e+02 5.655364e-06
7.580000e+02 6.092314e-06
7.590000e+02 6.562188e-06
7.600000e+02 7.066493e-06
7.610000e+02 7.608113e-06
7.620000e+02 8.189580e-06
7.630000e+02 8.813710e-06
7.640000e+02 9.483470e-06
7.650000e+02 1.020207e-05
7.660000e+02 1.097285e-05
7.670000e+02 1.179952e-05
7.680000e+02 1.268647e-05
7.690000e+02 1.363617e-05
7.700000e+02 1.465460e-05
7.710000e+02 1.574605e-05
7.720000e+02 1.691541e-05
7.730000e+02 1.816806e-05
7.740000e+02 1.950966e-05
7.750000e+02 2.094622e-05
7.760000e+02 2.249178e-05
7.770000e+02 2.413040e-05
7.780000e+02 2.589208e-05
7.790000e+02 2.777709e-05
7.800000e+02 2.979363e-05
7.810000e+02 3.195042e-05
7.820000e+02 3.425686e-05
7.830000e+02 3.672284e-05
7.840000e+02 3.935891e-05
7.850000e+02 4.217627e-05
7.860000e+02 4.518691e-05
7.870000e+02 4.840237e-05
7.880000e+02 5.183809e-05
7.890000e+02 5.550743e-05
7.900000e+02 5.942553e-05
7.910000e+02 6.360853e-05
7.920000e+02 6.807352e-05
7.930000e+02 7.283867e-05
7.940000e+02 7.792326e-05
7.950000e+02 8.334772e-05
7.960000e+02 8.913374e-05
7.970000e+02 9.530433e-05
7.980000e+02 1.018839e-04
7.990000e+02 1.088983e-04
8.000000e+02 1.163750e-04
8.010000e+02 1.243435e-04
8.020000e+02 1.328334e-04
8.030000e+02 1.418786e-04
8.040000e+02 1.515132e-04
8.050000e+02 1.617739e-04
8.060000e+02 1.726996e-04
8.070000e+02 1.843314e-04
8.080000e+02 1.967127e-04
8.090000e+02 2.098898e-04
8.100000e+02 2.239113e-04
8.110000e+02 2.388290e-04
8.120000e+02 2.546973e-04
8.130000e+02 2.715742e-04
8.140000e+02 2.895208e-04
8.150000e+02 3.086029e-04
8.160000e+02 3.288852e-04
8.170000e+02 3.504436e-04
8.180000e+02 3.733535e-04
8.190000e+02 3.976955e-04
8.200000e+02 4.235549e-04
8.210000e+02 4.510220e-04
8.220000e+02 4.801920e-04
8.230000e+02 5.111656e-04
8.240000e+02 5.440488e-04
8.250000e+02 5.789541e-04
8.260000e+02 6.160000e-04
8.270000e+02 6.553116e-04
8.280000e+02 6.970207e-04
8.290000e+02 7.412669e-04
8.300000e+02 7.881970e-04
8.310000e+02 8.379662e-04
8.320000e+02 8.907381e-04
8.330000e+02 9.466852e-04
8.340000e+02 1.005989e-03
8.350000e+02 1.069574e-03
8.360000e+02 1.135498e-03
8.370000e+02 1.206017e-03
8.380000e+02 1.280783e-03
8.390000e+02 1.359959e-03
8.400000e+02 1.443819e-03
8.410000e+02 1.532626e-03
8.420000e+02 1.626869e-03
8.430000e+02 1.726149e-03
8.440000e+02 1.831482e-03
8.450000e+02 1.942953e-03
8.460000e+02 2.060899e-03
8.470000e+02 2.185681e-03
8.480000e+02 2.317675e-03
8.490000e+02 2.457278e-03
8.500000e+02 2.604907e-03
8.510000e+02 2.761000e-03
8.520000e+02 2.926038e-03
8.530000e+02 3.100454e-03
8.540000e+02 3.284724e-03
8.550000e+02 3.479534e-03
8.560000e+02 3.685368e-03
8.570000e+02 3.902819e-03
8.580000e+02 4.132526e-03
8.590000e+02 4.375098e-03
8.600000e+02 4.631269e-03
8.610000e+02 4.901750e-03
8.620000e+02 5.187292e-03
8.630000e+02 5.488713e-03
8.640000e+02 5.806812e-03
8.650000e+02 6.142534e-03
8.660000e+02 6.496702e-03
8.670000e+02 6.870374e-03
8.680000e+02 7.264538e-03
8.690000e+02 7.680261e-03
8.700000e+02 8.118784e-03
8.710000e+02 8.580924e-03
8.720000e+02 9.068271e-03
8.730000e+02 9.582002e-03
8.740000e+02 1.012347e-02
8.750000e+02 1.069410e-02
8.760000e+02 1.129538e-02
8.770000e+02 1.192894e-02
8.780000e+02 1.259623e-02
8.790000e+02 1.329916e-02
8.800000e+02 1.403946e-02
8.810000e+02 1.481901e-02
8.820000e+02 1.563981e-02
8.830000e+02 1.650391e-02
8.840000e+02 1.741349e-02
8.850000e+02 1.837081e-02
8.860000e+02 1.937827e-02
8.870000e+02 2.043833e-02
8.880000e+02 2.155362e-02
8.890000e+02 2.272686e-02
8.900000e+02 2.396091e-02
8.910000e+02 2.525876e-02
8.920000e+02 2.683661e-02
8.930000e+02 2.805853e-02
8.940000e+02 2.956715e-02
8.950000e+02 3.115299e-02
8.960000e+02 3.281977e-02
8.970000e+02 3.457143e-02
8.980000e+02 3.641207e-02
8.990000e+02 3.834598e-02
9.000000e+02 4.037763e-02
9.010000e+02 4.251170e-02
9.020000e+02 4.475309e-02
9.030000e+02 4.710693e-02
9.040000e+02 4.957855e-02
9.050000e+02 5.217358e-02
9.060000e+02 5.489772e-02
9.070000e+02 5.775947e-02
9.080000e+02 6.075837e-02
9.090000e+02 6.390785e-02
9.100000e+02 6.721260e-02
9.110000e+02 7.067855e-02
9.120000e+02 7.430752e-02
9.130000e+02 8.147521e-02
9.140000e+02 5.677181e-02
9.150000e+02 2.209183e+00
9.160000e+02 4.782524e+00
9.170000e+02 2.840111e+00
9.180000e+02 4.727524e+00
9.190000e+02 5.987377e+00
9.200000e+02 6.333480e+00
9.210000e+02 1.211348e-01
9.220000e+02 6.646652e+00
9.230000e+02 4.068789e+00
9.240000e+02 4.363004e+00
9.250000e+02 6.315259e+00
9.260000e+02 7.489846e+00
9.270000e+02 3.764607e+00
9.280000e+02 8.668058e+00
9.290000e+02 7.444519e+00
9.300000e+02 9.062151e+00
9.310000e+02 4.240335e+00
9.320000e+02 1.011436e+01
9.330000e+02 1.050682e+01
9.340000e+02 9.631847e+00
9.350000e+02 2.092683e-02
9.360000e+02 5.260792e+00
9.370000e+02 1.814026e-02
9.380000e+02 1.487852e+00
9.390000e+02 7.731051e+00
9.400000e+02 1.359966e+01
9.410000e+02 4.026589e-01
9.420000e+02 1.461455e+01
9.430000e+02 9.847395e+00
9.440000e+02 1.025224e+01
9.450000e+02 1.637787e+01
9.460000e+02 1.630952e+01
9.470000e+02 1.810270e+00
9.480000e+02 1.397203e+01
9.490000e+02 1.825961e+01
9.500000e+02 4.263210e-02
9.510000e+02 1.826090e+01
9.520000e+02 2.040969e+01
9.530000e+02 4.154739e+00
9.540000e+02 1.564802e+00
9.550000e+02 1.835918e+01
9.560000e+02 2.102513e+01
9.570000e+02 1.515373e+00
9.580000e+02 4.024239e-01
9.590000e+02 2.812702e+01
9.600000e+02 5.433655e-02
9.610000e+02 2.823455e+01
9.620000e+02 2.599485e+01
9.630000e+02 2.284521e+01
9.640000e+02 3.130970e-01
9.650000e+02 3.554540e+00
9.660000e+02 2.586776e+01
9.670000e+02 1.275760e+01
9.680000e+02 7.139721e+00
9.690000e+02 3.617599e+01
9.700000e+02 3.583178e+01
9.710000e+02 1.350567e+01
9.720000e+02 1.300166e+01
9.730000e+02 2.900879e+01
9.740000e+02 4.167524e+01
9.750000e+02 3.542920e+01
9.760000e+02 5.142396e+01
9.770000e+02 5.235652e+01
9.780000e+02 4.899255e+01
9.790000e+02 5.872958e+01
9.800000e+02 6.084420e+01
9.810000e+02 5.483620e+01
9.820000e+02 3.558698e+01
9.830000e+02 6.745595e+01
9.840000e+02 1.896470e+00
9.850000e+02 5.508071e+01
9.860000e+02 5.818916e+01
9.870000e+02 7.807732e+01
9.880000e+02 6.215622e+00
9.890000e+02 5.307481e+01
9.900000e+02 2.800559e-01
9.910000e+02 2.086820e+01
9.920000e+02 1.108905e+00
9.930000e+02 8.068935e+01
9.940000e+02 5.111389e-01
9.950000e+02 1.475743e+00
9.960000e+02 1.682761e+01
9.970000e+02 5.960350e-01
9.980000e+02 1.070895e+02
9.990000e+02 1.617051e+01
1.000000e+03 1.177250e+02
1.001000e+03 1.295450e+02
1.002000e+03 1.336539e+02
1.003000e+03 6.503598e+01
1.004000e+03 1.092950e+01
1.005000e+03 9.113726e+01
1.006000e+03 1.529776e+02
1.007000e+03 1.591425e+02
1.008000e+03 1.610500e+02
1.009000e+03 9.153823e+01
1.010000e+03 1.729611e+02
1.011000e+03 1.818643e+02
1.012000e+03 1.850192e+02
1.013000e+03 1.899529e+02
1.014000e+03 2.174362e+00
1.015000e+03 1.024751e+01
1.016000e+03 1.184857e+02
1.017000e+03 2.116638e+00
1.018000e+03 1.096958e+02
1.019000e+03 1.051825e+01
1.020000e+03 2.405229e+02
1.021000e+03 1.541438e+01
1.022000e+03 8.186382e+01
1.023000e+03 1.713777e+01
1.024000e+03 1.958703e+02
1.025000e+03 1.865216e+00
1.026000e+03 3.154006e+00
1.027000e+03 1.512501e+02
1.028000e+03 1.020142e+00
1.029000e+03 3.708893e+00
1.030000e+03 2.736308e+02
1.031000e+03 2.643091e+02
1.032000e+03 3.115022e+02
1.033000e+03 2.951294e+00
1.034000e+03 3.349054e+02
1.035000e+03 1.691162e+00
1.036000e+03 6.153992e+00
1.037000e+03 4.193614e+02
1.038000e+03 4.455007e+02
1.039000e+03 4.433763e+02
1.040000e+03 4.710892e+02
1.041000e+03 4.841067e+02
1.042000e+03 5.060485e+02
1.043000e+03 4.089935e+02
1.044000e+03 5.460571e+02
1.045000e+03 5.456344e+02
1.046000e+03 5.716837e+02
1.047000e+03 5.136051e+02
1.048000e+03 9.176797e+01
1.049000e+03 5.603939e+02
1.050000e+03 5.175999e+02
1.051000e+03 4.367350e+02
1.052000e+03 6.977198e+02
1.053000e+03 7.238787e+02
1.054000e+03 8.702087e+00
1.055000e+03 7.755101e+02
1.056000e+03 8.006708e+02
1.057000e+03 7.598891e+02
1.058000e+03 5.785161e+02
1.059000e+03 3.302245e+02
1.060000e+03 1.417552e+02
1.061000e+03 8.811447e+02
1.062000e+03 4.620698e+02
1.063000e+03 3.199738e+01
1.064000e+03 7.086792e+00
1.065000e+03 1.482068e+01
1.066000e+03 8.065289e+02
1.067000e+03 2.773198e+02
1.068000e+03 1.169060e+03
1.069000e+03 7.518324e+01
1.070000e+03 1.108462e+03
1.071000e+03 1.278486e+03
1.072000e+03 1.319684e+03
1.073000e+03 3.048547e+01
1.074000e+03 1.201149e+03
1.075000e+03 1.116753e+03
1.076000e+03 1.491413e+03
1.077000e+03 2.280969e+01
1.078000e+03 8.381110e+02
1.079000e+03 1.313705e+03
1.080000e+03 1.452402e+03
1.081000e+03 1.677661e+03
1.082000e+03 1.689321e+03
1.083000e+03 1.654145e+03
1.084000e+03 1.886802e+03
1.085000e+03 8.264966e+02
1.086000e+03 2.007797e+03
1.087000e+03 6.016932e+02
1.088000e+03 2.103686e+03
1.089000e+03 2.184430e+03
1.090000e+03 1.398685e+03
1.091000e+03 1.483681e+03
1.092000e+03 2.366477e+03
1.093000e+03 2.432809e+03
1.094000e+03 2.393282e+03
1.095000e+03 2.578406e+03
1.096000e+03 7.071274e+02
1.097000e+03 2.598581e+03
1.098000e+03 2.795650e+03
1.099000e+03 2.422157e+03
1.100000e+03 2.730650e+02
1.101000e+03 6.643273e+02
1.102000e+03 2.900215e+03
1.103000e+03 9.073369e+03
1.104000e+03 5.510271e+03
1.105000e+03 3.232096e+03
1.106000e+03 9.219867e+03
1.107000e+03 2.581172e+02
1.108000e+03 1.190371e+04
1.109000e+03 2.717592e+03
1.110000e+03 6.116350e+03
1.111000e+03 6.005703e+03
1.112000e+03 1.170882e+04
1.113000e+03 1.236477e+04
1.114000e+03 2.751332e+03
1.115000e+03 4.428684e+03
1.116000e+03 3.203148e+03
1.117000e+03 2.575431e+03
1.118000e+03 3.848412e+03
1.119000e+03 1.390608e+04
1.120000e+03 3.198639e+03
1.121000e+03 1.496939e+04
1.122000e+03 1.715137e+02
1.123000e+03 8.458706e+03
1.124000e+03 1.643561e+04
1.125000e+03 1.287179e+04
1.126000e+03 1.737004e+04
1.127000e+03 1.695268e+04
1.128000e+03 8.195413e+03
1.129000e+03 1.687769e+04
1.130000e+03 1.815682e+04
1.131000e+03 1.788872e+04
1.132000e+03 3.345850e+02
1.133000e+03 8.479670e+03
1.134000e+03 1.792792e+04
1.135000e+03 2.067891e+02
1.136000e+03 1.414242e+04
1.137000e+03 2.079900e+04
1.138000e+03 1.918266e+04
1.139000e+03 2.165928e+04
1.140000e+03 7.047217e+02
1.141000e+03 2.245215e+04
1.142000e+03 2.284892e+04
1.143000e+03 2.148538e+04
1.144000e+03 2.352704e+04
1.145000e+03 1.645017e+03
1.146000e+03 2.473942e+04
1.147000e+03 2.475949e+04
1.148000e+03 8.728884e+03
1.149000e+03 2.535104e+04
1.150000e+03 2.523623e+04
1.151000e+03 2.681968e+04
1.152000e+03 2.731945e+04
1.153000e+03 1.713518e+04
1.154000e+03 2.763211e+04
1.155000e+03 2.798318e+04
1.156000e+03 2.515360e+04
1.157000e+03 2.871641e+04
1.158000e+03 4.080651e+03
1.159000e+03 2.976031e+04
1.160000e+03 2.861220e+04
1.161000e+03 3.181213e+04
1.162000e+03 1.065210e+04
1.163000e+03 2.632575e+04
1.164000e+03 1.224590e+02
1.165000e+03 3.389319e+04
1.166000e+03 3.400809e+04
1.167000e+03 3.463839e+04
1.168000e+03 3.641680e+04
1.169000e+03 3.625954e+04
1.170000e+03 3.656059e+04
1.171000e+03 3.824298e+04
1.172000e+03 3.629452e+04
1.173000e+03 4.020194e+04
1.174000e+03 8.360572e+03
1.175000e+03 1.822109e+02
1.176000e+03 3.307344e+02
1.177000e+03 4.360038e+04
1.178000e+03 4.422729e+04
1.179000e+03 4.504909e+04
1.180000e+03 3.835888e+04
1.181000e+03 4.664335e+04
1.182000e+03 4.753666e+04
1.183000e+03 4.738931e+04
1.184000e+03 4.776265e+04
1.185000e+03 4.960554e+04
1.186000e+03 2.853598e+04
1.187000e+03 5.125864e+04
1.188000e+03 4.701111e+04
1.189000e+03 2.078469e+03
1.190000e+03 4.025458e+04
1.191000e+03 5.399896e+04
1.192000e+03 5.493955e+04
1.193000e+03 1.915926e+03
1.194000e+03 2.664375e+03
1.195000e+03 5.200571e+04
1.196000e+03 5.677992e+04
1.197000e+03 9.483928e+04
1.198000e+03 6.213278e+04
1.199000e+03 9.151546e+04
1.200000e+03 6.692070e+04
1.201000e+03 8.601547e+04
1.202000e+03 8.087823e+04
1.203000e+03 1.104322e+05
1.204000e+03 7.387194e+04
1.205000e+03 9.234902e+04
1.206000e+03 8.915052e+04
1.207000e+03 4.580945e+03
1.208000e+03 6.051532e+04
1.209000e+03 4.289661e+04
1.210000e+03 6.999395e+02
1.211000e+03 1.890706e+04
1.212000e+03 9.283794e+03
1.213000e+03 3.787538e+03
1.214000e+03 1.181175e+03
1.215000e+03 5.866655e+02
1.216000e+03 1.291513e+03
1.217000e+03 8.520092e+02
1.218000e+03 2.938119e+03
1.219000e+03 8.229479e+03
1.220000e+03 1.724872e+04
1.221000e+03 3.315056e+04
1.222000e+03 5.276786e+04
1.223000e+03 7.384695e+04
1.224000e+03 8.956607e+04
1.225000e+03 6.961747e+04
1.226000e+03 1.447947e+05
1.227000e+03 1.654121e+05
1.228000e+03 1.607427e+05
1.229000e+03 2.062977e+05
1.230000e+03 2.197356e+05
1.231000e+03 1.714358e+05
1.232000e+03 2.615206e+05
1.233000e+03 2.805273e+05
1.234000e+03 1.715846e+05
1.235000e+03 3.093304e+05
1.236000e+03 2.630848e+05
1.237000e+03 3.370240e+05
1.238000e+03 3.482760e+05
1.239000e+03 3.550557e+05
1.240000e+03 1.456188e+05
1.241000e+03 3.685424e+05
1.242000e+03 3.848223e+05
1.243000e+03 4.111629e+05
1.244000e+03 3.816901e+05
1.245000e+03 4.157872e+05
1.246000e+03 4.476500e+05
1.247000e+03 4.588590e+05
1.248000e+03 3.294043e+05
1.249000e+03 4.534322e+05
1.250000e+03 3.897188e+05
1.251000e+03 5.115194e+05
1.252000e+03 5.028916e+05
1.253000e+03 5.332394e+05
1.254000e+03 5.358214e+05
1.255000e+03 5.236256e+05
1.256000e+03 5.500655e+05
1.257000e+03 4.828171e+05
1.258000e+03 5.574919e+05
1.259000e+03 5.910901e+05
1.260000e+03 5.988426e+05
1.261000e+03 7.236875e+03
1.262000e+03 4.876437e+05
1.263000e+03 6.258967e+05
1.264000e+03 6.340169e+05
1.265000e+03 1.440678e+04
1.266000e+03 6.820688e+05
1.267000e+03 6.762928e+05
