# wavelength_A flux
5.000000e+02 5.258176e-29
5.010000e+02 6.497952e-29
5.020000e+02 8.023265e-29
5.030000e+02 9.898315e-29
5.040000e+02 1.220155e-28
5.050000e+02 2.958115e-28
5.060000e+02 3.628978e-28
5.070000e+02 4.448448e-28
5.080000e+02 5.448621e-28
5.090000e+02 6.668410e-28
5.100000e+02 8.154815e-28
5.110000e+02 9.964935e-28
5.120000e+02 1.216732e-27
5.130000e+02 1.484504e-27
5.140000e+02 1.809818e-27
5.150000e+02 2.204507e-27
5.160000e+02 2.683842e-27
5.170000e+02 3.263350e-27
5.180000e+02 3.967961e-27
5.190000e+02 4.819323e-27
5.200000e+02 5.848980e-27
5.210000e+02 7.093057e-27
5.220000e+02 8.570919e-27
5.230000e+02 1.040863e-26
5.240000e+02 1.259796e-26
5.250000e+02 1.523508e-26
5.260000e+02 1.841061e-26
5.270000e+02 2.223192e-26
5.280000e+02 2.682742e-26
5.290000e+02 3.226864e-26
5.300000e+02 3.898251e-26
5.310000e+02 4.694214e-26
5.320000e+02 5.648810e-26
5.330000e+02 6.792849e-26
5.340000e+02 8.162962e-26
5.350000e+02 9.802526e-26
5.360000e+02 1.176139e-25
5.370000e+02 1.002290e-25
5.380000e+02 1.690248e-25
5.390000e+02 2.025133e-25
5.400000e+02 2.424111e-25
5.410000e+02 2.895515e-25
5.420000e+02 3.465751e-25
5.430000e+02 4.140595e-25
5.440000e+02 4.943134e-25
5.450000e+02 5.897448e-25
5.460000e+02 7.015782e-25
5.470000e+02 8.378390e-25
5.480000e+02 9.976926e-25
5.490000e+02 1.187314e-24
5.500000e+02 1.412090e-24
5.510000e+02 1.678384e-24
5.520000e+02 1.993670e-24
5.530000e+02 2.366736e-24
5.540000e+02 2.807905e-24
5.550000e+02 3.329299e-24
5.560000e+02 3.945138e-24
5.570000e+02 4.672100e-24
5.580000e+02 5.529731e-24
5.590000e+02 6.540958e-24
5.600000e+02 7.732523e-24
5.610000e+02 9.135815e-24
5.620000e+02 1.078750e-23
5.630000e+02 1.273044e-23
5.640000e+02 1.501468e-23
5.650000e+02 1.769846e-23
5.660000e+02 2.085058e-23
5.670000e+02 2.454988e-23
5.680000e+02 2.888933e-23
5.690000e+02 3.397676e-23
5.700000e+02 3.993776e-23
5.710000e+02 4.691878e-23
5.720000e+02 5.508963e-23
5.730000e+02 6.464801e-23
5.740000e+02 7.582391e-23
5.750000e+02 8.892288e-23
5.760000e+02 1.039218e-22
5.770000e+02 1.219926e-22
5.780000e+02 1.427724e-22
5.790000e+02 1.670026e-22
5.800000e+02 1.952405e-22
5.810000e+02 2.281290e-22
5.820000e+02 2.664037e-22
5.830000e+02 3.108521e-22
5.840000e+02 3.597192e-22
5.850000e+02 4.222059e-22
5.860000e+02 4.929751e-22
5.870000e+02 5.743799e-22
5.880000e+02 6.687952e-22
5.890000e+02 7.782174e-22
5.900000e+02 9.052905e-22
5.910000e+02 1.052452e-21
5.920000e+02 1.222934e-21
5.930000e+02 1.420324e-21
5.940000e+02 1.648764e-21
5.950000e+02 1.913009e-21
5.960000e+02 2.218529e-21
5.970000e+02 2.571599e-21
5.980000e+02 2.979426e-21
5.990000e+02 3.450281e-21
6.000000e+02 3.993649e-21
6.010000e+02 4.617824e-21
6.020000e+02 5.342997e-21
6.030000e+02 6.175704e-21
6.040000e+02 7.134915e-21
6.050000e+02 8.239233e-21
6.060000e+02 9.510038e-21
6.070000e+02 1.097192e-20
6.080000e+02 1.265268e-20
6.090000e+02 1.458427e-20
6.100000e+02 1.680303e-20
6.110000e+02 1.935091e-20
6.120000e+02 2.227499e-20
6.130000e+02 2.562950e-20
6.140000e+02 2.947611e-20
6.150000e+02 3.388508e-20
6.160000e+02 3.893638e-20
6.170000e+02 4.472149e-20
6.180000e+02 5.134348e-20
6.190000e+02 5.892033e-20
6.200000e+02 6.758659e-20
6.210000e+02 7.749409e-20
6.220000e+02 8.881606e-20
6.230000e+02 1.017490e-19
6.240000e+02 1.165159e-19
6.250000e+02 1.333699e-19
6.260000e+02 1.525980e-19
6.270000e+02 1.745254e-19
6.280000e+02 1.995214e-19
6.290000e+02 2.280031e-19
6.300000e+02 2.604432e-19
6.310000e+02 2.928904e-19
6.320000e+02 3.394142e-19
6.330000e+02 3.870591e-19
6.340000e+02 4.416133e-19
6.350000e+02 5.032401e-19
6.360000e+02 5.736521e-19
6.370000e+02 6.534414e-19
6.380000e+02 7.440191e-19
6.390000e+02 8.468193e-19
6.400000e+02 9.634460e-19
6.410000e+02 1.095708e-18
6.420000e+02 1.245644e-18
6.430000e+02 1.415551e-18
6.440000e+02 1.608014e-18
6.450000e+02 1.825947e-18
6.460000e+02 2.072629e-18
6.470000e+02 2.351745e-18
6.480000e+02 2.667442e-18
6.490000e+02 3.024383e-18
6.500000e+02 3.427664e-18
6.510000e+02 3.883595e-18
6.520000e+02 4.398365e-18
6.530000e+02 4.979528e-18
6.540000e+02 5.635340e-18
6.550000e+02 6.375362e-18
6.560000e+02 7.209834e-18
6.570000e+02 8.148852e-18
6.580000e+02 9.210781e-18
6.590000e+02 1.040515e-17
6.600000e+02 1.174999e-17
6.610000e+02 1.326436e-17
6.620000e+02 1.496837e-17
6.630000e+02 1.688534e-17
6.640000e+02 1.904112e-17
6.650000e+02 2.146437e-17
6.660000e+02 2.418821e-17
6.670000e+02 2.724795e-17
6.680000e+02 3.068418e-17
6.690000e+02 3.454188e-17
6.700000e+02 3.887131e-17
6.710000e+02 4.372850e-17
6.720000e+02 4.917597e-17
6.730000e+02 5.528339e-17
6.740000e+02 6.212846e-17
6.750000e+02 6.979765e-17
6.760000e+02 7.838753e-17
6.770000e+02 8.800539e-17
6.780000e+02 9.877071e-17
6.790000e+02 1.108165e-16
6.800000e+02 1.242907e-16
6.810000e+02 1.393578e-16
6.820000e+02 1.562006e-16
6.830000e+02 1.750227e-16
6.840000e+02 1.960496e-16
6.850000e+02 2.195303e-16
6.860000e+02 2.457494e-16
6.870000e+02 2.750099e-16
6.880000e+02 3.076572e-16
6.890000e+02 3.440717e-16
6.900000e+02 3.846759e-16
6.910000e+02 4.299374e-16
6.920000e+02 4.803751e-16
6.930000e+02 5.365628e-16
6.940000e+02 5.991387e-16
6.950000e+02 6.688072e-16
6.960000e+02 7.463485e-16
6.970000e+02 8.325349e-16
6.980000e+02 9.285964e-16
6.990000e+02 1.035315e-15
7.000000e+02 1.153952e-15
7.010000e+02 1.285798e-15
7.020000e+02 1.432280e-15
7.030000e+02 1.594977e-15
7.040000e+02 1.775630e-15
7.050000e+02 1.976161e-15
7.060000e+02 2.198689e-15
7.070000e+02 2.445572e-15
7.080000e+02 2.719379e-15
7.090000e+02 3.022906e-15
7.100000e+02 3.359466e-15
7.110000e+02 3.732360e-15
7.120000e+02 4.145456e-15
7.130000e+02 4.602961e-15
7.140000e+02 5.109506e-15
7.150000e+02 5.670185e-15
7.160000e+02 6.290629e-15
7.170000e+02 6.976835e-15
7.180000e+02 7.735364e-15
7.190000e+02 8.575406e-15
7.200000e+02 9.503148e-15
7.210000e+02 1.052835e-14
7.220000e+02 1.166094e-14
7.230000e+02 1.291183e-14
7.240000e+02 1.429301e-14
7.250000e+02 1.581763e-14
7.260000e+02 1.750010e-14
7.270000e+02 1.935636e-14
7.280000e+02 2.140376e-14
7.290000e+02 2.366139e-14
7.300000e+02 2.615017e-14
7.310000e+02 2.889306e-14
7.320000e+02 3.191521e-14
7.330000e+02 3.524418e-14
7.340000e+02 3.891017e-14
7.350000e+02 4.294625e-14
7.360000e+02 4.738774e-14
7.370000e+02 5.227702e-14
7.380000e+02 5.765476e-14
7.390000e+02 6.356933e-14
7.400000e+02 7.007153e-14
7.410000e+02 7.722163e-14
7.420000e+02 8.507694e-14
7.430000e+02 9.371041e-14
7.440000e+02 1.031924e-13
7.450000e+02 1.136053e-13
7.460000e+02 1.250375e-13
7.470000e+02 1.375859e-13
7.480000e+02 1.513559e-13
7.490000e+02 1.664628e-13
7.500000e+02 1.830324e-13
7.510000e+02 2.012019e-13
7.520000e+02 2.211209e-13
7.530000e+02 2.429525e-13
7.540000e+02 2.668747e-13
7.550000e+02 2.930814e-13
7.560000e+02 3.217839e-13
7.570000e+02 3.531747e-13
7.580000e+02 3.876177e-13
7.590000e+02 4.252606e-13
7.600000e+02 4.664733e-13
7.610000e+02 5.115471e-13
7.620000e+02 5.608450e-13
7.630000e+02 6.147468e-13
7.640000e+02 6.736713e-13
7.650000e+02 7.380697e-13
7.660000e+02 8.084400e-13
7.670000e+02 8.853120e-13
7.680000e+02 9.692281e-13
7.690000e+02 1.056162e-12
7.700000e+02 1.161031e-12
7.710000e+02 1.270266e-12
7.720000e+02 1.389462e-12
7.730000e+02 1.519496e-12
7.740000e+02 1.661324e-12
7.750000e+02 1.815982e-12
7.760000e+02 1.983422e-12
7.770000e+02 2.168374e-12
7.780000e+02 2.368651e-12
7.790000e+02 2.586849e-12
7.800000e+02 2.824523e-12
7.810000e+02 3.083359e-12
7.820000e+02 3.365173e-12
7.830000e+02 3.671943e-12
7.840000e+02 4.005806e-12
7.850000e+02 4.369077e-12
7.860000e+02 4.764248e-12
7.870000e+02 5.194332e-12
7.880000e+02 5.661725e-12
7.890000e+02 6.169854e-12
7.900000e+02 6.722155e-12
7.910000e+02 7.322341e-12
7.920000e+02 7.974428e-12
7.930000e+02 8.682755e-12
7.940000e+02 9.452009e-12
7.950000e+02 1.028726e-11
7.960000e+02 1.119400e-11
7.970000e+02 1.217812e-11
7.980000e+02 1.324601e-11
7.990000e+02 1.440457e-11
8.000000e+02 1.566125e-11
8.010000e+02 1.702398e-11
8.020000e+02 1.850171e-11
8.030000e+02 2.010351e-11
8.040000e+02 2.183956e-11
8.050000e+02 2.372073e-11
8.060000e+02 2.575875e-11
8.070000e+02 2.796627e-11
8.080000e+02 3.035689e-11
8.090000e+02 3.294531e-11
8.100000e+02 3.574733e-11
8.110000e+02 3.877999e-11
8.120000e+02 4.206163e-11
8.130000e+02 4.561201e-11
8.140000e+02 4.945238e-11
8.150000e+02 5.360555e-11
8.160000e+02 5.809639e-11
8.170000e+02 6.295114e-11
8.180000e+02 6.819844e-11
8.190000e+02 7.386888e-11
8.200000e+02 7.999545e-11
8.210000e+02 8.661358e-11
8.220000e+02 9.376137e-11
8.230000e+02 1.014798e-10
8.240000e+02 1.098128e-10
8.250000e+02 1.188077e-10
8.260000e+02 1.285151e-10
8.270000e+02 1.389897e-10
8.280000e+02 1.502900e-10
8.290000e+02 1.624788e-10
8.300000e+02 1.756235e-10
8.310000e+02 1.897966e-10
8.320000e+02 2.050757e-10
8.330000e+02 2.215441e-10
8.340000e+02 2.392913e-10
8.350000e+02 2.580117e-10
8.360000e+02 2.790014e-10
8.370000e+02 3.011985e-10
8.380000e+02 3.250813e-10
8.390000e+02 3.508146e-10
8.400000e+02 3.785063e-10
8.410000e+02 4.083109e-10
8.420000e+02 4.403422e-10
8.430000e+02 4.748922e-10
8.440000e+02 5.120138e-10
8.450000e+02 5.519398e-10
8.460000e+02 5.948746e-10
8.470000e+02 6.410369e-10
8.480000e+02 6.906610e-10
8.490000e+02 7.439970e-10
8.500000e+02 8.013129e-10
8.510000e+02 8.628951e-10
8.520000e+02 9.290438e-10
8.530000e+02 1.000105e-09
8.540000e+02 1.076444e-09
8.550000e+02 1.158376e-09
8.560000e+02 1.246331e-09
8.570000e+02 1.340738e-09
8.580000e+02 1.438102e-09
8.590000e+02 1.550762e-09
8.600000e+02 1.667387e-09
8.610000e+02 1.791529e-09
8.620000e+02 1.926642e-09
8.630000e+02 2.070491e-09
8.640000e+02 2.224726e-09
8.650000e+02 2.389993e-09
8.660000e+02 2.567236e-09
8.670000e+02 2.757105e-09
8.680000e+02 2.960533e-09
8.690000e+02 3.178452e-09
8.700000e+02 3.411852e-09
8.710000e+02 3.661810e-09
8.720000e+02 3.929439e-09
8.730000e+02 4.215951e-09
8.740000e+02 4.522628e-09
8.750000e+02 4.850838e-09
8.760000e+02 5.202036e-09
8.770000e+02 5.577733e-09
8.780000e+02 5.979699e-09
8.790000e+02 6.409593e-09
8.800000e+02 6.869298e-09
8.810000e+02 7.360823e-09
8.820000e+02 7.886289e-09
8.830000e+02 8.447944e-09
8.840000e+02 9.048192e-09
8.850000e+02 9.689601e-09
8.860000e+02 1.037487e-08
8.870000e+02 1.110689e-08
8.880000e+02 1.188874e-08
8.890000e+02 1.272368e-08
8.900000e+02 1.361519e-08
8.910000e+02 1.456695e-08
8.920000e+02 1.555802e-08
8.930000e+02 1.666714e-08
8.940000e+02 1.782417e-08
8.950000e+02 1.905866e-08
8.960000e+02 2.037561e-08
8.970000e+02 2.178030e-08
8.980000e+02 2.327838e-08
8.990000e+02 2.487582e-08
9.000000e+02 2.657894e-08
9.010000e+02 2.839450e-08
9.020000e+02 3.032960e-08
9.030000e+02 3.239150e-08
9.040000e+02 3.458929e-08
9.050000e+02 3.692921e-08
9.060000e+02 3.942439e-08
9.070000e+02 4.207909e-08
9.080000e+02 4.490935e-08
9.090000e+02 4.792135e-08
9.100000e+02 5.112805e-08
9.110000e+02 5.454264e-08
9.120000e+02 5.818917e-08
9.130000e+02 5.582265e-08
9.140000e+02 2.235174e-07
9.150000e+02 7.816740e-02
9.160000e+02 1.573384e-01
9.170000e+02 4.140148e-02
9.180000e+02 1.607031e-01
9.190000e+02 1.942547e-01
9.200000e+02 2.050668e-01
9.210000e+02 9.503674e-08
9.220000e+02 2.067721e-01
9.230000e+02 7.415065e-02
9.240000e+02 7.608168e-02
9.250000e+02 1.603187e-01
9.260000e+02 2.472585e-01
9.270000e+02 4.921901e-02
9.280000e+02 2.839498e-01
9.290000e+02 2.961610e-01
9.300000e+02 2.970838e-01
9.310000e+02 5.736439e-02
9.320000e+02 3.341554e-01
9.330000e+02 3.475819e-01
9.340000e+02 2.725323e-01
9.350000e+02 8.731754e-05
9.360000e+02 6.645807e-02
9.370000e+02 2.951466e-05
9.380000e+02 1.936336e-02
9.390000e+02 1.422342e-01
9.400000e+02 4.514644e-01
9.410000e+02 1.991774e-03
9.420000e+02 4.749756e-01
9.430000e+02 1.940355e-01
9.440000e+02 3.379432e-01
9.450000e+02 5.470003e-01
9.460000e+02 5.191422e-01
9.470000e+02 5.206645e-03
9.480000e+02 2.140864e-01
9.490000e+02 5.991691e-01
9.500000e+02 8.763373e-05
9.510000e+02 5.843753e-01
9.520000e+02 6.606823e-01
9.530000e+02 3.247872e-02
9.540000e+02 5.279068e-03
9.550000e+02 4.256294e-01
9.560000e+02 2.996855e-01
9.570000e+02 1.822466e-02
9.580000e+02 9.330511e-04
9.590000e+02 9.753799e-01
9.600000e+02 1.039505e-04
9.610000e+02 9.109160e-01
9.620000e+02 7.441493e-01
9.630000e+02 4.421434e-01
9.640000e+02 1.376867e-05
9.650000e+02 1.379371e-02
9.660000e+02 5.791278e-01
9.670000e+02 1.195883e-01
9.680000e+02 4.989421e-02
9.690000e+02 1.135838e+00
9.700000e+02 1.082972e+00
9.710000e+02 1.357102e-01
9.720000e+02 1.034219e-01
9.730000e+02 7.845138e-01
9.740000e+02 1.256888e+00
9.750000e+02 8.105057e-01
9.760000e+02 1.824284e+00
9.770000e+02 1.823692e+00
9.780000e+02 1.541347e+00
9.790000e+02 2.149179e+00
9.800000e+02 2.230641e+00
9.810000e+02 1.707731e+00
9.820000e+02 6.751562e-01
9.830000e+02 2.490683e+00
9.840000e+02 2.546735e-02
9.850000e+02 1.403394e+00
9.860000e+02 1.486329e+00
9.870000e+02 2.930202e+00
9.880000e+02 2.310967e-02
9.890000e+02 2.067083e+00
9.900000e+02 2.174683e-03
9.910000e+02 2.528668e-01
9.920000e+02 3.025800e-03
9.930000e+02 2.518196e+00
9.940000e+02 9.584427e-05
9.950000e+02 3.865711e-02
9.960000e+02 9.716415e-02
9.970000e+02 2.015740e-03
9.980000e+02 3.900324e+00
9.990000e+02 1.771645e-01
1.000000e+03 4.061777e+00
1.001000e+03 5.232551e+00
1.002000e+03 5.405482e+00
1.003000e+03 1.126765e+00
1.004000e+03 3.913784e-02
1.005000e+03 2.413919e+00
1.006000e+03 6.281880e+00
1.007000e+03 6.585842e+00
1.008000e+03 6.536935e+00
1.009000e+03 1.538948e+00
1.010000e+03 7.119608e+00
1.011000e+03 7.639459e+00
1.012000e+03 7.697963e+00
1.013000e+03 7.899540e+00
1.014000e+03 7.013321e-03
1.015000e+03 4.143620e-02
1.016000e+03 2.503861e+00
1.017000e+03 6.212234e-03
1.018000e+03 1.831366e+00
1.019000e+03 4.151630e-02
1.020000e+03 1.034188e+01
1.021000e+03 1.062927e-01
1.022000e+03 1.400690e+00
1.023000e+03 9.707451e-02
1.024000e+03 6.004696e+00
1.025000e+03 5.452767e-03
1.026000e+03 2.881721e-02
1.027000e+03 3.940036e+00
1.028000e+03 2.520561e-03
1.029000e+03 1.197338e-02
1.030000e+03 9.536022e+00
1.031000e+03 9.311296e+00
1.032000e+03 1.083206e+01
1.033000e+03 3.202534e-02
1.034000e+03 1.246436e+01
1.035000e+03 1.394272e-03
1.036000e+03 2.373695e-02
1.037000e+03 1.897592e+01
1.038000e+03 2.073622e+01
1.039000e+03 1.985629e+01
1.040000e+03 2.195879e+01
1.041000e+03 2.174232e+01
1.042000e+03 2.397217e+01
1.043000e+03 1.586530e+01
1.044000e+03 2.619889e+01
1.045000e+03 2.539360e+01
1.046000e+03 2.671752e+01
1.047000e+03 2.071802e+01
1.048000e+03 8.708305e-01
1.049000e+03 2.276660e+01
1.050000e+03 1.702279e+01
1.051000e+03 1.086143e+01
1.052000e+03 3.389974e+01
1.053000e+03 3.579043e+01
1.054000e+03 3.437042e-02
1.055000e+03 3.764278e+01
1.056000e+03 3.982967e+01
1.057000e+03 3.426481e+01
1.058000e+03 1.579307e+01
1.059000e+03 6.555912e+00
1.060000e+03 1.210205e+00
1.061000e+03 4.245396e+01
1.062000e+03 8.328341e+00
1.063000e+03 1.061893e-01
1.064000e+03 3.074646e-03
1.065000e+03 6.001282e-02
1.066000e+03 1.405236e+01
1.067000e+03 3.814007e+00
1.068000e+03 6.090534e+01
1.069000e+03 6.113921e-01
1.070000e+03 4.878319e+01
1.071000e+03 6.670853e+01
1.072000e+03 6.936722e+01
1.073000e+03 1.478806e-01
1.074000e+03 5.468734e+01
1.075000e+03 4.642339e+01
1.076000e+03 7.927721e+01
1.077000e+03 1.068039e-01
1.078000e+03 1.804887e+01
1.079000e+03 5.194418e+01
1.080000e+03 6.251379e+01
1.081000e+03 8.814632e+01
1.082000e+03 8.618298e+01
1.083000e+03 7.962113e+01
1.084000e+03 9.922854e+01
1.085000e+03 2.233017e+01
1.086000e+03 1.100387e+02
1.087000e+03 9.566483e+00
1.088000e+03 1.156628e+02
1.089000e+03 1.199185e+02
1.090000e+03 4.449898e+01
1.091000e+03 5.164552e+01
1.092000e+03 1.261777e+02
1.093000e+03 1.346675e+02
1.094000e+03 1.232618e+02
1.095000e+03 1.435587e+02
1.096000e+03 6.424675e+00
1.097000e+03 1.412390e+02
1.098000e+03 1.550721e+02
1.099000e+03 1.037146e+02
1.100000e+03 2.048817e+00
1.101000e+03 7.391182e+00
1.102000e+03 8.058038e+01
1.103000e+03 2.569418e+02
1.104000e+03 2.276788e+02
1.105000e+03 1.865555e+02
1.106000e+03 2.160318e+02
1.107000e+03 2.360748e+00
1.108000e+03 2.935770e+02
1.109000e+03 4.684088e+01
1.110000e+03 2.015476e+02
1.111000e+03 2.585036e+02
1.112000e+03 2.891999e+02
1.113000e+03 2.783666e+02
1.114000e+03 1.638150e+02
1.115000e+03 6.981987e+01
1.116000e+03 3.950692e+01
1.117000e+03 1.995667e+02
1.118000e+03 6.930978e+01
1.119000e+03 3.389774e+02
1.120000e+03 4.237918e+01
1.121000e+03 3.779078e+02
1.122000e+03 1.098480e+01
1.123000e+03 3.233643e+02
1.124000e+03 4.083201e+02
1.125000e+03 3.455008e+02
1.126000e+03 4.307620e+02
1.127000e+03 4.239345e+02
1.128000e+03 2.546657e+02
1.129000e+03 4.182448e+02
1.130000e+03 4.519740e+02
1.131000e+03 4.228355e+02
1.132000e+03 1.312186e+01
1.133000e+03 1.973770e+02
1.134000e+03 4.524368e+02
1.135000e+03 4.020691e+00
1.136000e+03 3.280423e+02
1.137000e+03 5.181041e+02
1.138000e+03 4.777052e+02
1.139000e+03 5.419776e+02
1.140000e+03 1.259722e+02
1.141000e+03 5.605182e+02
1.142000e+03 5.661594e+02
1.143000e+03 5.103217e+02
1.144000e+03 5.713627e+02
1.145000e+03 1.809961e+01
1.146000e+03 6.163839e+02
1.147000e+03 6.209221e+02
1.148000e+03 1.707306e+02
1.149000e+03 6.278433e+02
1.150000e+03 6.368809e+02
1.151000e+03 6.712025e+02
1.152000e+03 6.824059e+02
1.153000e+03 5.125400e+02
1.154000e+03 6.925435e+02
1.155000e+03 6.998164e+02
1.156000e+03 6.968458e+02
1.157000e+03 7.074423e+02
1.158000e+03 3.095839e+02
1.159000e+03 7.619293e+02
1.160000e+03 7.238277e+02
1.161000e+03 7.946173e+02
1.162000e+03 3.270351e+02
1.163000e+03 6.473874e+02
1.164000e+03 6.341553e-01
1.165000e+03 8.454741e+02
1.166000e+03 8.523138e+02
1.167000e+03 8.711492e+02
1.168000e+03 9.100696e+02
1.169000e+03 9.048169e+02
1.170000e+03 9.081942e+02
1.171000e+03 9.567905e+02
1.172000e+03 9.271980e+02
1.173000e+03 1.005353e+03
1.174000e+03 1.182558e+02
1.175000e+03 6.400757e-01
1.176000e+03 2.488403e-01
1.177000e+03 1.092543e+03
1.178000e+03 1.109348e+03
1.179000e+03 1.129703e+03
1.180000e+03 1.004165e+03
1.181000e+03 1.163815e+03
1.182000e+03 1.186839e+03
1.183000e+03 1.188395e+03
1.184000e+03 1.204713e+03
1.185000e+03 1.246902e+03
1.186000e+03 5.723619e+02
1.187000e+03 1.283618e+03
1.188000e+03 1.186639e+03
1.189000e+03 3.699779e+02
1.190000e+03 1.259102e+03
1.191000e+03 1.371618e+03
1.192000e+03 1.385560e+03
1.193000e+03 5.764282e+01
1.194000e+03 4.558917e+02
1.195000e+03 1.386157e+03
1.196000e+03 1.438722e+03
1.197000e+03 2.426188e+03
1.198000e+03 1.414340e+03
1.199000e+03 2.339166e+03
1.200000e+03 1.681005e+03
1.201000e+03 2.200895e+03
1.202000e+03 2.077571e+03
1.203000e+03 2.805600e+03
1.204000e+03 1.861269e+03
1.205000e+03 2.358129e+03
1.206000e+03 2.279054e+03
1.207000e+03 9.631067e+01
1.208000e+03 1.542331e+03
1.209000e+03 1.081230e+03
1.210000e+03 1.092957e+00
1.211000e+03 4.622504e+02
1.212000e+03 2.139431e+02
1.213000e+03 8.057880e+01
1.214000e+03 1.904963e+01
1.215000e+03 2.229606e+00
1.216000e+03 7.264630e-01
1.217000e+03 1.090848e+01
1.218000e+03 5.978215e+01
1.219000e+03 1.874457e+02
1.220000e+03 4.193108e+02
1.221000e+03 8.097377e+02
1.222000e+03 1.358757e+03
1.223000e+03 1.896737e+03
1.224000e+03 2.200546e+03
1.225000e+03 1.593705e+03
1.226000e+03 3.718898e+03
1.227000e+03 4.252960e+03
1.228000e+03 4.193896e+03
1.229000e+03 5.314419e+03
1.230000e+03 4.562544e+03
1.231000e+03 3.960324e+03
1.232000e+03 6.614010e+03
1.233000e+03 7.105026e+03
1.234000e+03 4.402032e+03
1.235000e+03 7.828998e+03
1.236000e+03 6.883575e+03
1.237000e+03 8.500838e+03
1.238000e+03 8.803823e+03
1.239000e+03 8.936545e+03
1.240000e+03 1.453251e+03
1.241000e+03 8.885380e+03
1.242000e+03 9.881408e+03
1.243000e+03 1.021065e+04
1.244000e+03 1.025285e+04
1.245000e+03 1.073890e+04
1.246000e+03 1.092686e+04
1.247000e+03 1.116199e+04
1.248000e+03 6.543193e+03
1.249000e+03 1.183592e+04
1.250000e+03 9.122969e+03
1.251000e+03 1.250997e+04
1.252000e+03 1.212179e+04
1.253000e+03 1.305887e+04
1.254000e+03 1.304851e+04
1.255000e+03 1.041130e+04
1.256000e+03 1.360640e+04
1.257000e+03 1.043627e+04
1.258000e+03 1.353570e+04
1.259000e+03 1.471936e+04
1.260000e+03 1.508741e+04
1.261000e+03 2.557617e+02
1.262000e+03 1.528179e+04
1.263000e+03 1.437184e+04
1.264000e+03 1.610503e+04
1.265000e+03 1.103809e+01
1.266000e+03 1.717208e+04
1.267000e+03 1.716590e+04
