# wavelength_A flux
5.000000e+02 5.538136e-15
5.010000e+02 6.478149e-15
5.020000e+02 7.572837e-15
5.030000e+02 8.846844e-15
5.040000e+02 1.032862e-14
5.050000e+02 1.231651e-14
5.060000e+02 1.435915e-14
5.070000e+02 1.673013e-14
5.080000e+02 1.948052e-14
5.090000e+02 2.266921e-14
5.100000e+02 2.636354e-14
5.110000e+02 3.064137e-14
5.120000e+02 3.559173e-14
5.130000e+02 4.131701e-14
5.140000e+02 4.793460e-14
5.150000e+02 5.557848e-14
5.160000e+02 6.440456e-14
5.170000e+02 7.458501e-14
5.180000e+02 8.633037e-14
5.190000e+02 9.986381e-14
5.200000e+02 1.154521e-13
5.210000e+02 1.333969e-13
5.220000e+02 1.540280e-13
5.230000e+02 1.777835e-13
5.240000e+02 2.050680e-13
5.250000e+02 2.364081e-13
5.260000e+02 2.723847e-13
5.270000e+02 3.136622e-13
5.280000e+02 3.609959e-13
5.290000e+02 4.151545e-13
5.300000e+02 4.773863e-13
5.310000e+02 5.485298e-13
5.320000e+02 6.299375e-13
5.330000e+02 7.230381e-13
5.340000e+02 8.294563e-13
5.350000e+02 9.510329e-13
5.360000e+02 1.089849e-12
5.370000e+02 1.234679e-12
5.380000e+02 1.428988e-12
5.390000e+02 1.635039e-12
5.400000e+02 1.869842e-12
5.410000e+02 2.137099e-12
5.420000e+02 2.441634e-12
5.430000e+02 2.788000e-12
5.440000e+02 3.181875e-12
5.450000e+02 3.629577e-12
5.460000e+02 4.137548e-12
5.470000e+02 4.715791e-12
5.480000e+02 5.371329e-12
5.490000e+02 6.115018e-12
5.500000e+02 6.958272e-12
5.510000e+02 7.913983e-12
5.520000e+02 8.996623e-12
5.530000e+02 1.022247e-11
5.540000e+02 1.160982e-11
5.550000e+02 1.317921e-11
5.560000e+02 1.495369e-11
5.570000e+02 1.695915e-11
5.580000e+02 1.922461e-11
5.590000e+02 2.178259e-11
5.600000e+02 2.466955e-11
5.610000e+02 2.792633e-11
5.620000e+02 3.159865e-11
5.630000e+02 3.573766e-11
5.640000e+02 4.040060e-11
5.650000e+02 4.565138e-11
5.660000e+02 5.156174e-11
5.670000e+02 5.821133e-11
5.680000e+02 6.568952e-11
5.690000e+02 7.409582e-11
5.700000e+02 8.354129e-11
5.710000e+02 9.415008e-11
5.720000e+02 1.060601e-10
5.730000e+02 1.194254e-10
5.740000e+02 1.344174e-10
5.750000e+02 1.512292e-10
5.760000e+02 1.700515e-10
5.770000e+02 1.911760e-10
5.780000e+02 2.148121e-10
5.790000e+02 2.412699e-10
5.800000e+02 2.708742e-10
5.810000e+02 3.039854e-10
5.820000e+02 3.410036e-10
5.830000e+02 3.823705e-10
5.840000e+02 4.284817e-10
5.850000e+02 4.801710e-10
5.860000e+02 5.378038e-10
5.870000e+02 6.020840e-10
5.880000e+02 6.737768e-10
5.890000e+02 7.536970e-10
5.900000e+02 8.427876e-10
5.910000e+02 9.420263e-10
5.920000e+02 1.052543e-09
5.930000e+02 1.175568e-09
5.940000e+02 1.312466e-09
5.950000e+02 1.464739e-09
5.960000e+02 1.634069e-09
5.970000e+02 1.822274e-09
5.980000e+02 2.031389e-09
5.990000e+02 2.263649e-09
6.000000e+02 2.521522e-09
6.010000e+02 2.807453e-09
6.020000e+02 3.125261e-09
6.030000e+02 3.477422e-09
6.040000e+02 3.867853e-09
6.050000e+02 4.300549e-09
6.060000e+02 4.779911e-09
6.070000e+02 5.310798e-09
6.080000e+02 5.898525e-09
6.090000e+02 6.548953e-09
6.100000e+02 7.268510e-09
6.110000e+02 8.064290e-09
6.120000e+02 8.944035e-09
6.130000e+02 9.916278e-09
6.140000e+02 1.099037e-08
6.150000e+02 1.217659e-08
6.160000e+02 1.348618e-08
6.170000e+02 1.493148e-08
6.180000e+02 1.652603e-08
6.190000e+02 1.828464e-08
6.200000e+02 2.022355e-08
6.210000e+02 2.236052e-08
6.220000e+02 2.471502e-08
6.230000e+02 2.730833e-08
6.240000e+02 3.016374e-08
6.250000e+02 3.330671e-08
6.260000e+02 3.676508e-08
6.270000e+02 4.056928e-08
6.280000e+02 4.475254e-08
6.290000e+02 4.935115e-08
6.300000e+02 5.440475e-08
6.310000e+02 5.994816e-08
6.320000e+02 6.605394e-08
6.330000e+02 7.274764e-08
6.340000e+02 8.009556e-08
6.350000e+02 8.815694e-08
6.360000e+02 9.698574e-08
6.370000e+02 1.066963e-07
6.380000e+02 1.173256e-07
6.390000e+02 1.289739e-07
6.400000e+02 1.417351e-07
6.410000e+02 1.557113e-07
6.420000e+02 1.710137e-07
6.430000e+02 1.877629e-07
6.440000e+02 2.060904e-07
6.450000e+02 2.261389e-07
6.460000e+02 2.480637e-07
6.470000e+02 2.720332e-07
6.480000e+02 2.982306e-07
6.490000e+02 3.268545e-07
6.500000e+02 3.581204e-07
6.510000e+02 3.922631e-07
6.520000e+02 4.295359e-07
6.530000e+02 4.702144e-07
6.540000e+02 5.145970e-07
6.550000e+02 5.630077e-07
6.560000e+02 6.157970e-07
6.570000e+02 6.733342e-07
6.580000e+02 7.360625e-07
6.590000e+02 8.043958e-07
6.600000e+02 8.788249e-07
6.610000e+02 9.598775e-07
6.620000e+02 1.048112e-06
6.630000e+02 1.144142e-06
6.640000e+02 1.248627e-06
6.650000e+02 1.362279e-06
6.660000e+02 1.485876e-06
6.670000e+02 1.620244e-06
6.680000e+02 1.766287e-06
6.690000e+02 1.924977e-06
6.700000e+02 2.097362e-06
6.710000e+02 2.284577e-06
6.720000e+02 2.487844e-06
6.730000e+02 2.708482e-06
6.740000e+02 2.947912e-06
6.750000e+02 3.207670e-06
6.760000e+02 3.489409e-06
6.770000e+02 3.794909e-06
6.780000e+02 4.126093e-06
6.790000e+02 4.485026e-06
6.800000e+02 4.873938e-06
6.810000e+02 5.295226e-06
6.820000e+02 5.751471e-06
6.830000e+02 6.245452e-06
6.840000e+02 6.780156e-06
6.850000e+02 7.358783e-06
6.860000e+02 7.984838e-06
6.870000e+02 8.661976e-06
6.880000e+02 9.394248e-06
6.890000e+02 1.018591e-05
6.900000e+02 1.104158e-05
6.910000e+02 1.196622e-05
6.920000e+02 1.296515e-05
6.930000e+02 1.404408e-05
6.940000e+02 1.520914e-05
6.950000e+02 1.646691e-05
6.960000e+02 1.782445e-05
6.970000e+02 1.928916e-05
6.980000e+02 2.086967e-05
6.990000e+02 2.257418e-05
7.000000e+02 2.441218e-05
7.010000e+02 2.639369e-05
7.020000e+02 2.852941e-05
7.030000e+02 3.083083e-05
7.040000e+02 3.331023e-05
7.050000e+02 3.598079e-05
7.060000e+02 3.885656e-05
7.070000e+02 4.195270e-05
7.080000e+02 4.528527e-05
7.090000e+02 4.887143e-05
7.100000e+02 5.273006e-05
7.110000e+02 5.688048e-05
7.120000e+02 6.134395e-05
7.130000e+02 6.614303e-05
7.140000e+02 7.130185e-05
7.150000e+02 7.684613e-05
7.160000e+02 8.280347e-05
7.170000e+02 8.920301e-05
7.180000e+02 9.607598e-05
7.190000e+02 1.034576e-04
7.200000e+02 1.113816e-04
7.210000e+02 1.198868e-04
7.220000e+02 1.290140e-04
7.230000e+02 1.388066e-04
7.240000e+02 1.493109e-04
7.250000e+02 1.605764e-04
7.260000e+02 1.726557e-04
7.270000e+02 1.856050e-04
7.280000e+02 1.994840e-04
7.290000e+02 2.143564e-04
7.300000e+02 2.302903e-04
7.310000e+02 2.473578e-04
7.320000e+02 2.656360e-04
7.330000e+02 2.852067e-04
7.340000e+02 3.061573e-04
7.350000e+02 3.285806e-04
7.360000e+02 3.525751e-04
7.370000e+02 3.782465e-04
7.380000e+02 4.057060e-04
7.390000e+02 4.350726e-04
7.400000e+02 4.664717e-04
7.410000e+02 5.000406e-04
7.420000e+02 5.359178e-04
7.430000e+02 5.742594e-04
7.440000e+02 6.152233e-04
7.450000e+02 6.589816e-04
7.460000e+02 7.057161e-04
7.470000e+02 7.556199e-04
7.480000e+02 8.088978e-04
7.490000e+02 8.657673e-04
7.500000e+02 9.264592e-04
7.510000e+02 9.912184e-04
7.520000e+02 1.060305e-03
7.530000e+02 1.133994e-03
7.540000e+02 1.212577e-03
7.550000e+02 1.296365e-03
7.560000e+02 1.385687e-03
7.570000e+02 1.480869e-03
7.580000e+02 1.582342e-03
7.590000e+02 1.690431e-03
7.600000e+02 1.805584e-03
7.610000e+02 1.928227e-03
7.620000e+02 2.058828e-03
7.630000e+02 2.197879e-03
7.640000e+02 2.345900e-03
7.650000e+02 2.503441e-03
7.660000e+02 2.671089e-03
7.670000e+02 2.849458e-03
7.680000e+02 3.039191e-03
7.690000e+02 3.241010e-03
7.700000e+02 3.455614e-03
7.710000e+02 3.683784e-03
7.720000e+02 3.926339e-03
7.730000e+02 4.184140e-03
7.740000e+02 4.458099e-03
7.750000e+02 4.749181e-03
7.760000e+02 5.058069e-03
7.770000e+02 5.386840e-03
7.780000e+02 5.735630e-03
7.790000e+02 6.105970e-03
7.800000e+02 6.499129e-03
7.810000e+02 6.916443e-03
7.820000e+02 7.359323e-03
7.830000e+02 7.829257e-03
7.840000e+02 8.327822e-03
7.850000e+02 8.856671e-03
7.860000e+02 9.417550e-03
7.870000e+02 1.001233e-02
7.880000e+02 1.064292e-02
7.890000e+02 1.131138e-02
7.900000e+02 1.201989e-02
7.910000e+02 1.277071e-02
7.920000e+02 1.356625e-02
7.930000e+02 1.440904e-02
7.940000e+02 1.530174e-02
7.950000e+02 1.624718e-02
7.960000e+02 1.724829e-02
7.970000e+02 1.830821e-02
7.980000e+02 1.943020e-02
7.990000e+02 2.061773e-02
8.000000e+02 2.187443e-02
8.010000e+02 2.320410e-02
8.020000e+02 2.461084e-02
8.030000e+02 2.609881e-02
8.040000e+02 2.767250e-02
8.050000e+02 2.933659e-02
8.060000e+02 3.109601e-02
8.070000e+02 3.295595e-02
8.080000e+02 3.492185e-02
8.090000e+02 3.699945e-02
8.100000e+02 3.919477e-02
8.110000e+02 4.151415e-02
8.120000e+02 4.396421e-02
8.130000e+02 4.655198e-02
8.140000e+02 4.928476e-02
8.150000e+02 5.217028e-02
8.160000e+02 5.521666e-02
8.170000e+02 5.843237e-02
8.180000e+02 6.182636e-02
8.190000e+02 6.540798e-02
8.200000e+02 6.918710e-02
8.210000e+02 7.317401e-02
8.220000e+02 7.737957e-02
8.230000e+02 8.181513e-02
8.240000e+02 8.649264e-02
8.250000e+02 9.142458e-02
8.260000e+02 9.662410e-02
8.270000e+02 1.021049e-01
8.280000e+02 1.078815e-01
8.290000e+02 1.139690e-01
8.300000e+02 1.203832e-01
8.310000e+02 1.271407e-01
8.320000e+02 1.342590e-01
8.330000e+02 1.417562e-01
8.340000e+02 1.496516e-01
8.350000e+02 1.579587e-01
8.360000e+02 1.667174e-01
8.370000e+02 1.759315e-01
8.380000e+02 1.856284e-01
8.390000e+02 1.958352e-01
8.400000e+02 2.065746e-01
8.410000e+02 2.178737e-01
8.420000e+02 2.297583e-01
8.430000e+02 2.422630e-01
8.440000e+02 2.554123e-01
8.450000e+02 2.692399e-01
8.460000e+02 2.837787e-01
8.470000e+02 2.990634e-01
8.480000e+02 3.151303e-01
8.490000e+02 3.320172e-01
8.500000e+02 3.497637e-01
8.510000e+02 3.684111e-01
8.520000e+02 3.880025e-01
8.530000e+02 4.085841e-01
8.540000e+02 4.302029e-01
8.550000e+02 4.529071e-01
8.560000e+02 4.767490e-01
8.570000e+02 5.017826e-01
8.580000e+02 5.280642e-01
8.590000e+02 5.556527e-01
8.600000e+02 5.846094e-01
8.610000e+02 6.149985e-01
8.620000e+02 6.468869e-01
8.630000e+02 6.803443e-01
8.640000e+02 7.154447e-01
8.650000e+02 7.522624e-01
8.660000e+02 7.908797e-01
8.670000e+02 8.313771e-01
8.680000e+02 8.738419e-01
8.690000e+02 9.183646e-01
8.700000e+02 9.650393e-01
8.710000e+02 1.013964e+00
8.720000e+02 1.065242e+00
8.730000e+02 1.118979e+00
8.740000e+02 1.175287e+00
8.750000e+02 1.234282e+00
8.760000e+02 1.296085e+00
8.770000e+02 1.360821e+00
8.780000e+02 1.428626e+00
8.790000e+02 1.499633e+00
8.800000e+02 1.573985e+00
8.810000e+02 1.651832e+00
8.820000e+02 1.733328e+00
8.830000e+02 1.818635e+00
8.840000e+02 1.907922e+00
8.850000e+02 2.001362e+00
8.860000e+02 2.099140e+00
8.870000e+02 2.201444e+00
8.880000e+02 2.308472e+00
8.890000e+02 2.420430e+00
8.900000e+02 2.537532e+00
8.910000e+02 2.660001e+00
8.920000e+02 2.786692e+00
8.930000e+02 2.921977e+00
8.940000e+02 3.061977e+00
8.950000e+02 3.208328e+00
8.960000e+02 3.361306e+00
8.970000e+02 3.521189e+00
8.980000e+02 3.688274e+00
8.990000e+02 3.862865e+00
9.000000e+02 4.045280e+00
9.010000e+02 4.235851e+00
9.020000e+02 4.434919e+00
9.030000e+02 4.642843e+00
9.040000e+02 4.859991e+00
9.050000e+02 5.086752e+00
9.060000e+02 5.323531e+00
9.070000e+02 5.570704e+00
9.080000e+02 5.828802e+00
9.090000e+02 6.098179e+00
9.100000e+02 6.379335e+00
9.110000e+02 6.672763e+00
9.120000e+02 6.979009e+00
9.130000e+02 7.272685e+00
9.140000e+02 7.748535e+00
9.150000e+02 5.269402e+01
9.160000e+02 7.195069e+01
9.170000e+02 7.445230e+01
9.180000e+02 7.744692e+01
9.190000e+02 8.109178e+01
9.200000e+02 8.431838e+01
9.210000e+02 1.036230e+01
9.220000e+02 9.095153e+01
9.230000e+02 9.389839e+01
9.240000e+02 9.513046e+01
9.250000e+02 1.007361e+02
9.260000e+02 1.055451e+02
9.270000e+02 1.092896e+02
9.280000e+02 1.143407e+02
9.290000e+02 1.184894e+02
9.300000e+02 1.220800e+02
9.310000e+02 1.261302e+02
9.320000e+02 1.329264e+02
9.330000e+02 1.378452e+02
9.340000e+02 1.431819e+02
9.350000e+02 3.503656e+01
9.360000e+02 1.461032e+02
9.370000e+02 3.023173e+01
9.380000e+02 8.838118e+01
9.390000e+02 1.713671e+02
9.400000e+02 1.788501e+02
9.410000e+02 6.703948e+01
9.420000e+02 1.925525e+02
9.430000e+02 1.993304e+02
9.440000e+02 1.690175e+02
9.450000e+02 2.147881e+02
9.460000e+02 2.226690e+02
9.470000e+02 1.946523e+02
9.480000e+02 1.853125e+02
9.490000e+02 2.465727e+02
9.500000e+02 5.092221e+01
9.510000e+02 2.627798e+02
9.520000e+02 2.768598e+02
9.530000e+02 2.800871e+02
9.540000e+02 2.539486e+02
9.550000e+02 3.081321e+02
9.560000e+02 2.318024e+02
9.570000e+02 2.023058e+02
9.580000e+02 3.195016e+02
9.590000e+02 3.574939e+02
9.600000e+02 7.693759e+01
9.610000e+02 3.835037e+02
9.620000e+02 3.972857e+02
9.630000e+02 4.111310e+02
9.640000e+02 6.558502e+01
9.650000e+02 4.051329e+02
9.660000e+02 4.568814e+02
9.670000e+02 4.679599e+02
9.680000e+02 4.811119e+02
9.690000e+02 5.053318e+02
9.700000e+02 5.246876e+02
9.710000e+02 5.352288e+02
9.720000e+02 5.215244e+02
9.730000e+02 5.314671e+02
9.740000e+02 5.968599e+02
9.750000e+02 6.228332e+02
9.760000e+02 6.474221e+02
9.770000e+02 6.705942e+02
9.780000e+02 6.922816e+02
9.790000e+02 7.187755e+02
9.800000e+02 7.434416e+02
9.810000e+02 7.688090e+02
9.820000e+02 7.914952e+02
9.830000e+02 8.233602e+02
9.840000e+02 4.179193e+02
9.850000e+02 8.792867e+02
9.860000e+02 9.089889e+02
9.870000e+02 9.423387e+02
9.880000e+02 9.458044e+02
9.890000e+02 8.964696e+02
9.900000e+02 2.101485e+02
9.910000e+02 1.057996e+03
9.920000e+02 9.374756e+02
9.930000e+02 1.095011e+03
9.940000e+02 2.311919e+02
9.950000e+02 4.497051e+02
9.960000e+02 1.230412e+03
9.970000e+02 3.211598e+02
9.980000e+02 1.354166e+03
9.990000e+02 1.367035e+03
1.000000e+03 1.448465e+03
1.001000e+03 1.497865e+03
1.002000e+03 1.547119e+03
1.003000e+03 1.556411e+03
1.004000e+03 1.612321e+03
1.005000e+03 1.640365e+03
1.006000e+03 1.761059e+03
1.007000e+03 1.817212e+03
1.008000e+03 1.875245e+03
1.009000e+03 1.918385e+03
1.010000e+03 2.001636e+03
1.011000e+03 2.066560e+03
1.012000e+03 2.132988e+03
1.013000e+03 2.201485e+03
1.014000e+03 2.036798e+03
1.015000e+03 2.250548e+03
1.016000e+03 2.405381e+03
1.017000e+03 2.251304e+03
1.018000e+03 2.560815e+03
1.019000e+03 2.564604e+03
1.020000e+03 2.733039e+03
1.021000e+03 1.426240e+03
1.022000e+03 2.551650e+03
1.023000e+03 2.855979e+03
1.024000e+03 2.748960e+03
1.025000e+03 2.199254e+03
1.026000e+03 1.289989e+03
1.027000e+03 2.962094e+03
1.028000e+03 9.415774e+02
1.029000e+03 3.255695e+03
1.030000e+03 3.673343e+03
1.031000e+03 3.831719e+03
1.032000e+03 3.952137e+03
1.033000e+03 1.681742e+03
1.034000e+03 4.222483e+03
1.035000e+03 1.060429e+03
1.036000e+03 3.845540e+03
1.037000e+03 3.958561e+03
1.038000e+03 4.783512e+03
1.039000e+03 4.903772e+03
1.040000e+03 5.083135e+03
1.041000e+03 5.173019e+03
1.042000e+03 5.393670e+03
1.043000e+03 5.309393e+03
1.044000e+03 5.735032e+03
1.045000e+03 5.904858e+03
1.046000e+03 6.092411e+03
1.047000e+03 6.269193e+03
1.048000e+03 6.356719e+03
1.049000e+03 6.469303e+03
1.050000e+03 6.851661e+03
1.051000e+03 7.048653e+03
1.052000e+03 7.281905e+03
1.053000e+03 7.487227e+03
1.054000e+03 6.966554e+03
1.055000e+03 7.837438e+03
1.056000e+03 8.192179e+03
1.057000e+03 8.428816e+03
1.058000e+03 8.666508e+03
1.059000e+03 8.870080e+03
1.060000e+03 9.053014e+03
1.061000e+03 9.472598e+03
1.062000e+03 9.717011e+03
1.063000e+03 3.531415e+03
1.064000e+03 2.597051e+03
1.065000e+03 9.832635e+03
1.066000e+03 8.190222e+03
1.067000e+03 1.110409e+04
1.068000e+03 1.160522e+04
1.069000e+03 1.142865e+04
1.070000e+03 1.226352e+04
1.071000e+03 1.264536e+04
1.072000e+03 1.300908e+04
1.073000e+03 1.265488e+04
1.074000e+03 1.375197e+04
1.075000e+03 1.413622e+04
1.076000e+03 1.456531e+04
1.077000e+03 1.454107e+04
1.078000e+03 1.535804e+04
1.079000e+03 1.580846e+04
1.080000e+03 1.627918e+04
1.081000e+03 1.675022e+04
1.082000e+03 1.721315e+04
1.083000e+03 1.769872e+04
1.084000e+03 1.820669e+04
1.085000e+03 1.417074e+04
1.086000e+03 1.923620e+04
1.087000e+03 1.959085e+04
1.088000e+03 2.026718e+04
1.089000e+03 2.087999e+04
1.090000e+03 2.139313e+04
1.091000e+03 2.196654e+04
1.092000e+03 2.264827e+04
1.093000e+03 2.325919e+04
1.094000e+03 2.390432e+04
1.095000e+03 2.456067e+04
1.096000e+03 2.512293e+04
1.097000e+03 2.564081e+04
1.098000e+03 2.644734e+04
1.099000e+03 2.731673e+04
1.100000e+03 2.705789e+04
1.101000e+03 2.636700e+04
1.102000e+03 5.632844e+04
1.103000e+03 1.804899e+05
1.104000e+03 6.964938e+04
1.105000e+03 2.982197e+04
1.106000e+03 3.960034e+05
1.107000e+03 1.880435e+05
1.108000e+03 4.191125e+05
1.109000e+03 2.773601e+05
1.110000e+03 1.561373e+05
1.111000e+03 6.709703e+04
1.112000e+03 4.091602e+05
1.113000e+03 4.716340e+05
1.114000e+03 2.680745e+04
1.115000e+03 4.135100e+05
1.116000e+03 4.060000e+05
1.117000e+03 2.908741e+04
1.118000e+03 3.350226e+05
1.119000e+03 5.221406e+05
1.120000e+03 4.406477e+05
1.121000e+03 5.232956e+05
1.122000e+03 1.384591e+04
1.123000e+03 6.712825e+04
1.124000e+03 5.794486e+05
1.125000e+03 3.863328e+05
1.126000e+03 6.060378e+05
1.127000e+03 5.964802e+05
1.128000e+03 3.079267e+05
1.129000e+03 6.213162e+05
1.130000e+03 5.851684e+05
1.131000e+03 6.674353e+05
1.132000e+03 3.817706e+04
1.133000e+03 5.567389e+05
1.134000e+03 6.727709e+05
1.135000e+03 2.582306e+04
1.136000e+03 6.928229e+05
1.137000e+03 7.494374e+05
1.138000e+03 7.522220e+05
1.139000e+03 7.619452e+05
1.140000e+03 2.700450e+04
1.141000e+03 8.107214e+05
1.142000e+03 8.258549e+05
1.143000e+03 8.372209e+05
1.144000e+03 8.598019e+05
1.145000e+03 5.191808e+05
1.146000e+03 8.947673e+05
1.147000e+03 8.983144e+05
1.148000e+03 8.014158e+05
1.149000e+03 9.442309e+05
1.150000e+03 9.535358e+05
1.151000e+03 9.777893e+05
1.152000e+03 1.002867e+06
1.153000e+03 4.446504e+05
1.154000e+03 5.669727e+05
1.155000e+03 1.041015e+06
1.156000e+03 3.310161e+05
1.157000e+03 1.099425e+06
1.158000e+03 4.670138e+04
1.159000e+03 9.917953e+05
1.160000e+03 1.146164e+06
1.161000e+03 1.190980e+06
1.162000e+03 4.421040e+05
1.163000e+03 1.195959e+06
1.164000e+03 5.653925e+04
1.165000e+03 1.285755e+06
1.166000e+03 1.310194e+06
1.167000e+03 1.335172e+06
1.168000e+03 1.376993e+06
1.169000e+03 1.371793e+06
1.170000e+03 1.433728e+06
1.171000e+03 1.468714e+06
1.172000e+03 1.480031e+06
1.173000e+03 1.536016e+06
1.174000e+03 1.283445e+06
1.175000e+03 7.196338e+04
1.176000e+03 6.624888e+04
1.177000e+03 1.671680e+06
1.178000e+03 1.686910e+06
1.179000e+03 1.740802e+06
1.180000e+03 1.473226e+06
1.181000e+03 1.809070e+06
1.182000e+03 1.857520e+06
1.183000e+03 1.887176e+06
1.184000e+03 1.920346e+06
1.185000e+03 1.955798e+06
1.186000e+03 1.887921e+06
1.187000e+03 2.030520e+06
1.188000e+03 2.035228e+06
1.189000e+03 9.450850e+04
1.190000e+03 3.859232e+05
1.191000e+03 2.123713e+06
1.192000e+03 2.153776e+06
1.193000e+03 9.179313e+04
1.194000e+03 1.101521e+05
1.195000e+03 1.929867e+06
1.196000e+03 2.246676e+06
1.197000e+03 3.710498e+06
1.198000e+03 3.535892e+06
1.199000e+03 3.630489e+06
1.200000e+03 3.155209e+06
1.201000e+03 3.401676e+06
1.202000e+03 3.331320e+06
1.203000e+03 4.527730e+06
1.204000e+03 3.851793e+06
1.205000e+03 3.692393e+06
1.206000e+03 3.508968e+06
1.207000e+03 4.491773e+05
1.208000e+03 2.454490e+06
1.209000e+03 1.833646e+06
1.210000e+03 1.596528e+05
1.211000e+03 1.057011e+06
1.212000e+03 6.964236e+05
1.213000e+03 4.496072e+05
1.214000e+03 2.774437e+05
1.215000e+03 1.856959e+05
1.216000e+03 1.710515e+05
1.217000e+03 2.532735e+05
1.218000e+03 4.240792e+05
1.219000e+03 7.119218e+05
1.220000e+03 1.123517e+06
1.221000e+03 1.667982e+06
1.222000e+03 2.327512e+06
1.223000e+03 3.094263e+06
1.224000e+03 3.965714e+06
1.225000e+03 4.604292e+06
1.226000e+03 5.956120e+06
1.227000e+03 6.936122e+06
1.228000e+03 7.905475e+06
1.229000e+03 9.282296e+06
1.230000e+03 9.955396e+06
1.231000e+03 1.086654e+07
1.232000e+03 1.286827e+07
1.233000e+03 1.405152e+07
1.234000e+03 7.811759e+06
1.235000e+03 1.633129e+07
1.236000e+03 1.618337e+07
1.237000e+03 1.856055e+07
1.238000e+03 1.958096e+07
1.239000e+03 2.053414e+07
1.240000e+03 1.820429e+07
1.241000e+03 2.952316e+07
1.242000e+03 2.007151e+07
1.243000e+03 2.822838e+07
1.244000e+03 1.367553e+07
1.245000e+03 1.989245e+07
1.246000e+03 4.248908e+07
1.247000e+03 4.359843e+07
1.248000e+03 1.454036e+07
1.249000e+03 1.921834e+07
1.250000e+03 4.828898e+07
1.251000e+03 5.238460e+07
1.252000e+03 5.329149e+07
1.253000e+03 5.606943e+07
1.254000e+03 5.706111e+07
1.255000e+03 5.733050e+07
1.256000e+03 5.951055e+07
1.257000e+03 6.133579e+07
1.258000e+03 6.046092e+07
1.259000e+03 6.335239e+07
1.260000e+03 5.487563e+07
1.261000e+03 4.765535e+05
1.262000e+03 9.661988e+06
1.263000e+03 6.922895e+07
1.264000e+03 6.435928e+07
1.265000e+03 5.040280e+05
1.266000e+03 7.527007e+07
1.267000e+03 7.661342e+07
