# wavelength_A flux
5.000000e+02 4.097187e-12
5.010000e+02 4.728586e-12
5.020000e+02 5.454054e-12
5.030000e+02 6.287148e-12
5.040000e+02 7.243278e-12
5.050000e+02 8.709092e-12
5.060000e+02 1.001965e-11
5.070000e+02 1.152086e-11
5.080000e+02 1.323947e-11
5.090000e+02 1.520687e-11
5.100000e+02 1.745565e-11
5.110000e+02 2.002598e-11
5.120000e+02 2.296198e-11
5.130000e+02 2.631394e-11
5.140000e+02 3.013872e-11
5.150000e+02 3.449998e-11
5.160000e+02 3.947256e-11
5.170000e+02 4.513362e-11
5.180000e+02 5.158596e-11
5.190000e+02 5.892548e-11
5.200000e+02 6.727364e-11
5.210000e+02 7.676394e-11
5.220000e+02 8.753108e-11
5.230000e+02 9.979383e-11
5.240000e+02 1.136953e-10
5.250000e+02 1.294682e-10
5.260000e+02 1.473523e-10
5.270000e+02 1.676218e-10
5.280000e+02 1.905835e-10
5.290000e+02 2.164920e-10
5.300000e+02 2.460041e-10
5.310000e+02 2.792844e-10
5.320000e+02 3.169132e-10
5.330000e+02 3.594333e-10
5.340000e+02 4.074595e-10
5.350000e+02 4.616782e-10
5.360000e+02 5.228535e-10
5.370000e+02 5.785901e-10
5.380000e+02 6.696403e-10
5.390000e+02 7.573013e-10
5.400000e+02 8.560629e-10
5.410000e+02 9.671057e-10
5.420000e+02 1.092281e-09
5.430000e+02 1.232976e-09
5.440000e+02 1.391136e-09
5.450000e+02 1.568861e-09
5.460000e+02 1.767975e-09
5.470000e+02 1.992616e-09
5.480000e+02 2.244126e-09
5.490000e+02 2.526270e-09
5.500000e+02 2.842605e-09
5.510000e+02 3.197144e-09
5.520000e+02 3.594311e-09
5.530000e+02 4.039046e-09
5.540000e+02 4.536831e-09
5.550000e+02 5.093755e-09
5.560000e+02 5.716581e-09
5.570000e+02 6.412801e-09
5.580000e+02 7.190756e-09
5.590000e+02 8.059668e-09
5.600000e+02 9.029766e-09
5.610000e+02 1.011239e-08
5.620000e+02 1.132008e-08
5.630000e+02 1.266674e-08
5.640000e+02 1.416775e-08
5.650000e+02 1.584006e-08
5.660000e+02 1.770269e-08
5.670000e+02 1.977620e-08
5.680000e+02 2.208370e-08
5.690000e+02 2.465051e-08
5.700000e+02 2.750454e-08
5.710000e+02 3.067701e-08
5.720000e+02 3.420179e-08
5.730000e+02 3.811657e-08
5.740000e+02 4.246280e-08
5.750000e+02 4.728756e-08
5.760000e+02 5.262565e-08
5.770000e+02 5.857256e-08
5.780000e+02 6.515051e-08
5.790000e+02 7.243953e-08
5.800000e+02 8.051347e-08
5.810000e+02 8.945344e-08
5.820000e+02 9.934825e-08
5.830000e+02 1.102946e-07
5.840000e+02 1.223405e-07
5.850000e+02 1.357795e-07
5.860000e+02 1.505941e-07
5.870000e+02 1.669466e-07
5.880000e+02 1.850060e-07
5.890000e+02 2.049377e-07
5.900000e+02 2.269490e-07
5.910000e+02 2.512252e-07
5.920000e+02 2.780018e-07
5.930000e+02 3.075211e-07
5.940000e+02 3.400555e-07
5.950000e+02 3.758736e-07
5.960000e+02 4.153775e-07
5.970000e+02 4.588417e-07
5.980000e+02 5.066782e-07
5.990000e+02 5.593101e-07
6.000000e+02 6.171978e-07
6.010000e+02 6.806246e-07
6.020000e+02 7.508013e-07
6.030000e+02 8.276642e-07
6.040000e+02 9.120935e-07
6.050000e+02 1.004799e-06
6.060000e+02 1.106557e-06
6.070000e+02 1.218223e-06
6.080000e+02 1.340714e-06
6.090000e+02 1.475039e-06
6.100000e+02 1.622289e-06
6.110000e+02 1.783671e-06
6.120000e+02 1.960470e-06
6.130000e+02 2.154102e-06
6.140000e+02 2.366104e-06
6.150000e+02 2.598146e-06
6.160000e+02 2.852043e-06
6.170000e+02 3.129767e-06
6.180000e+02 3.433461e-06
6.190000e+02 3.765450e-06
6.200000e+02 4.128258e-06
6.210000e+02 4.524633e-06
6.220000e+02 4.957540e-06
6.230000e+02 5.430214e-06
6.240000e+02 5.946148e-06
6.250000e+02 6.509134e-06
6.260000e+02 7.123280e-06
6.270000e+02 7.793035e-06
6.280000e+02 8.523230e-06
6.290000e+02 9.319065e-06
6.300000e+02 1.018622e-05
6.310000e+02 1.113058e-05
6.320000e+02 1.215939e-05
6.330000e+02 1.327917e-05
6.340000e+02 1.449792e-05
6.350000e+02 1.582393e-05
6.360000e+02 1.722152e-05
6.370000e+02 1.883473e-05
6.380000e+02 2.053982e-05
6.390000e+02 2.239290e-05
6.400000e+02 2.440633e-05
6.410000e+02 2.659335e-05
6.420000e+02 2.896829e-05
6.430000e+02 3.154657e-05
6.440000e+02 3.434484e-05
6.450000e+02 3.738103e-05
6.460000e+02 4.067455e-05
6.470000e+02 4.424616e-05
6.480000e+02 4.811842e-05
6.490000e+02 5.231543e-05
6.500000e+02 5.686324e-05
6.510000e+02 6.178987e-05
6.520000e+02 6.712556e-05
6.530000e+02 7.290267e-05
6.540000e+02 7.915614e-05
6.550000e+02 8.592349e-05
6.560000e+02 9.324498e-05
6.570000e+02 1.011603e-04
6.580000e+02 1.097274e-04
6.590000e+02 1.189850e-04
6.600000e+02 1.289897e-04
6.610000e+02 1.398020e-04
6.620000e+02 1.514810e-04
6.630000e+02 1.640943e-04
6.640000e+02 1.777131e-04
6.650000e+02 1.924131e-04
6.660000e+02 2.082791e-04
6.670000e+02 2.253964e-04
6.680000e+02 2.438604e-04
6.690000e+02 2.637720e-04
6.700000e+02 2.852389e-04
6.710000e+02 3.083789e-04
6.720000e+02 3.333132e-04
6.730000e+02 3.601801e-04
6.740000e+02 3.891173e-04
6.750000e+02 4.202788e-04
6.760000e+02 4.538276e-04
6.770000e+02 4.899384e-04
6.780000e+02 5.287976e-04
6.790000e+02 5.706048e-04
6.800000e+02 6.155733e-04
6.810000e+02 6.639311e-04
6.820000e+02 7.159217e-04
6.830000e+02 7.718056e-04
6.840000e+02 8.318595e-04
6.850000e+02 8.963740e-04
6.860000e+02 9.656881e-04
6.870000e+02 1.040105e-03
6.880000e+02 1.120032e-03
6.890000e+02 1.205813e-03
6.900000e+02 1.297875e-03
6.910000e+02 1.396656e-03
6.920000e+02 1.502621e-03
6.930000e+02 1.616268e-03
6.940000e+02 1.738128e-03
6.950000e+02 1.868768e-03
6.960000e+02 2.008788e-03
6.970000e+02 2.158780e-03
6.980000e+02 2.319580e-03
6.990000e+02 2.491763e-03
7.000000e+02 2.676153e-03
7.010000e+02 2.873573e-03
7.020000e+02 3.084904e-03
7.030000e+02 3.311078e-03
7.040000e+02 3.553086e-03
7.050000e+02 3.811983e-03
7.060000e+02 4.088882e-03
7.070000e+02 4.385004e-03
7.080000e+02 4.701587e-03
7.090000e+02 5.039931e-03
7.100000e+02 5.401634e-03
7.110000e+02 5.788052e-03
7.120000e+02 6.200853e-03
7.130000e+02 6.641746e-03
7.140000e+02 7.112557e-03
7.150000e+02 7.615195e-03
7.160000e+02 8.151751e-03
7.170000e+02 8.724311e-03
7.180000e+02 9.335143e-03
7.190000e+02 9.987162e-03
7.200000e+02 1.068238e-02
7.210000e+02 1.142376e-02
7.220000e+02 1.221419e-02
7.230000e+02 1.305682e-02
7.240000e+02 1.395486e-02
7.250000e+02 1.491179e-02
7.260000e+02 1.593123e-02
7.270000e+02 1.701725e-02
7.280000e+02 1.817377e-02
7.290000e+02 1.940522e-02
7.300000e+02 2.071621e-02
7.310000e+02 2.211163e-02
7.320000e+02 2.359656e-02
7.330000e+02 2.517659e-02
7.340000e+02 2.685745e-02
7.350000e+02 2.864523e-02
7.360000e+02 3.054635e-02
7.370000e+02 3.256779e-02
7.380000e+02 3.471661e-02
7.390000e+02 3.700050e-02
7.400000e+02 3.942719e-02
7.410000e+02 4.200613e-02
7.420000e+02 4.474499e-02
7.430000e+02 4.765476e-02
7.440000e+02 5.074428e-02
7.450000e+02 5.402452e-02
7.460000e+02 5.750666e-02
7.470000e+02 6.120248e-02
7.480000e+02 6.512443e-02
7.490000e+02 6.928562e-02
7.500000e+02 7.369990e-02
7.510000e+02 7.838188e-02
7.520000e+02 8.334695e-02
7.530000e+02 8.861132e-02
7.540000e+02 9.419201e-02
7.550000e+02 1.001072e-01
7.560000e+02 1.063759e-01
7.570000e+02 1.130121e-01
7.580000e+02 1.200549e-01
7.590000e+02 1.275074e-01
7.600000e+02 1.354019e-01
7.610000e+02 1.437607e-01
7.620000e+02 1.526102e-01
7.630000e+02 1.619775e-01
7.640000e+02 1.718915e-01
7.650000e+02 1.823824e-01
7.660000e+02 1.934825e-01
7.670000e+02 2.052246e-01
7.680000e+02 2.176420e-01
7.690000e+02 2.307784e-01
7.700000e+02 2.446660e-01
7.710000e+02 2.593474e-01
7.720000e+02 2.748667e-01
7.730000e+02 2.912683e-01
7.740000e+02 3.085999e-01
7.750000e+02 3.269112e-01
7.760000e+02 3.461675e-01
7.770000e+02 3.666867e-01
7.780000e+02 3.882638e-01
7.790000e+02 4.110467e-01
7.800000e+02 4.350996e-01
7.810000e+02 4.604894e-01
7.820000e+02 4.872862e-01
7.830000e+02 5.155635e-01
7.840000e+02 5.453998e-01
7.850000e+02 5.768754e-01
7.860000e+02 6.100737e-01
7.870000e+02 6.450925e-01
7.880000e+02 6.820146e-01
7.890000e+02 7.209427e-01
7.900000e+02 7.619800e-01
7.910000e+02 8.052343e-01
7.920000e+02 8.508189e-01
7.930000e+02 8.988523e-01
7.940000e+02 9.494585e-01
7.950000e+02 1.002769e+00
7.960000e+02 1.058918e+00
7.970000e+02 1.118050e+00
7.980000e+02 1.180316e+00
7.990000e+02 1.245871e+00
8.000000e+02 1.314879e+00
8.010000e+02 1.387506e+00
8.020000e+02 1.463952e+00
8.030000e+02 1.544384e+00
8.040000e+02 1.629007e+00
8.050000e+02 1.718026e+00
8.060000e+02 1.811656e+00
8.070000e+02 1.910125e+00
8.080000e+02 2.013667e+00
8.090000e+02 2.122530e+00
8.100000e+02 2.236971e+00
8.110000e+02 2.357260e+00
8.120000e+02 2.483679e+00
8.130000e+02 2.616523e+00
8.140000e+02 2.756100e+00
8.150000e+02 2.902722e+00
8.160000e+02 3.056749e+00
8.170000e+02 3.218508e+00
8.180000e+02 3.388387e+00
8.190000e+02 3.566753e+00
8.200000e+02 3.754012e+00
8.210000e+02 3.950582e+00
8.220000e+02 4.156900e+00
8.230000e+02 4.373420e+00
8.240000e+02 4.600620e+00
8.250000e+02 4.838995e+00
8.260000e+02 5.089063e+00
8.270000e+02 5.351363e+00
8.280000e+02 5.626462e+00
8.290000e+02 5.914944e+00
8.300000e+02 6.217429e+00
8.310000e+02 6.534552e+00
8.320000e+02 6.866981e+00
8.330000e+02 7.215402e+00
8.340000e+02 7.580561e+00
8.350000e+02 7.961998e+00
8.360000e+02 8.364050e+00
8.370000e+02 8.784126e+00
8.380000e+02 9.223807e+00
8.390000e+02 9.684872e+00
8.400000e+02 1.016744e+01
8.410000e+02 1.067275e+01
8.420000e+02 1.120146e+01
8.430000e+02 1.175566e+01
8.440000e+02 1.233541e+01
8.450000e+02 1.294218e+01
8.460000e+02 1.357718e+01
8.470000e+02 1.424162e+01
8.480000e+02 1.493679e+01
8.490000e+02 1.566404e+01
8.500000e+02 1.642475e+01
8.510000e+02 1.722034e+01
8.520000e+02 1.805230e+01
8.530000e+02 1.892238e+01
8.540000e+02 1.983218e+01
8.550000e+02 2.078310e+01
8.560000e+02 2.177712e+01
8.570000e+02 2.281605e+01
8.580000e+02 2.390178e+01
8.590000e+02 2.503632e+01
8.600000e+02 2.622171e+01
8.610000e+02 2.746009e+01
8.620000e+02 2.875370e+01
8.630000e+02 3.010476e+01
8.640000e+02 3.151593e+01
8.650000e+02 3.298925e+01
8.660000e+02 3.452800e+01
8.670000e+02 3.613427e+01
8.680000e+02 3.781107e+01
8.690000e+02 3.956124e+01
8.700000e+02 4.138772e+01
8.710000e+02 4.329412e+01
8.720000e+02 4.528322e+01
8.730000e+02 4.735853e+01
8.740000e+02 4.952357e+01
8.750000e+02 5.178196e+01
8.760000e+02 5.413749e+01
8.770000e+02 5.659376e+01
8.780000e+02 5.915583e+01
8.790000e+02 6.182690e+01
8.800000e+02 6.461169e+01
8.810000e+02 6.751475e+01
8.820000e+02 7.054077e+01
8.830000e+02 7.369466e+01
8.840000e+02 7.698146e+01
8.850000e+02 8.040639e+01
8.860000e+02 8.397498e+01
8.870000e+02 8.769283e+01
8.880000e+02 9.156578e+01
8.890000e+02 9.559995e+01
8.900000e+02 9.980156e+01
8.910000e+02 1.041771e+02
8.920000e+02 1.084912e+02
8.930000e+02 1.134775e+02
8.940000e+02 1.184165e+02
8.950000e+02 1.235578e+02
8.960000e+02 1.289096e+02
8.970000e+02 1.344795e+02
8.980000e+02 1.402761e+02
8.990000e+02 1.463078e+02
9.000000e+02 1.525838e+02
9.010000e+02 1.591133e+02
9.020000e+02 1.659057e+02
9.030000e+02 1.729710e+02
9.040000e+02 1.803160e+02
9.050000e+02 1.879613e+02
9.060000e+02 1.959095e+02
9.070000e+02 2.041661e+02
9.080000e+02 2.127644e+02
9.090000e+02 2.216956e+02
9.100000e+02 2.309799e+02
9.110000e+02 2.406316e+02
9.120000e+02 2.506718e+02
9.130000e+02 2.542244e+02
9.140000e+02 2.824873e+02
9.150000e+02 2.280768e+03
9.160000e+02 5.040106e+03
9.170000e+02 5.226579e+03
9.180000e+02 5.393391e+03
9.190000e+02 5.592296e+03
9.200000e+02 5.782320e+03
9.210000e+02 3.438876e+02
9.220000e+02 6.170162e+03
9.230000e+02 6.354024e+03
9.240000e+02 6.206516e+03
9.250000e+02 6.708740e+03
9.260000e+02 7.013911e+03
9.270000e+02 7.262591e+03
9.280000e+02 7.515902e+03
9.290000e+02 7.058729e+03
9.300000e+02 7.911556e+03
9.310000e+02 8.212122e+03
9.320000e+02 8.559014e+03
9.330000e+02 8.817845e+03
9.340000e+02 9.119563e+03
9.350000e+02 2.734848e+03
9.360000e+02 9.694316e+03
9.370000e+02 1.928941e+03
9.380000e+02 4.132632e+03
9.390000e+02 1.070296e+04
9.400000e+02 1.105391e+04
9.410000e+02 5.100200e+03
9.420000e+02 1.178190e+04
9.430000e+02 1.214379e+04
9.440000e+02 8.939698e+03
9.450000e+02 1.294375e+04
9.460000e+02 1.335644e+04
9.470000e+02 8.045823e+03
9.480000e+02 1.169335e+04
9.490000e+02 1.452330e+04
9.500000e+02 2.765549e+03
9.510000e+02 1.522198e+04
9.520000e+02 1.610231e+04
9.530000e+02 1.644956e+04
9.540000e+02 1.399554e+04
9.550000e+02 1.768545e+04
9.560000e+02 1.335504e+04
9.570000e+02 1.417019e+04
9.580000e+02 1.931941e+04
9.590000e+02 2.008161e+04
9.600000e+02 4.393024e+03
9.610000e+02 2.125411e+04
9.620000e+02 2.201017e+04
9.630000e+02 2.269895e+04
9.640000e+02 2.041146e+03
9.650000e+02 2.193844e+04
9.660000e+02 2.484928e+04
9.670000e+02 2.537617e+04
9.680000e+02 2.627971e+04
9.690000e+02 2.699797e+04
9.700000e+02 2.792486e+04
9.710000e+02 2.853911e+04
9.720000e+02 2.698220e+04
9.730000e+02 2.702041e+04
9.740000e+02 3.100909e+04
9.750000e+02 3.239364e+04
9.760000e+02 3.343465e+04
9.770000e+02 3.449150e+04
9.780000e+02 3.544103e+04
9.790000e+02 3.661338e+04
9.800000e+02 3.769117e+04
9.810000e+02 3.883375e+04
9.820000e+02 3.989941e+04
9.830000e+02 4.114788e+04
9.840000e+02 1.729240e+04
9.850000e+02 4.362487e+04
9.860000e+02 4.490557e+04
9.870000e+02 4.621855e+04
9.880000e+02 4.742594e+04
9.890000e+02 4.096333e+04
9.900000e+02 6.467819e+03
9.910000e+02 5.145596e+04
9.920000e+02 4.563127e+04
9.930000e+02 5.121151e+04
9.940000e+02 8.982512e+03
9.950000e+02 1.614028e+04
9.960000e+02 3.079685e+04
9.970000e+02 1.278852e+04
9.980000e+02 6.312611e+04
9.990000e+02 6.374907e+04
1.000000e+03 6.696476e+04
1.001000e+03 6.887499e+04
1.002000e+03 7.081252e+04
1.003000e+03 6.997071e+04
1.004000e+03 7.483622e+04
1.005000e+03 7.214938e+04
1.006000e+03 7.917195e+04
1.007000e+03 8.105072e+04
1.008000e+03 8.347789e+04
1.009000e+03 8.491388e+04
1.010000e+03 8.839422e+04
1.011000e+03 9.084329e+04
1.012000e+03 9.335525e+04
1.013000e+03 9.592988e+04
1.014000e+03 9.814866e+04
1.015000e+03 1.003459e+05
1.016000e+03 1.039006e+05
1.017000e+03 1.063917e+05
1.018000e+03 1.095623e+05
1.019000e+03 1.123528e+05
1.020000e+03 1.152985e+05
1.021000e+03 7.168836e+04
1.022000e+03 1.129870e+05
1.023000e+03 1.216333e+05
1.024000e+03 1.114972e+05
1.025000e+03 8.936632e+04
1.026000e+03 4.033087e+04
1.027000e+03 1.173622e+05
1.028000e+03 4.030708e+04
1.029000e+03 1.440408e+05
1.030000e+03 1.479192e+05
1.031000e+03 1.545223e+05
1.032000e+03 1.583281e+05
1.033000e+03 8.636766e+04
1.034000e+03 1.682350e+05
1.035000e+03 3.889047e+04
1.036000e+03 1.662552e+05
1.037000e+03 2.578927e+04
1.038000e+03 1.872230e+05
1.039000e+03 1.906350e+05
1.040000e+03 1.973511e+05
1.041000e+03 2.006059e+05
1.042000e+03 2.071396e+05
1.043000e+03 2.081095e+05
1.044000e+03 2.187929e+05
1.045000e+03 2.243856e+05
1.046000e+03 2.307241e+05
1.047000e+03 2.366628e+05
1.048000e+03 2.422605e+05
1.049000e+03 2.374360e+05
1.050000e+03 2.556074e+05
1.051000e+03 2.622613e+05
1.052000e+03 2.690598e+05
1.053000e+03 2.746425e+05
1.054000e+03 2.809019e+05
1.055000e+03 2.835831e+05
1.056000e+03 2.977646e+05
1.057000e+03 3.053233e+05
1.058000e+03 3.129881e+05
1.059000e+03 3.209859e+05
1.060000e+03 3.290355e+05
1.061000e+03 3.375732e+05
1.062000e+03 3.460771e+05
1.063000e+03 1.291747e+05
1.064000e+03 7.743381e+04
1.065000e+03 3.729260e+05
1.066000e+03 2.947209e+05
1.067000e+03 3.887204e+05
1.068000e+03 4.027949e+05
1.069000e+03 4.023781e+05
1.070000e+03 4.213548e+05
1.071000e+03 4.338023e+05
1.072000e+03 4.445320e+05
1.073000e+03 4.546215e+05
1.074000e+03 4.667538e+05
1.075000e+03 4.782003e+05
1.076000e+03 4.900139e+05
1.077000e+03 5.015432e+05
1.078000e+03 5.142609e+05
1.079000e+03 5.258969e+05
1.080000e+03 5.397036e+05
1.081000e+03 5.528663e+05
1.082000e+03 5.659856e+05
1.083000e+03 5.796356e+05
1.084000e+03 5.929221e+05
1.085000e+03 4.108166e+05
1.086000e+03 6.230293e+05
1.087000e+03 6.376731e+05
1.088000e+03 6.510896e+05
1.089000e+03 6.688042e+05
1.090000e+03 6.843857e+05
1.091000e+03 6.988424e+05
1.092000e+03 7.176290e+05
1.093000e+03 7.340782e+05
1.094000e+03 7.521077e+05
1.095000e+03 7.695625e+05
1.096000e+03 7.878955e+05
1.097000e+03 7.821999e+05
1.098000e+03 8.146434e+05
1.099000e+03 8.443212e+05
1.100000e+03 8.162228e+05
1.101000e+03 8.031821e+05
1.102000e+03 1.911332e+06
1.103000e+03 6.990081e+06
1.104000e+03 2.568973e+06
1.105000e+03 8.824230e+05
1.106000e+03 2.074161e+07
1.107000e+03 1.935265e+07
1.108000e+03 2.057216e+07
1.109000e+03 1.132512e+07
1.110000e+03 4.601230e+06
1.111000e+03 2.223170e+06
1.112000e+03 1.801465e+07
1.113000e+03 2.362283e+07
1.114000e+03 7.128900e+05
1.115000e+03 2.300162e+07
1.116000e+03 2.430729e+07
1.117000e+03 8.269480e+05
1.118000e+03 1.422428e+07
1.119000e+03 2.596506e+07
1.120000e+03 2.614850e+07
1.121000e+03 2.436026e+07
1.122000e+03 2.820900e+05
1.123000e+03 1.641946e+06
1.124000e+03 2.823780e+07
1.125000e+03 1.342858e+07
1.126000e+03 2.937348e+07
1.127000e+03 2.839103e+07
1.128000e+03 1.580847e+07
1.129000e+03 2.991187e+07
1.130000e+03 2.322663e+07
1.131000e+03 3.213271e+07
1.132000e+03 8.561320e+05
1.133000e+03 2.559664e+07
1.134000e+03 3.047866e+07
1.135000e+03 4.750880e+05
1.136000e+03 3.465767e+07
1.137000e+03 3.558137e+07
1.138000e+03 3.622112e+07
1.139000e+03 3.563090e+07
1.140000e+03 5.693500e+05
1.141000e+03 3.818284e+07
1.142000e+03 3.835309e+07
1.143000e+03 3.939641e+07
1.144000e+03 4.017029e+07
1.145000e+03 3.113058e+07
1.146000e+03 4.151957e+07
1.147000e+03 4.136942e+07
1.148000e+03 4.192202e+07
1.149000e+03 4.361020e+07
1.150000e+03 4.377727e+07
1.151000e+03 4.472894e+07
1.152000e+03 4.585619e+07
1.153000e+03 1.202355e+07
1.154000e+03 1.797672e+06
1.155000e+03 2.688317e+07
1.156000e+03 7.175096e+06
1.157000e+03 4.954210e+07
1.158000e+03 8.892136e+05
1.159000e+03 3.821130e+07
1.160000e+03 5.100692e+07
1.161000e+03 5.343007e+07
1.162000e+03 1.136401e+07
1.163000e+03 5.477700e+07
1.164000e+03 1.618096e+06
1.165000e+03 5.703480e+07
1.166000e+03 5.778042e+07
1.167000e+03 5.828153e+07
1.168000e+03 6.022858e+07
1.169000e+03 5.866860e+07
1.170000e+03 6.239632e+07
1.171000e+03 6.352433e+07
1.172000e+03 6.410002e+07
1.173000e+03 6.564540e+07
1.174000e+03 6.505574e+07
1.175000e+03 1.907420e+06
1.176000e+03 1.488212e+06
1.177000e+03 7.004844e+07
1.178000e+03 6.840311e+07
1.179000e+03 7.235374e+07
1.180000e+03 6.094327e+07
1.181000e+03 7.416162e+07
1.182000e+03 7.572163e+07
1.183000e+03 7.675002e+07
1.184000e+03 7.773419e+07
1.185000e+03 7.765841e+07
1.186000e+03 7.936641e+07
1.187000e+03 8.040204e+07
1.188000e+03 8.069533e+07
1.189000e+03 1.720208e+06
1.190000e+03 6.905424e+06
1.191000e+03 8.100110e+07
1.192000e+03 8.140935e+07
1.193000e+03 1.535192e+06
1.194000e+03 2.017392e+06
1.195000e+03 6.206665e+07
1.196000e+03 8.196205e+07
1.197000e+03 1.054539e+08
1.198000e+03 1.057487e+08
1.199000e+03 1.021456e+08
1.200000e+03 8.954659e+07
1.201000e+03 9.393297e+07
1.202000e+03 9.237134e+07
1.203000e+03 1.016211e+08
1.204000e+03 9.177156e+07
1.205000e+03 8.355776e+07
1.206000e+03 7.445484e+07
1.207000e+03 1.695287e+07
1.208000e+03 5.382246e+07
1.209000e+03 4.017702e+07
1.210000e+03 3.400508e+06
1.211000e+03 2.253267e+07
1.212000e+03 1.400250e+07
1.213000e+03 8.637974e+06
1.214000e+03 4.918894e+06
1.215000e+03 3.012422e+06
1.216000e+03 2.677419e+06
1.217000e+03 4.332916e+06
1.218000e+03 7.849200e+06
1.219000e+03 1.405012e+07
1.220000e+03 2.323860e+07
1.221000e+03 3.522672e+07
1.222000e+03 4.955887e+07
1.223000e+03 6.573083e+07
1.224000e+03 8.339410e+07
1.225000e+03 1.018856e+08
1.226000e+03 1.212205e+08
1.227000e+03 1.394768e+08
1.228000e+03 1.616201e+08
1.229000e+03 1.819852e+08
1.230000e+03 2.019165e+08
1.231000e+03 2.224441e+08
1.232000e+03 2.430167e+08
1.233000e+03 2.629670e+08
1.234000e+03 1.588558e+08
1.235000e+03 3.016668e+08
1.236000e+03 3.198815e+08
1.237000e+03 3.390684e+08
1.238000e+03 3.574338e+08
1.239000e+03 3.752371e+08
1.240000e+03 3.602178e+08
1.241000e+03 6.129974e+08
1.242000e+03 3.607515e+08
1.243000e+03 5.191459e+08
1.244000e+03 2.290684e+08
1.245000e+03 3.417604e+08
1.246000e+03 9.748726e+08
1.247000e+03 1.004169e+09
1.248000e+03 2.527628e+08
1.249000e+03 3.145795e+08
1.250000e+03 1.214384e+09
1.251000e+03 1.262892e+09
1.252000e+03 1.316358e+09
1.253000e+03 1.399127e+09
1.254000e+03 1.441817e+09
1.255000e+03 1.512745e+09
1.256000e+03 1.556466e+09
1.257000e+03 1.635229e+09
1.258000e+03 1.660238e+09
1.259000e+03 1.632416e+09
1.260000e+03 1.216211e+09
1.261000e+03 7.026435e+06
1.262000e+03 1.556926e+08
1.263000e+03 1.862353e+09
1.264000e+03 1.609681e+09
1.265000e+03 6.895808e+06
1.266000e+03 2.012444e+09
1.267000e+03 2.209687e+09
