# wavelength_A flux
5.000000e+02 1.624556e-06
5.010000e+02 1.827855e-06
5.020000e+02 2.055589e-06
5.030000e+02 2.310572e-06
5.040000e+02 2.595930e-06
5.050000e+02 2.963993e-06
5.060000e+02 3.326511e-06
5.070000e+02 3.731601e-06
5.080000e+02 4.184051e-06
5.090000e+02 4.689255e-06
5.100000e+02 5.252914e-06
5.110000e+02 5.881612e-06
5.120000e+02 6.582526e-06
5.130000e+02 7.363603e-06
5.140000e+02 8.233622e-06
5.150000e+02 9.202216e-06
5.160000e+02 1.028027e-05
5.170000e+02 1.147914e-05
5.180000e+02 1.281279e-05
5.190000e+02 1.429470e-05
5.200000e+02 1.594101e-05
5.210000e+02 1.776917e-05
5.220000e+02 1.979695e-05
5.230000e+02 2.204987e-05
5.240000e+02 2.454682e-05
5.250000e+02 2.731521e-05
5.260000e+02 3.038270e-05
5.270000e+02 3.378044e-05
5.280000e+02 3.754244e-05
5.290000e+02 4.169976e-05
5.300000e+02 4.631223e-05
5.310000e+02 5.140599e-05
5.320000e+02 5.703679e-05
5.330000e+02 6.325848e-05
5.340000e+02 7.013047e-05
5.350000e+02 7.771767e-05
5.360000e+02 8.609086e-05
5.370000e+02 9.451052e-05
5.380000e+02 1.055153e-04
5.390000e+02 1.167470e-04
5.400000e+02 1.291226e-04
5.410000e+02 1.427470e-04
5.420000e+02 1.577626e-04
5.430000e+02 1.742842e-04
5.440000e+02 1.924613e-04
5.450000e+02 2.124534e-04
5.460000e+02 2.344066e-04
5.470000e+02 2.585905e-04
5.480000e+02 2.851296e-04
5.490000e+02 3.142766e-04
5.500000e+02 3.462744e-04
5.510000e+02 3.813900e-04
5.520000e+02 4.199125e-04
5.530000e+02 4.621584e-04
5.540000e+02 5.084706e-04
5.550000e+02 5.592223e-04
5.560000e+02 6.148199e-04
5.570000e+02 6.757046e-04
5.580000e+02 7.423559e-04
5.590000e+02 8.152946e-04
5.600000e+02 8.950865e-04
5.610000e+02 9.823457e-04
5.620000e+02 1.077738e-03
5.630000e+02 1.181987e-03
5.640000e+02 1.295875e-03
5.650000e+02 1.420252e-03
5.660000e+02 1.556042e-03
5.670000e+02 1.704239e-03
5.680000e+02 1.865925e-03
5.690000e+02 2.042269e-03
5.700000e+02 2.234535e-03
5.710000e+02 2.444101e-03
5.720000e+02 2.672440e-03
5.730000e+02 2.921159e-03
5.740000e+02 3.191989e-03
5.750000e+02 3.486840e-03
5.760000e+02 3.807369e-03
5.770000e+02 4.156675e-03
5.780000e+02 4.536237e-03
5.790000e+02 4.948891e-03
5.800000e+02 5.397385e-03
5.810000e+02 5.884680e-03
5.820000e+02 6.413965e-03
5.830000e+02 6.988645e-03
5.840000e+02 7.611065e-03
5.850000e+02 8.289265e-03
5.860000e+02 9.024139e-03
5.870000e+02 9.820807e-03
5.880000e+02 1.068455e-02
5.890000e+02 1.162063e-02
5.900000e+02 1.263521e-02
5.910000e+02 1.373415e-02
5.920000e+02 1.492426e-02
5.930000e+02 1.621272e-02
5.940000e+02 1.760727e-02
5.950000e+02 1.911583e-02
5.960000e+02 2.074846e-02
5.970000e+02 2.251360e-02
5.980000e+02 2.442190e-02
5.990000e+02 2.648440e-02
6.000000e+02 2.871290e-02
6.010000e+02 3.111916e-02
6.020000e+02 3.371979e-02
6.030000e+02 3.652635e-02
6.040000e+02 3.955555e-02
6.050000e+02 4.282409e-02
6.060000e+02 4.634986e-02
6.070000e+02 5.015235e-02
6.080000e+02 5.425195e-02
6.090000e+02 5.867074e-02
6.100000e+02 6.343225e-02
6.110000e+02 6.856191e-02
6.120000e+02 7.408658e-02
6.130000e+02 8.003514e-02
6.140000e+02 8.643844e-02
6.150000e+02 9.332954e-02
6.160000e+02 1.007436e-01
6.170000e+02 1.087183e-01
6.180000e+02 1.172939e-01
6.190000e+02 1.265132e-01
6.200000e+02 1.364222e-01
6.210000e+02 1.470696e-01
6.220000e+02 1.585079e-01
6.230000e+02 1.707925e-01
6.240000e+02 1.839829e-01
6.250000e+02 1.981423e-01
6.260000e+02 2.133383e-01
6.270000e+02 2.296427e-01
6.280000e+02 2.471323e-01
6.290000e+02 2.658884e-01
6.300000e+02 2.859981e-01
6.310000e+02 3.075457e-01
6.320000e+02 3.306544e-01
6.330000e+02 3.554039e-01
6.340000e+02 3.819152e-01
6.350000e+02 4.103054e-01
6.360000e+02 4.403787e-01
6.370000e+02 4.732379e-01
6.380000e+02 5.080566e-01
6.390000e+02 5.453095e-01
6.400000e+02 5.851576e-01
6.410000e+02 6.277719e-01
6.420000e+02 6.733331e-01
6.430000e+02 7.220364e-01
6.440000e+02 7.740854e-01
6.450000e+02 8.296971e-01
6.460000e+02 8.891038e-01
6.470000e+02 9.525476e-01
6.480000e+02 1.020292e+00
6.490000e+02 1.092609e+00
6.500000e+02 1.169792e+00
6.510000e+02 1.252150e+00
6.520000e+02 1.340011e+00
6.530000e+02 1.433722e+00
6.540000e+02 1.533654e+00
6.550000e+02 1.640194e+00
6.560000e+02 1.753757e+00
6.570000e+02 1.874756e+00
6.580000e+02 2.003724e+00
6.590000e+02 2.141081e+00
6.600000e+02 2.287366e+00
6.610000e+02 2.443135e+00
6.620000e+02 2.608962e+00
6.630000e+02 2.785460e+00
6.640000e+02 2.973280e+00
6.650000e+02 3.173102e+00
6.660000e+02 3.385664e+00
6.670000e+02 3.611718e+00
6.680000e+02 3.852079e+00
6.690000e+02 4.107599e+00
6.700000e+02 4.379181e+00
6.710000e+02 4.667778e+00
6.720000e+02 4.974367e+00
6.730000e+02 5.300095e+00
6.740000e+02 5.645996e+00
6.750000e+02 6.013281e+00
6.760000e+02 6.403196e+00
6.770000e+02 6.817056e+00
6.780000e+02 7.256248e+00
6.790000e+02 7.722232e+00
6.800000e+02 8.216537e+00
6.810000e+02 8.740804e+00
6.820000e+02 9.296746e+00
6.830000e+02 9.886162e+00
6.840000e+02 1.051095e+01
6.850000e+02 1.117309e+01
6.860000e+02 1.187473e+01
6.870000e+02 1.261799e+01
6.880000e+02 1.340539e+01
6.890000e+02 1.423921e+01
6.900000e+02 1.512209e+01
6.910000e+02 1.605677e+01
6.920000e+02 1.704608e+01
6.930000e+02 1.809304e+01
6.940000e+02 1.920081e+01
6.950000e+02 2.037271e+01
6.960000e+02 2.161224e+01
6.970000e+02 2.292284e+01
6.980000e+02 2.430907e+01
6.990000e+02 2.577427e+01
7.000000e+02 2.732295e+01
7.010000e+02 2.895956e+01
7.020000e+02 3.068882e+01
7.030000e+02 3.251566e+01
7.040000e+02 3.444524e+01
7.050000e+02 3.648299e+01
7.060000e+02 3.863463e+01
7.070000e+02 4.090614e+01
7.080000e+02 4.330379e+01
7.090000e+02 4.583407e+01
7.100000e+02 4.850415e+01
7.110000e+02 5.132101e+01
7.120000e+02 5.429232e+01
7.130000e+02 5.742604e+01
7.140000e+02 6.073040e+01
7.150000e+02 6.421434e+01
7.160000e+02 6.788692e+01
7.170000e+02 7.175756e+01
7.180000e+02 7.583609e+01
7.190000e+02 8.013470e+01
7.200000e+02 8.466238e+01
7.210000e+02 8.943141e+01
7.220000e+02 9.445382e+01
7.230000e+02 9.974234e+01
7.240000e+02 1.053101e+02
7.250000e+02 1.111710e+02
7.260000e+02 1.173394e+02
7.270000e+02 1.238305e+02
7.280000e+02 1.306602e+02
7.290000e+02 1.378450e+02
7.300000e+02 1.454023e+02
7.310000e+02 1.533500e+02
7.320000e+02 1.617072e+02
7.330000e+02 1.704935e+02
7.340000e+02 1.797297e+02
7.350000e+02 1.894374e+02
7.360000e+02 1.996389e+02
7.370000e+02 2.103582e+02
7.380000e+02 2.216196e+02
7.390000e+02 2.334487e+02
7.400000e+02 2.458720e+02
7.410000e+02 2.589185e+02
7.420000e+02 2.726162e+02
7.430000e+02 2.869973e+02
7.440000e+02 3.020920e+02
7.450000e+02 3.179340e+02
7.460000e+02 3.345574e+02
7.470000e+02 3.519995e+02
7.480000e+02 3.702973e+02
7.490000e+02 3.894902e+02
7.500000e+02 4.096191e+02
7.510000e+02 4.307267e+02
7.520000e+02 4.528576e+02
7.530000e+02 4.760580e+02
7.540000e+02 5.003764e+02
7.550000e+02 5.258630e+02
7.560000e+02 5.525706e+02
7.570000e+02 5.805469e+02
7.580000e+02 6.098688e+02
7.590000e+02 6.405740e+02
7.600000e+02 6.727360e+02
7.610000e+02 7.064146e+02
7.620000e+02 7.416776e+02
7.630000e+02 7.785945e+02
7.640000e+02 8.172382e+02
7.650000e+02 8.576837e+02
7.660000e+02 9.000104e+02
7.670000e+02 9.442991e+02
7.680000e+02 9.906307e+02
7.690000e+02 1.039106e+03
7.700000e+02 1.089805e+03
7.710000e+02 1.142827e+03
7.720000e+02 1.198271e+03
7.730000e+02 1.256241e+03
7.740000e+02 1.316843e+03
7.750000e+02 1.380190e+03
7.760000e+02 1.446323e+03
7.770000e+02 1.515583e+03
7.780000e+02 1.587877e+03
7.790000e+02 1.663407e+03
7.800000e+02 1.742308e+03
7.810000e+02 1.824721e+03
7.820000e+02 1.910790e+03
7.830000e+02 2.000666e+03
7.840000e+02 2.094510e+03
7.850000e+02 2.192481e+03
7.860000e+02 2.294748e+03
7.870000e+02 2.401494e+03
7.880000e+02 2.512890e+03
7.890000e+02 2.629131e+03
7.900000e+02 2.750412e+03
7.910000e+02 2.876938e+03
7.920000e+02 3.008918e+03
7.930000e+02 3.146572e+03
7.940000e+02 3.290123e+03
7.950000e+02 3.439815e+03
7.960000e+02 3.595885e+03
7.970000e+02 3.758592e+03
7.980000e+02 3.928194e+03
7.990000e+02 4.104963e+03
8.000000e+02 4.289183e+03
8.010000e+02 4.481140e+03
8.020000e+02 4.681149e+03
8.030000e+02 4.889512e+03
8.040000e+02 5.106558e+03
8.050000e+02 5.332611e+03
8.060000e+02 5.568042e+03
8.070000e+02 5.813201e+03
8.080000e+02 6.068460e+03
8.090000e+02 6.334208e+03
8.100000e+02 6.610844e+03
8.110000e+02 6.898781e+03
8.120000e+02 7.198452e+03
8.130000e+02 7.510298e+03
8.140000e+02 7.834778e+03
8.150000e+02 8.172359e+03
8.160000e+02 8.523562e+03
8.170000e+02 8.888864e+03
8.180000e+02 9.268805e+03
8.190000e+02 9.663926e+03
8.200000e+02 1.007479e+04
8.210000e+02 1.050198e+04
8.220000e+02 1.094610e+04
8.230000e+02 1.140777e+04
8.240000e+02 1.188763e+04
8.250000e+02 1.238635e+04
8.260000e+02 1.290462e+04
8.270000e+02 1.344314e+04
8.280000e+02 1.400265e+04
8.290000e+02 1.458391e+04
8.300000e+02 1.518770e+04
8.310000e+02 1.581480e+04
8.320000e+02 1.646611e+04
8.330000e+02 1.714245e+04
8.340000e+02 1.784473e+04
8.350000e+02 1.857270e+04
8.360000e+02 1.933073e+04
8.370000e+02 2.011652e+04
8.380000e+02 2.093195e+04
8.390000e+02 2.177838e+04
8.400000e+02 2.265667e+04
8.410000e+02 2.356798e+04
8.420000e+02 2.451314e+04
8.430000e+02 2.549438e+04
8.440000e+02 2.651187e+04
8.450000e+02 2.756723e+04
8.460000e+02 2.866177e+04
8.470000e+02 2.979681e+04
8.480000e+02 3.097375e+04
8.490000e+02 3.219402e+04
8.500000e+02 3.345910e+04
8.510000e+02 3.477050e+04
8.520000e+02 3.612975e+04
8.530000e+02 3.753858e+04
8.540000e+02 3.899869e+04
8.550000e+02 4.051156e+04
8.560000e+02 4.207910e+04
8.570000e+02 4.370303e+04
8.580000e+02 4.538542e+04
8.590000e+02 4.712806e+04
8.600000e+02 4.893306e+04
8.610000e+02 5.080242e+04
8.620000e+02 5.273825e+04
8.630000e+02 5.474270e+04
8.640000e+02 5.681814e+04
8.650000e+02 5.896668e+04
8.660000e+02 6.119097e+04
8.670000e+02 6.349325e+04
8.680000e+02 6.587611e+04
8.690000e+02 6.834215e+04
8.700000e+02 7.089394e+04
8.710000e+02 7.353459e+04
8.720000e+02 7.626657e+04
8.730000e+02 7.909294e+04
8.740000e+02 8.201668e+04
8.750000e+02 8.504090e+04
8.760000e+02 8.816877e+04
8.770000e+02 9.140344e+04
8.780000e+02 9.474869e+04
8.790000e+02 9.820755e+04
8.800000e+02 1.017837e+05
8.810000e+02 1.054807e+05
8.820000e+02 1.093026e+05
8.830000e+02 1.132532e+05
8.840000e+02 1.173364e+05
8.850000e+02 1.215563e+05
8.860000e+02 1.259169e+05
8.870000e+02 1.304230e+05
8.880000e+02 1.350788e+05
8.890000e+02 1.398889e+05
8.900000e+02 1.448580e+05
8.910000e+02 1.499909e+05
8.920000e+02 1.551464e+05
8.930000e+02 1.607682e+05
8.940000e+02 1.664229e+05
8.950000e+02 1.722620e+05
8.960000e+02 1.782915e+05
8.970000e+02 1.845165e+05
8.980000e+02 1.909432e+05
8.990000e+02 1.975774e+05
9.000000e+02 2.044254e+05
9.010000e+02 2.114934e+05
9.020000e+02 2.187880e+05
9.030000e+02 2.263158e+05
9.040000e+02 2.340815e+05
9.050000e+02 2.420979e+05
9.060000e+02 2.503674e+05
9.070000e+02 2.588956e+05
9.080000e+02 2.676987e+05
9.090000e+02 2.767762e+05
9.100000e+02 2.861388e+05
9.110000e+02 2.957955e+05
9.120000e+02 3.057581e+05
9.130000e+02 3.130871e+05
9.140000e+02 3.295379e+05
9.150000e+02 8.927064e+05
9.160000e+02 2.435151e+06
9.170000e+02 2.587370e+06
9.180000e+02 2.188585e+06
9.190000e+02 3.518389e+06
9.200000e+02 3.917603e+06
9.210000e+02 4.011295e+05
9.220000e+02 4.228600e+06
9.230000e+02 2.773801e+06
9.240000e+02 3.978762e+06
9.250000e+02 4.545998e+06
9.260000e+02 3.716974e+06
9.270000e+02 4.816037e+06
9.280000e+02 5.025886e+06
9.290000e+02 4.560166e+06
9.300000e+02 5.161956e+06
9.310000e+02 4.369516e+06
9.320000e+02 5.567509e+06
9.330000e+02 5.728104e+06
9.340000e+02 5.890432e+06
9.350000e+02 1.508154e+06
9.360000e+02 5.926708e+06
9.370000e+02 1.186850e+06
9.380000e+02 3.303181e+06
9.390000e+02 6.538761e+06
9.400000e+02 6.866990e+06
9.410000e+02 3.016990e+06
9.420000e+02 7.237202e+06
9.430000e+02 7.383945e+06
9.440000e+02 5.343535e+06
9.450000e+02 7.805962e+06
9.460000e+02 7.992824e+06
9.470000e+02 6.884467e+06
9.480000e+02 7.287282e+06
9.490000e+02 8.397297e+06
9.500000e+02 1.775809e+06
9.510000e+02 8.700591e+06
9.520000e+02 9.278245e+06
9.530000e+02 8.982559e+06
9.540000e+02 8.225251e+06
9.550000e+02 9.980173e+06
9.560000e+02 8.800615e+06
9.570000e+02 7.029198e+06
9.580000e+02 9.674544e+06
9.590000e+02 1.111477e+07
9.600000e+02 2.323749e+06
9.610000e+02 1.165224e+07
9.620000e+02 1.188199e+07
9.630000e+02 1.221996e+07
9.640000e+02 1.607258e+06
9.650000e+02 1.162267e+07
9.660000e+02 1.311626e+07
9.670000e+02 1.321860e+07
9.680000e+02 1.310410e+07
9.690000e+02 1.402883e+07
9.700000e+02 1.438524e+07
9.710000e+02 1.432880e+07
9.720000e+02 1.350454e+07
9.730000e+02 1.346967e+07
9.740000e+02 1.567670e+07
9.750000e+02 1.620599e+07
9.760000e+02 1.675191e+07
9.770000e+02 1.715096e+07
9.780000e+02 1.746633e+07
9.790000e+02 1.803294e+07
9.800000e+02 1.846357e+07
9.810000e+02 1.884288e+07
9.820000e+02 1.899204e+07
9.830000e+02 1.980438e+07
9.840000e+02 8.938547e+06
9.850000e+02 2.064686e+07
9.860000e+02 2.108522e+07
9.870000e+02 2.173765e+07
9.880000e+02 2.114272e+07
9.890000e+02 1.794155e+07
9.900000e+02 3.881570e+06
9.910000e+02 2.282404e+07
9.920000e+02 1.975686e+07
9.930000e+02 2.383546e+07
9.940000e+02 4.514660e+06
9.950000e+02 8.042553e+06
9.960000e+02 1.454192e+07
9.970000e+02 6.645986e+06
9.980000e+02 2.787893e+07
9.990000e+02 2.765953e+07
1.000000e+03 2.928810e+07
1.001000e+03 2.997390e+07
1.002000e+03 3.063245e+07
1.003000e+03 2.879864e+07
1.004000e+03 3.094677e+07
1.005000e+03 2.978898e+07
1.006000e+03 3.350614e+07
1.007000e+03 3.424372e+07
1.008000e+03 3.497326e+07
1.009000e+03 3.469968e+07
1.010000e+03 3.658091e+07
1.011000e+03 3.741200e+07
1.012000e+03 3.820571e+07
1.013000e+03 3.903634e+07
1.014000e+03 3.328069e+07
1.015000e+03 3.788408e+07
1.016000e+03 4.088512e+07
1.017000e+03 3.649510e+07
1.018000e+03 4.298664e+07
1.019000e+03 4.201304e+07
1.020000e+03 4.531039e+07
1.021000e+03 2.733661e+07
1.022000e+03 4.253982e+07
1.023000e+03 4.431572e+07
1.024000e+03 4.543409e+07
1.025000e+03 3.255479e+07
1.026000e+03 1.834226e+07
1.027000e+03 4.632108e+07
1.028000e+03 1.440757e+07
1.029000e+03 4.707148e+07
1.030000e+03 5.518228e+07
1.031000e+03 5.657568e+07
1.032000e+03 5.836246e+07
1.033000e+03 2.672250e+07
1.034000e+03 6.115944e+07
1.035000e+03 1.455200e+07
1.036000e+03 5.378906e+07
1.037000e+03 1.410872e+07
1.038000e+03 6.693170e+07
1.039000e+03 6.779497e+07
1.040000e+03 6.973044e+07
1.041000e+03 7.076350e+07
1.042000e+03 7.181277e+07
1.043000e+03 7.182011e+07
1.044000e+03 7.576295e+07
1.045000e+03 7.734141e+07
1.046000e+03 7.913226e+07
1.047000e+03 8.023133e+07
1.048000e+03 7.855654e+07
1.049000e+03 8.243546e+07
1.050000e+03 8.554780e+07
1.051000e+03 8.682265e+07
1.052000e+03 8.945740e+07
1.053000e+03 9.037727e+07
1.054000e+03 7.852506e+07
1.055000e+03 9.479106e+07
1.056000e+03 9.712685e+07
1.057000e+03 9.867997e+07
1.058000e+03 1.006365e+08
1.059000e+03 9.983366e+07
1.060000e+03 1.010502e+08
1.061000e+03 1.070364e+08
1.062000e+03 1.086275e+08
1.063000e+03 4.617628e+07
1.064000e+03 2.671736e+07
1.065000e+03 1.026604e+08
1.066000e+03 1.021401e+08
1.067000e+03 1.142247e+08
1.068000e+03 1.242367e+08
1.069000e+03 1.138246e+08
1.070000e+03 1.275887e+08
1.071000e+03 1.318429e+08
1.072000e+03 1.344103e+08
1.073000e+03 1.242039e+08
1.074000e+03 1.387690e+08
1.075000e+03 1.410581e+08
1.076000e+03 1.453171e+08
1.077000e+03 1.455445e+08
1.078000e+03 1.499618e+08
1.079000e+03 1.530391e+08
1.080000e+03 1.564617e+08
1.081000e+03 1.597050e+08
1.082000e+03 1.627897e+08
1.083000e+03 1.657079e+08
1.084000e+03 1.690222e+08
1.085000e+03 1.384249e+08
1.086000e+03 1.760895e+08
1.087000e+03 1.741038e+08
1.088000e+03 1.824404e+08
1.089000e+03 1.863188e+08
1.090000e+03 1.876831e+08
1.091000e+03 1.909129e+08
1.092000e+03 1.970804e+08
1.093000e+03 2.006748e+08
1.094000e+03 2.042936e+08
1.095000e+03 2.082969e+08
1.096000e+03 2.121047e+08
1.097000e+03 2.146552e+08
1.098000e+03 2.181987e+08
1.099000e+03 2.236277e+08
1.100000e+03 2.171100e+08
1.101000e+03 2.100780e+08
1.102000e+03 4.368566e+08
1.103000e+03 1.348874e+09
1.104000e+03 5.522904e+08
1.105000e+03 2.318241e+08
1.106000e+03 2.551104e+09
1.107000e+03 8.545190e+08
1.108000e+03 2.832838e+09
1.109000e+03 1.389425e+09
1.110000e+03 6.994805e+08
1.111000e+03 5.019556e+08
1.112000e+03 2.605252e+09
1.113000e+03 3.173822e+09
1.114000e+03 1.898436e+08
1.115000e+03 2.366811e+09
1.116000e+03 2.155128e+09
1.117000e+03 2.042675e+08
1.118000e+03 1.824632e+09
1.119000e+03 3.213103e+09
1.120000e+03 2.404793e+09
1.121000e+03 2.981941e+09
1.122000e+03 8.283827e+07
1.123000e+03 4.363859e+08
1.124000e+03 3.549477e+09
1.125000e+03 1.837711e+09
1.126000e+03 3.754315e+09
1.127000e+03 3.656655e+09
1.128000e+03 1.402907e+09
1.129000e+03 3.533067e+09
1.130000e+03 3.369325e+09
1.131000e+03 3.986700e+09
1.132000e+03 2.327488e+08
1.133000e+03 2.408214e+09
1.134000e+03 3.730478e+09
1.135000e+03 1.403587e+08
1.136000e+03 3.431244e+09
1.137000e+03 4.280748e+09
1.138000e+03 3.968948e+09
1.139000e+03 4.307581e+09
1.140000e+03 1.437112e+08
1.141000e+03 4.474943e+09
1.142000e+03 4.479355e+09
1.143000e+03 4.555510e+09
1.144000e+03 4.745932e+09
1.145000e+03 2.226911e+09
1.146000e+03 4.875506e+09
1.147000e+03 4.828773e+09
1.148000e+03 3.473592e+09
1.149000e+03 4.997178e+09
1.150000e+03 4.680215e+09
1.151000e+03 5.166649e+09
1.152000e+03 5.171294e+09
1.153000e+03 1.686174e+09
1.154000e+03 4.998799e+08
1.155000e+03 4.607796e+09
1.156000e+03 1.633604e+09
1.157000e+03 5.583873e+09
1.158000e+03 2.170821e+08
1.159000e+03 4.846898e+09
1.160000e+03 5.131712e+09
1.161000e+03 5.858617e+09
1.162000e+03 1.387586e+09
1.163000e+03 5.154941e+09
1.164000e+03 2.802250e+08
1.165000e+03 6.176934e+09
1.166000e+03 6.106558e+09
1.167000e+03 5.950925e+09
1.168000e+03 6.480000e+09
1.169000e+03 6.427129e+09
1.170000e+03 6.570225e+09
1.171000e+03 6.631967e+09
1.172000e+03 5.984542e+09
1.173000e+03 6.929286e+09
1.174000e+03 4.740318e+09
1.175000e+03 3.212564e+08
1.176000e+03 2.804280e+08
1.177000e+03 7.307434e+09
1.178000e+03 6.973382e+09
1.179000e+03 7.485510e+09
1.180000e+03 5.372208e+09
1.181000e+03 7.652063e+09
1.182000e+03 7.740823e+09
1.183000e+03 7.722665e+09
1.184000e+03 7.735911e+09
1.185000e+03 7.837789e+09
1.186000e+03 7.180104e+09
1.187000e+03 8.106143e+09
1.188000e+03 7.470417e+09
1.189000e+03 3.504876e+08
1.190000e+03 1.492356e+09
1.191000e+03 8.151325e+09
1.192000e+03 8.381347e+09
1.193000e+03 3.282540e+08
1.194000e+03 3.969239e+08
1.195000e+03 5.923669e+09
1.196000e+03 8.442756e+09
1.197000e+03 1.148744e+10
1.198000e+03 1.046535e+10
1.199000e+03 1.128992e+10
1.200000e+03 9.420918e+09
1.201000e+03 1.061612e+10
1.202000e+03 9.893692e+09
1.203000e+03 1.210339e+10
1.204000e+03 9.473498e+09
1.205000e+03 1.025771e+10
1.206000e+03 8.975724e+09
1.207000e+03 2.097847e+09
1.208000e+03 7.296407e+09
1.209000e+03 5.646481e+09
1.210000e+03 5.409295e+08
1.211000e+03 3.476871e+09
1.212000e+03 2.339911e+09
1.213000e+03 1.500881e+09
1.214000e+03 8.911330e+08
1.215000e+03 5.644876e+08
1.216000e+03 5.135434e+08
1.217000e+03 7.840876e+08
1.218000e+03 1.359896e+09
1.219000e+03 2.288145e+09
1.220000e+03 3.477422e+09
1.221000e+03 5.033423e+09
1.222000e+03 6.666039e+09
1.223000e+03 8.483054e+09
1.224000e+03 1.039497e+10
1.225000e+03 1.080285e+10
1.226000e+03 1.409777e+10
1.227000e+03 1.584807e+10
1.228000e+03 1.634669e+10
1.229000e+03 1.892795e+10
1.230000e+03 1.983114e+10
1.231000e+03 2.019949e+10
1.232000e+03 2.463341e+10
1.233000e+03 2.624221e+10
1.234000e+03 1.766170e+10
1.235000e+03 2.883134e+10
1.236000e+03 2.522614e+10
1.237000e+03 3.147526e+10
1.238000e+03 3.152251e+10
1.239000e+03 3.274111e+10
1.240000e+03 3.105391e+10
1.241000e+03 5.079149e+10
1.242000e+03 2.917157e+10
1.243000e+03 4.592941e+10
1.244000e+03 1.810950e+10
1.245000e+03 2.713689e+10
1.246000e+03 7.839215e+10
1.247000e+03 7.798141e+10
1.248000e+03 1.902050e+10
1.249000e+03 2.452768e+10
1.250000e+03 9.307555e+10
1.251000e+03 1.027609e+11
1.252000e+03 9.644003e+10
1.253000e+03 1.062267e+11
1.254000e+03 9.873940e+10
1.255000e+03 1.130696e+11
1.256000e+03 1.040261e+11
1.257000e+03 1.157644e+11
1.258000e+03 9.199824e+10
1.259000e+03 1.079659e+11
1.260000e+03 1.033594e+11
1.261000e+03 1.092225e+09
1.262000e+03 1.093165e+10
1.263000e+03 1.274348e+11
1.264000e+03 9.774843e+10
1.265000e+03 1.117061e+09
1.266000e+03 1.260864e+11
1.267000e+03 1.151414e+11
