# wavelength_A flux
5.000000e+02 1.158320e-34
5.010000e+02 1.483077e-34
5.020000e+02 1.896991e-34
5.030000e+02 2.424018e-34
5.040000e+02 3.094411e-34
5.050000e+02 4.167814e-34
5.060000e+02 5.304570e-34
5.070000e+02 6.741064e-34
5.080000e+02 8.565030e-34
5.090000e+02 1.086791e-33
5.100000e+02 1.298721e-33
5.110000e+02 1.744937e-33
5.120000e+02 2.206806e-33
5.130000e+02 2.791371e-33
5.140000e+02 3.525716e-33
5.150000e+02 4.449147e-33
5.160000e+02 5.609321e-33
5.170000e+02 7.066367e-33
5.180000e+02 8.893545e-33
5.190000e+02 1.118330e-32
5.200000e+02 1.405023e-32
5.210000e+02 1.763664e-32
5.220000e+02 2.211242e-32
5.230000e+02 2.771742e-32
5.240000e+02 3.470342e-32
5.250000e+02 4.341241e-32
5.260000e+02 5.426074e-32
5.270000e+02 6.776264e-32
5.280000e+02 8.455316e-32
5.290000e+02 1.054159e-31
5.300000e+02 1.313171e-31
5.310000e+02 1.634470e-31
5.320000e+02 2.032708e-31
5.330000e+02 2.525906e-31
5.340000e+02 3.136213e-31
5.350000e+02 3.890817e-31
5.360000e+02 4.823026e-31
5.370000e+02 5.860775e-31
5.380000e+02 7.393488e-31
5.390000e+02 9.143356e-31
5.400000e+02 1.129826e-30
5.410000e+02 1.394926e-30
5.420000e+02 1.721076e-30
5.430000e+02 2.121713e-30
5.440000e+02 2.613590e-30
5.450000e+02 3.217023e-30
5.460000e+02 3.956749e-30
5.470000e+02 4.862866e-30
5.480000e+02 5.971963e-30
5.490000e+02 7.328493e-30
5.500000e+02 8.986421e-30
5.510000e+02 1.101121e-29
5.520000e+02 1.348221e-29
5.530000e+02 1.649554e-29
5.540000e+02 2.016750e-29
5.550000e+02 2.463898e-29
5.560000e+02 3.007992e-29
5.570000e+02 3.669581e-29
5.580000e+02 4.473465e-29
5.590000e+02 5.449552e-29
5.600000e+02 6.633893e-29
5.610000e+02 8.069906e-29
5.620000e+02 9.809854e-29
5.630000e+02 1.191659e-28
5.640000e+02 1.446568e-28
5.650000e+02 1.754786e-28
5.660000e+02 2.127206e-28
5.670000e+02 2.576896e-28
5.680000e+02 3.119517e-28
5.690000e+02 3.773831e-28
5.700000e+02 4.562300e-28
5.710000e+02 5.511794e-28
5.720000e+02 6.654438e-28
5.730000e+02 8.028610e-28
5.740000e+02 9.680136e-28
5.750000e+02 1.166370e-27
5.760000e+02 1.404457e-27
5.770000e+02 1.690059e-27
5.780000e+02 2.032384e-27
5.790000e+02 2.442468e-27
5.800000e+02 2.933409e-27
5.810000e+02 3.520774e-27
5.820000e+02 4.223051e-27
5.830000e+02 5.062154e-27
5.840000e+02 6.062583e-27
5.850000e+02 7.259747e-27
5.860000e+02 8.686512e-27
5.870000e+02 1.038667e-26
5.880000e+02 1.241185e-26
5.890000e+02 1.482278e-26
5.900000e+02 1.769117e-26
5.910000e+02 2.110179e-26
5.920000e+02 2.515469e-26
5.930000e+02 2.996794e-26
5.940000e+02 3.568078e-26
5.950000e+02 4.245732e-26
5.960000e+02 5.049089e-26
5.970000e+02 6.000907e-26
5.980000e+02 7.127962e-26
5.990000e+02 8.461743e-26
6.000000e+02 1.003925e-25
6.010000e+02 1.190396e-25
6.020000e+02 1.410689e-25
6.030000e+02 1.670789e-25
6.040000e+02 1.977718e-25
6.050000e+02 2.339700e-25
6.060000e+02 2.766372e-25
6.070000e+02 3.269014e-25
6.080000e+02 3.860822e-25
6.090000e+02 4.557229e-25
6.100000e+02 5.376270e-25
6.110000e+02 6.339015e-25
6.120000e+02 7.470059e-25
6.130000e+02 8.798101e-25
6.140000e+02 1.035661e-24
6.150000e+02 1.218461e-24
6.160000e+02 1.432753e-24
6.170000e+02 1.683831e-24
6.180000e+02 1.977853e-24
6.190000e+02 2.321983e-24
6.200000e+02 2.724548e-24
6.210000e+02 3.195227e-24
6.220000e+02 3.745258e-24
6.230000e+02 4.387686e-24
6.240000e+02 5.137647e-24
6.250000e+02 6.012692e-24
6.260000e+02 7.033164e-24
6.270000e+02 8.222628e-24
6.280000e+02 9.608370e-24
6.290000e+02 1.122197e-23
6.300000e+02 1.309994e-23
6.310000e+02 1.528053e-23
6.320000e+02 1.782454e-23
6.330000e+02 2.077632e-23
6.340000e+02 2.420497e-23
6.350000e+02 2.818535e-23
6.360000e+02 3.280470e-23
6.370000e+02 3.816224e-23
6.380000e+02 4.437322e-23
6.390000e+02 5.157015e-23
6.400000e+02 5.990556e-23
6.410000e+02 6.955496e-23
6.420000e+02 8.072022e-23
6.430000e+02 9.363339e-23
6.440000e+02 1.085611e-22
6.450000e+02 1.258096e-22
6.460000e+02 1.457306e-22
6.470000e+02 1.687273e-22
6.480000e+02 1.952625e-22
6.490000e+02 2.258667e-22
6.500000e+02 2.611478e-22
6.510000e+02 3.018021e-22
6.520000e+02 3.486267e-22
6.530000e+02 4.025340e-22
6.540000e+02 4.645676e-22
6.550000e+02 5.359206e-22
6.560000e+02 6.179569e-22
6.570000e+02 7.122345e-22
6.580000e+02 8.205324e-22
6.590000e+02 9.448813e-22
6.600000e+02 1.087598e-21
6.610000e+02 1.251325e-21
6.620000e+02 1.439075e-21
6.630000e+02 1.654279e-21
6.640000e+02 1.900847e-21
6.650000e+02 2.183231e-21
6.660000e+02 2.506498e-21
6.670000e+02 2.876406e-21
6.680000e+02 3.299509e-21
6.690000e+02 3.783257e-21
6.700000e+02 4.336111e-21
6.710000e+02 4.967682e-21
6.720000e+02 5.688883e-21
6.730000e+02 6.512094e-21
6.740000e+02 7.451361e-21
6.750000e+02 8.522611e-21
6.760000e+02 9.743896e-21
6.770000e+02 1.113567e-20
6.780000e+02 1.272109e-20
6.790000e+02 1.452639e-20
6.800000e+02 1.658124e-20
6.810000e+02 1.891922e-20
6.820000e+02 2.157829e-20
6.830000e+02 2.460135e-20
6.840000e+02 2.803690e-20
6.850000e+02 3.193971e-20
6.860000e+02 3.637159e-20
6.870000e+02 4.140235e-20
6.880000e+02 4.711072e-20
6.890000e+02 5.358550e-20
6.900000e+02 6.092680e-20
6.910000e+02 6.924742e-20
6.920000e+02 7.867447e-20
6.930000e+02 8.935105e-20
6.940000e+02 1.014383e-19
6.950000e+02 1.151175e-19
6.960000e+02 1.305925e-19
6.970000e+02 1.480928e-19
6.980000e+02 1.678760e-19
6.990000e+02 1.902319e-19
7.000000e+02 2.154858e-19
7.010000e+02 2.440030e-19
7.020000e+02 2.761936e-19
7.030000e+02 3.125177e-19
7.040000e+02 3.534915e-19
7.050000e+02 3.996937e-19
7.060000e+02 4.517722e-19
7.070000e+02 5.104562e-19
7.080000e+02 5.765575e-19
7.090000e+02 6.509887e-19
7.100000e+02 7.347701e-19
7.110000e+02 8.290436e-19
7.120000e+02 9.350866e-19
7.130000e+02 1.054328e-18
7.140000e+02 1.188363e-18
7.150000e+02 1.338977e-18
7.160000e+02 1.508162e-18
7.170000e+02 1.698145e-18
7.180000e+02 1.911410e-18
7.190000e+02 2.150730e-18
7.200000e+02 2.419199e-18
7.210000e+02 2.720266e-18
7.220000e+02 3.057779e-18
7.230000e+02 3.436023e-18
7.240000e+02 3.859776e-18
7.250000e+02 4.334358e-18
7.260000e+02 4.865692e-18
7.270000e+02 5.460373e-18
7.280000e+02 6.125736e-18
7.290000e+02 6.869946e-18
7.300000e+02 7.702078e-18
7.310000e+02 8.632222e-18
7.320000e+02 9.671593e-18
7.330000e+02 1.083265e-17
7.340000e+02 1.212924e-17
7.350000e+02 1.357671e-17
7.360000e+02 1.519212e-17
7.370000e+02 1.699441e-17
7.380000e+02 1.900455e-17
7.390000e+02 2.124584e-17
7.400000e+02 2.374409e-17
7.410000e+02 2.652790e-17
7.420000e+02 2.962897e-17
7.430000e+02 3.308240e-17
7.440000e+02 3.692708e-17
7.450000e+02 4.120604e-17
7.460000e+02 4.596690e-17
7.470000e+02 5.126235e-17
7.480000e+02 5.715068e-17
7.490000e+02 6.369633e-17
7.500000e+02 7.097051e-17
7.510000e+02 7.905195e-17
7.520000e+02 8.802761e-17
7.530000e+02 9.799351e-17
7.540000e+02 1.090557e-16
7.550000e+02 1.213313e-16
7.560000e+02 1.349493e-16
7.570000e+02 1.500523e-16
7.580000e+02 1.667975e-16
7.590000e+02 1.853581e-16
7.600000e+02 2.059251e-16
7.610000e+02 2.287089e-16
7.620000e+02 2.539415e-16
7.630000e+02 2.818781e-16
7.640000e+02 3.127999e-16
7.650000e+02 3.470164e-16
7.660000e+02 3.848682e-16
7.670000e+02 4.267300e-16
7.680000e+02 4.730138e-16
7.690000e+02 5.241728e-16
7.700000e+02 5.807054e-16
7.710000e+02 6.431586e-16
7.720000e+02 7.121340e-16
7.730000e+02 7.882923e-16
7.740000e+02 8.723589e-16
7.750000e+02 9.651304e-16
7.760000e+02 1.067481e-15
7.770000e+02 1.180369e-15
7.780000e+02 1.304848e-15
7.790000e+02 1.442070e-15
7.800000e+02 1.593302e-15
7.810000e+02 1.759930e-15
7.820000e+02 1.943474e-15
7.830000e+02 2.145598e-15
7.840000e+02 2.368126e-15
7.850000e+02 2.613056e-15
7.860000e+02 2.882573e-15
7.870000e+02 3.179070e-15
7.880000e+02 3.505164e-15
7.890000e+02 3.863720e-15
7.900000e+02 4.257871e-15
7.910000e+02 4.691040e-15
7.920000e+02 5.166970e-15
7.930000e+02 5.689757e-15
7.940000e+02 6.263867e-15
7.950000e+02 6.894184e-15
7.960000e+02 7.586040e-15
7.970000e+02 8.345258e-15
7.980000e+02 9.178193e-15
7.990000e+02 1.009178e-14
8.000000e+02 1.109359e-14
8.010000e+02 1.219187e-14
8.020000e+02 1.339562e-14
8.030000e+02 1.471465e-14
8.040000e+02 1.615968e-14
8.050000e+02 1.774212e-14
8.060000e+02 1.947533e-14
8.070000e+02 2.137250e-14
8.080000e+02 2.344890e-14
8.090000e+02 2.572094e-14
8.100000e+02 2.820647e-14
8.110000e+02 3.092491e-14
8.120000e+02 3.389741e-14
8.130000e+02 3.714696e-14
8.140000e+02 4.069855e-14
8.150000e+02 4.457939e-14
8.160000e+02 4.881903e-14
8.170000e+02 5.344957e-14
8.180000e+02 5.850593e-14
8.190000e+02 6.402602e-14
8.200000e+02 7.005100e-14
8.210000e+02 7.662558e-14
8.220000e+02 8.379831e-14
8.230000e+02 9.162185e-14
8.240000e+02 1.001534e-13
8.250000e+02 1.094549e-13
8.260000e+02 1.195937e-13
8.270000e+02 1.306427e-13
8.280000e+02 1.426810e-13
8.290000e+02 1.557943e-13
8.300000e+02 1.700755e-13
8.310000e+02 1.856253e-13
8.320000e+02 2.025528e-13
8.330000e+02 2.209760e-13
8.340000e+02 2.410228e-13
8.350000e+02 2.628316e-13
8.360000e+02 2.865525e-13
8.370000e+02 3.123475e-13
8.380000e+02 3.403920e-13
8.390000e+02 3.708759e-13
8.400000e+02 4.040043e-13
8.410000e+02 4.399994e-13
8.420000e+02 4.791009e-13
8.430000e+02 5.215682e-13
8.440000e+02 5.676815e-13
8.450000e+02 6.177437e-13
8.460000e+02 6.720817e-13
8.470000e+02 7.310486e-13
8.480000e+02 7.950261e-13
8.490000e+02 8.644257e-13
8.500000e+02 9.396914e-13
8.510000e+02 1.021304e-12
8.520000e+02 1.109779e-12
8.530000e+02 1.205676e-12
8.540000e+02 1.309596e-12
8.550000e+02 1.422188e-12
8.560000e+02 1.544153e-12
8.570000e+02 1.676243e-12
8.580000e+02 1.819272e-12
8.590000e+02 1.974117e-12
8.600000e+02 2.141718e-12
8.610000e+02 2.323094e-12
8.620000e+02 2.519338e-12
8.630000e+02 2.731627e-12
8.640000e+02 2.961229e-12
8.650000e+02 3.209513e-12
8.660000e+02 3.477942e-12
8.670000e+02 3.768098e-12
8.680000e+02 4.081680e-12
8.690000e+02 4.420516e-12
8.700000e+02 4.786565e-12
8.710000e+02 5.181957e-12
8.720000e+02 5.608944e-12
8.730000e+02 6.069976e-12
8.740000e+02 6.567671e-12
8.750000e+02 7.104847e-12
8.760000e+02 7.684530e-12
8.770000e+02 8.309968e-12
8.780000e+02 8.984642e-12
8.790000e+02 9.712321e-12
8.800000e+02 1.049700e-11
8.810000e+02 1.134300e-11
8.820000e+02 1.225496e-11
8.830000e+02 1.323782e-11
8.840000e+02 1.429693e-11
8.850000e+02 1.543799e-11
8.860000e+02 1.666713e-11
8.870000e+02 1.799090e-11
8.880000e+02 1.941634e-11
8.890000e+02 2.095100e-11
8.900000e+02 2.260295e-11
8.910000e+02 2.438084e-11
8.920000e+02 2.629395e-11
8.930000e+02 2.835221e-11
8.940000e+02 3.056623e-11
8.950000e+02 3.294741e-11
8.960000e+02 3.550792e-11
8.970000e+02 3.826079e-11
8.980000e+02 4.121997e-11
8.990000e+02 4.440040e-11
9.000000e+02 4.781802e-11
9.010000e+02 5.148992e-11
9.020000e+02 5.543433e-11
9.030000e+02 5.967075e-11
9.040000e+02 6.422015e-11
9.050000e+02 6.910474e-11
9.060000e+02 7.434835e-11
9.070000e+02 7.997646e-11
9.080000e+02 8.601625e-11
9.090000e+02 9.249679e-11
9.100000e+02 9.944910e-11
9.110000e+02 1.069063e-10
9.120000e+02 1.149038e-10
9.130000e+02 1.234792e-10
9.140000e+02 1.649623e-10
9.150000e+02 2.832773e-08
9.160000e+02 7.800459e-08
9.170000e+02 7.235600e-10
9.180000e+02 3.563904e-08
9.190000e+02 1.673228e-07
9.200000e+02 2.976962e-07
9.210000e+02 2.183411e-10
9.220000e+02 6.263001e-08
9.230000e+02 1.188708e-09
9.240000e+02 1.005681e-09
9.250000e+02 1.051819e-08
9.260000e+02 4.780600e-08
9.270000e+02 1.074660e-09
9.280000e+02 7.505059e-07
9.290000e+02 8.069096e-07
9.300000e+02 3.781603e-07
9.310000e+02 2.033891e-09
9.320000e+02 4.635853e-07
9.330000e+02 5.395196e-08
9.340000e+02 1.657020e-08
9.350000e+02 2.068950e-08
9.360000e+02 3.452044e-09
9.370000e+02 1.435001e-09
9.380000e+02 1.161334e-08
9.390000e+02 1.103632e-08
9.400000e+02 4.286359e-07
9.410000e+02 1.106742e-07
9.420000e+02 2.282080e-06
9.430000e+02 1.611215e-08
9.440000e+02 2.531986e-06
9.450000e+02 2.043458e-06
9.460000e+02 1.712670e-07
9.470000e+02 1.358806e-09
9.480000e+02 9.214826e-07
9.490000e+02 4.932016e-07
9.500000e+02 3.811628e-08
9.510000e+02 2.269788e-07
9.520000e+02 3.967394e-07
9.530000e+02 5.040993e-09
9.540000e+02 2.093088e-09
9.550000e+02 3.802029e-08
9.560000e+02 1.887245e-06
9.570000e+02 2.375722e-08
9.580000e+02 2.680515e-09
9.590000e+02 6.569913e-07
9.600000e+02 7.370096e-08
9.610000e+02 3.057438e-07
9.620000e+02 1.306626e-07
9.630000e+02 2.248112e-08
9.640000e+02 8.359137e-09
9.650000e+02 4.497338e-09
9.660000e+02 4.385936e-08
9.670000e+02 9.983353e-09
9.680000e+02 8.173856e-09
9.690000e+02 2.065437e-07
9.700000e+02 4.005915e-07
9.710000e+02 1.656173e-08
9.720000e+02 9.588149e-09
9.730000e+02 3.080451e-07
9.740000e+02 4.383394e-07
9.750000e+02 1.046544e-07
9.760000e+02 2.877895e-06
9.770000e+02 1.304518e-06
9.780000e+02 6.423680e-07
9.790000e+02 1.292182e-05
9.800000e+02 8.400548e-06
9.810000e+02 3.786372e-07
9.820000e+02 8.625238e-08
9.830000e+02 6.988175e-06
9.840000e+02 2.574704e-06
9.850000e+02 1.911637e-07
9.860000e+02 3.274263e-07
9.870000e+02 6.380652e-06
9.880000e+02 1.858416e-08
9.890000e+02 1.864805e-06
9.900000e+02 5.450760e-06
9.910000e+02 1.123712e-07
9.920000e+02 2.262528e-08
9.930000e+02 2.114655e-05
9.940000e+02 8.201118e-08
9.950000e+02 2.342774e-06
9.960000e+02 4.152207e-08
9.970000e+02 6.455162e-06
9.980000e+02 6.678065e-06
9.990000e+02 1.843564e-07
1.000000e+03 4.339839e-05
1.001000e+03 3.513005e-05
1.002000e+03 2.213755e-05
1.003000e+03 1.822773e-07
1.004000e+03 4.676804e-08
1.005000e+03 6.525552e-07
1.006000e+03 1.767410e-05
1.007000e+03 3.053993e-05
1.008000e+03 1.118494e-05
1.009000e+03 2.931294e-07
1.010000e+03 1.076877e-05
1.011000e+03 1.148323e-05
1.012000e+03 1.649124e-05
1.013000e+03 1.650102e-05
1.014000e+03 8.309507e-08
1.015000e+03 8.929783e-08
1.016000e+03 1.038796e-06
1.017000e+03 9.877476e-08
1.018000e+03 3.039941e-07
1.019000e+03 1.110529e-07
1.020000e+03 3.027017e-05
1.021000e+03 7.392518e-07
1.022000e+03 9.995820e-07
1.023000e+03 1.478184e-07
1.024000e+03 2.583360e-05
1.025000e+03 1.558087e-07
1.026000e+03 3.366050e-07
1.027000e+03 4.699800e-06
1.028000e+03 2.251880e-06
1.029000e+03 1.951466e-07
1.030000e+03 3.157613e-06
1.031000e+03 8.088411e-06
1.032000e+03 6.908357e-05
1.033000e+03 1.205485e-05
1.034000e+03 9.036120e-06
1.035000e+03 2.013243e-06
1.036000e+03 2.881152e-07
1.037000e+03 4.716040e-05
1.038000e+03 1.827153e-04
1.039000e+03 5.363590e-05
1.040000e+03 3.787062e-05
1.041000e+03 1.536367e-04
1.042000e+03 1.325175e-04
1.043000e+03 1.695502e-04
1.044000e+03 4.332943e-04
1.045000e+03 1.318111e-06
1.046000e+03 4.390054e-05
1.047000e+03 2.713464e-05
1.048000e+03 9.043761e-07
1.049000e+03 2.327317e-05
1.050000e+03 6.971255e-06
1.051000e+03 4.251720e-06
1.052000e+03 2.069304e-04
1.053000e+03 2.680245e-04
1.054000e+03 7.653944e-07
1.055000e+03 3.208412e-04
1.056000e+03 3.659423e-04
1.057000e+03 7.487670e-05
1.058000e+03 4.019770e-06
1.059000e+03 5.753362e-06
1.060000e+03 1.569162e-06
1.061000e+03 1.294151e-04
1.062000e+03 2.603718e-06
1.063000e+03 1.249487e-04
1.064000e+03 3.043329e-06
1.065000e+03 1.367182e-06
1.066000e+03 1.922098e-04
1.067000e+03 4.205308e-06
1.068000e+03 8.148507e-04
1.069000e+03 1.901182e-06
1.070000e+03 3.342854e-05
1.071000e+03 3.169919e-04
1.072000e+03 1.130172e-03
1.073000e+03 2.068642e-06
1.074000e+03 1.034215e-04
1.075000e+03 6.500271e-05
1.076000e+03 1.276050e-03
1.077000e+03 5.403504e-06
1.078000e+03 7.155817e-06
1.079000e+03 2.792870e-05
1.080000e+03 1.182785e-04
1.081000e+03 4.669623e-04
1.082000e+03 2.818126e-04
1.083000e+03 1.636988e-04
1.084000e+03 2.835743e-03
1.085000e+03 4.741247e-05
1.086000e+03 1.662378e-03
1.087000e+03 1.181709e-05
1.088000e+03 2.960523e-03
1.089000e+03 3.380903e-03
1.090000e+03 3.975135e-05
1.091000e+03 6.232131e-05
1.092000e+03 3.047961e-03
1.093000e+03 4.181460e-03
1.094000e+03 3.470763e-04
1.095000e+03 5.332999e-03
1.096000e+03 2.462645e-03
1.097000e+03 1.802686e-03
1.098000e+03 4.583989e-03
1.099000e+03 1.351633e-04
1.100000e+03 8.262286e-06
1.101000e+03 1.215646e-05
1.102000e+03 1.077422e-04
1.103000e+03 6.245927e-03
1.104000e+03 5.883160e-03
1.105000e+03 6.781021e-03
1.106000e+03 4.413062e-04
1.107000e+03 1.243385e-05
1.108000e+03 2.219662e-03
1.109000e+03 7.107947e-05
1.110000e+03 6.858610e-03
1.111000e+03 5.633347e-03
1.112000e+03 1.205847e-03
1.113000e+03 9.320235e-03
1.114000e+03 7.827633e-04
1.115000e+03 8.294522e-05
1.116000e+03 3.176309e-05
1.117000e+03 7.304983e-03
1.118000e+03 1.232015e-04
1.119000e+03 1.284837e-03
1.120000e+03 4.964788e-05
1.121000e+03 5.054212e-03
1.122000e+03 1.849202e-02
1.123000e+03 9.499681e-03
1.124000e+03 1.076091e-02
1.125000e+03 6.186703e-03
1.126000e+03 3.045895e-02
1.127000e+03 6.466816e-03
1.128000e+03 2.029984e-02
1.129000e+03 3.913043e-03
1.130000e+03 1.733558e-02
1.131000e+03 2.435669e-02
1.132000e+03 9.271572e-05
1.133000e+03 7.214900e-04
1.134000e+03 5.892936e-03
1.135000e+03 2.474606e-02
1.136000e+03 1.305003e-03
1.137000e+03 1.509843e-02
1.138000e+03 5.074186e-03
1.139000e+03 2.699720e-02
1.140000e+03 2.159045e-02
1.141000e+03 2.944985e-02
1.142000e+03 3.416267e-02
1.143000e+03 5.361557e-03
1.144000e+03 3.670537e-02
1.145000e+03 8.489192e-05
1.146000e+03 3.807426e-02
1.147000e+03 3.403231e-02
1.148000e+03 4.227906e-04
1.149000e+03 2.014708e-02
1.150000e+03 1.689976e-02
1.151000e+03 3.887536e-02
1.152000e+03 2.110255e-02
1.153000e+03 4.147812e-02
1.154000e+03 5.571288e-02
1.155000e+03 2.343979e-02
1.156000e+03 4.909289e-02
1.157000e+03 5.463120e-02
1.158000e+03 8.231718e-03
1.159000e+03 5.050559e-02
1.160000e+03 1.240489e-02
1.161000e+03 4.799558e-02
1.162000e+03 1.861745e-03
1.163000e+03 6.490100e-03
1.164000e+03 1.714757e-03
1.165000e+03 2.823846e-02
1.166000e+03 2.099918e-02
1.167000e+03 2.115462e-02
1.168000e+03 6.571158e-02
1.169000e+03 7.839379e-02
1.170000e+03 1.369993e-02
1.171000e+03 5.026798e-02
1.172000e+03 2.378644e-02
1.173000e+03 4.864262e-02
1.174000e+03 4.268466e-04
1.175000e+03 1.104615e-03
1.176000e+03 4.294747e-04
1.177000e+03 1.034840e-01
1.178000e+03 1.050851e-01
1.179000e+03 9.333566e-02
1.180000e+03 4.554545e-02
1.181000e+03 1.036984e-01
1.182000e+03 9.033003e-02
1.183000e+03 4.556828e-02
1.184000e+03 3.856347e-02
1.185000e+03 4.584791e-02
1.186000e+03 1.837978e-03
1.187000e+03 8.085565e-02
1.188000e+03 3.409730e-02
1.189000e+03 1.078892e-01
1.190000e+03 1.054527e-01
1.191000e+03 8.155952e-02
1.192000e+03 9.683143e-02
1.193000e+03 7.302794e-02
1.194000e+03 9.812075e-02
1.195000e+03 9.416395e-02
1.196000e+03 2.246431e-01
1.197000e+03 4.547728e-01
1.198000e+03 5.454525e-03
1.199000e+03 4.401723e-01
1.200000e+03 1.808178e-02
1.201000e+03 3.282241e-01
1.202000e+03 1.064803e-01
1.203000e+03 2.695155e-01
1.204000e+03 2.246261e-02
1.205000e+03 2.184726e-01
1.206000e+03 2.170502e-01
1.207000e+03 9.578624e-02
1.208000e+03 1.662323e-01
1.209000e+03 1.762961e-01
1.210000e+03 2.299190e-03
1.211000e+03 9.775205e-02
1.212000e+03 4.101016e-02
1.213000e+03 3.545540e-02
1.214000e+03 1.363246e-02
1.215000e+03 2.369210e-03
1.216000e+03 1.356570e-03
1.217000e+03 9.357958e-03
1.218000e+03 3.196433e-02
1.219000e+03 6.750499e-02
1.220000e+03 2.736001e-02
1.221000e+03 1.737352e-01
1.222000e+03 1.744659e-01
1.223000e+03 1.341181e-01
1.224000e+03 3.798404e-01
1.225000e+03 1.187310e-02
1.226000e+03 5.952213e-01
1.227000e+03 6.211398e-01
1.228000e+03 8.120826e-02
1.229000e+03 5.717573e-01
1.230000e+03 4.391263e-01
1.231000e+03 4.493272e-02
1.232000e+03 1.224160e+00
1.233000e+03 1.406872e+00
1.234000e+03 1.507431e+00
1.235000e+03 1.057793e+00
1.236000e+03 1.291909e-01
1.237000e+03 1.648940e+00
1.238000e+03 1.405973e+00
1.239000e+03 5.357673e-01
1.240000e+03 1.377453e+00
1.241000e+03 7.058339e-01
1.242000e+03 1.286487e+00
1.243000e+03 2.199059e+00
1.244000e+03 2.433801e+00
1.245000e+03 2.237130e+00
1.246000e+03 1.148574e+00
1.247000e+03 1.615369e+00
1.248000e+03 2.751095e+00
1.249000e+03 3.390323e+00
1.250000e+03 2.339555e+00
1.251000e+03 3.034097e+00
1.252000e+03 2.115874e+00
1.253000e+03 3.628585e+00
1.254000e+03 2.320537e+00
1.255000e+03 1.681732e+00
1.256000e+03 1.964268e+00
1.257000e+03 2.579335e+00
1.258000e+03 1.108009e+00
1.259000e+03 1.532831e+00
1.260000e+03 3.695226e+00
1.261000e+03 5.220909e-01
1.262000e+03 4.188095e+00
1.263000e+03 3.135644e+00
1.264000e+03 1.453323e+00
1.265000e+03 2.138919e+00
1.266000e+03 4.378163e+00
1.267000e+03 2.239049e+00
