# wavelength_A flux
5.000000e+02 4.153273e-06
5.010000e+02 4.662386e-06
5.020000e+02 5.231661e-06
5.030000e+02 5.867646e-06
5.040000e+02 6.577833e-06
5.050000e+02 7.812718e-06
5.060000e+02 8.747146e-06
5.070000e+02 9.788814e-06
5.080000e+02 1.094950e-05
5.090000e+02 1.224326e-05
5.100000e+02 1.368301e-05
5.110000e+02 1.528461e-05
5.120000e+02 1.706602e-05
5.130000e+02 1.904655e-05
5.140000e+02 2.124748e-05
5.150000e+02 2.369172e-05
5.160000e+02 2.640567e-05
5.170000e+02 2.941521e-05
5.180000e+02 3.276060e-05
5.190000e+02 3.646683e-05
5.200000e+02 4.057495e-05
5.210000e+02 4.512646e-05
5.220000e+02 5.015422e-05
5.230000e+02 5.574783e-05
5.240000e+02 6.192244e-05
5.250000e+02 6.875602e-05
5.260000e+02 7.630894e-05
5.270000e+02 8.465399e-05
5.280000e+02 9.387715e-05
5.290000e+02 1.040013e-04
5.300000e+02 1.153071e-04
5.310000e+02 1.277152e-04
5.320000e+02 1.414031e-04
5.330000e+02 1.564943e-04
5.340000e+02 1.731277e-04
5.350000e+02 1.914535e-04
5.360000e+02 2.116331e-04
5.370000e+02 2.267910e-04
5.380000e+02 2.582823e-04
5.390000e+02 2.851991e-04
5.400000e+02 3.147827e-04
5.410000e+02 3.472411e-04
5.420000e+02 3.830245e-04
5.430000e+02 4.222874e-04
5.440000e+02 4.653877e-04
5.450000e+02 5.126955e-04
5.460000e+02 5.643512e-04
5.470000e+02 6.215143e-04
5.480000e+02 6.839329e-04
5.490000e+02 7.523581e-04
5.500000e+02 8.273281e-04
5.510000e+02 9.094416e-04
5.520000e+02 9.993478e-04
5.530000e+02 1.097753e-03
5.540000e+02 1.205422e-03
5.550000e+02 1.323187e-03
5.560000e+02 1.451884e-03
5.570000e+02 1.592617e-03
5.580000e+02 1.746371e-03
5.590000e+02 1.914330e-03
5.600000e+02 2.097725e-03
5.610000e+02 2.297909e-03
5.620000e+02 2.516346e-03
5.630000e+02 2.754620e-03
5.640000e+02 3.014443e-03
5.650000e+02 3.297526e-03
5.660000e+02 3.606173e-03
5.670000e+02 3.942408e-03
5.680000e+02 4.308519e-03
5.690000e+02 4.707162e-03
5.700000e+02 5.141017e-03
5.710000e+02 5.613074e-03
5.720000e+02 6.126496e-03
5.730000e+02 6.684430e-03
5.740000e+02 7.291209e-03
5.750000e+02 7.950879e-03
5.760000e+02 8.665539e-03
5.770000e+02 9.445037e-03
5.780000e+02 1.028952e-02
5.790000e+02 1.120604e-02
5.800000e+02 1.220044e-02
5.810000e+02 1.327901e-02
5.820000e+02 1.444774e-02
5.830000e+02 1.571499e-02
5.840000e+02 1.707675e-02
5.850000e+02 1.857452e-02
5.860000e+02 2.018945e-02
5.870000e+02 2.193514e-02
5.880000e+02 2.382411e-02
5.890000e+02 2.586816e-02
5.900000e+02 2.807927e-02
5.910000e+02 3.047117e-02
5.920000e+02 3.305717e-02
5.930000e+02 3.585228e-02
5.940000e+02 3.887261e-02
5.950000e+02 4.213050e-02
5.960000e+02 4.565922e-02
5.970000e+02 4.946375e-02
5.980000e+02 5.357023e-02
5.990000e+02 5.800152e-02
6.000000e+02 6.278196e-02
6.010000e+02 6.793752e-02
6.020000e+02 7.349647e-02
6.030000e+02 7.948852e-02
6.040000e+02 8.594562e-02
6.050000e+02 9.290233e-02
6.060000e+02 1.003919e-01
6.070000e+02 1.084605e-01
6.080000e+02 1.171455e-01
6.090000e+02 1.264924e-01
6.100000e+02 1.365490e-01
6.110000e+02 1.473662e-01
6.120000e+02 1.589991e-01
6.130000e+02 1.715057e-01
6.140000e+02 1.849481e-01
6.150000e+02 1.993932e-01
6.160000e+02 2.149112e-01
6.170000e+02 2.315781e-01
6.180000e+02 2.494740e-01
6.190000e+02 2.686853e-01
6.200000e+02 2.893035e-01
6.210000e+02 3.114260e-01
6.220000e+02 3.351566e-01
6.230000e+02 3.605984e-01
6.240000e+02 3.878850e-01
6.250000e+02 4.171339e-01
6.260000e+02 4.484787e-01
6.270000e+02 4.820625e-01
6.280000e+02 5.180359e-01
6.290000e+02 5.565597e-01
6.300000e+02 5.978069e-01
6.310000e+02 6.419558e-01
6.320000e+02 6.892034e-01
6.330000e+02 7.397543e-01
6.340000e+02 7.938265e-01
6.350000e+02 8.516516e-01
6.360000e+02 9.101374e-01
6.370000e+02 9.795666e-01
6.380000e+02 1.050195e+00
6.390000e+02 1.125657e+00
6.400000e+02 1.206238e+00
6.410000e+02 1.292325e+00
6.420000e+02 1.384243e+00
6.430000e+02 1.482369e+00
6.440000e+02 1.587093e+00
6.450000e+02 1.698832e+00
6.460000e+02 1.818048e+00
6.470000e+02 1.945183e+00
6.480000e+02 2.080769e+00
6.490000e+02 2.225321e+00
6.500000e+02 2.379391e+00
6.510000e+02 2.543579e+00
6.520000e+02 2.718510e+00
6.530000e+02 2.904846e+00
6.540000e+02 3.103289e+00
6.550000e+02 3.314591e+00
6.560000e+02 3.539448e+00
6.570000e+02 3.778754e+00
6.580000e+02 4.033611e+00
6.590000e+02 4.304645e+00
6.600000e+02 4.592936e+00
6.610000e+02 4.899524e+00
6.620000e+02 5.225502e+00
6.630000e+02 5.572021e+00
6.640000e+02 5.940324e+00
6.650000e+02 6.331652e+00
6.660000e+02 6.747435e+00
6.670000e+02 7.189068e+00
6.680000e+02 7.658077e+00
6.690000e+02 8.156058e+00
6.700000e+02 8.684687e+00
6.710000e+02 9.245538e+00
6.720000e+02 9.829197e+00
6.730000e+02 1.047261e+01
6.740000e+02 1.114267e+01
6.750000e+02 1.185329e+01
6.760000e+02 1.260681e+01
6.770000e+02 1.340566e+01
6.780000e+02 1.425235e+01
6.790000e+02 1.514968e+01
6.800000e+02 1.610047e+01
6.810000e+02 1.710769e+01
6.820000e+02 1.817452e+01
6.830000e+02 1.930427e+01
6.840000e+02 2.050042e+01
6.850000e+02 2.176608e+01
6.860000e+02 2.310625e+01
6.870000e+02 2.452391e+01
6.880000e+02 2.602485e+01
6.890000e+02 2.761190e+01
6.900000e+02 2.929075e+01
6.910000e+02 3.106597e+01
6.920000e+02 3.294268e+01
6.930000e+02 3.492664e+01
6.940000e+02 3.702350e+01
6.950000e+02 3.923920e+01
6.960000e+02 4.158036e+01
6.970000e+02 4.405112e+01
6.980000e+02 4.666528e+01
6.990000e+02 4.942211e+01
7.000000e+02 5.233415e+01
7.010000e+02 5.540821e+01
7.020000e+02 5.865274e+01
7.030000e+02 6.207664e+01
7.040000e+02 6.568922e+01
7.050000e+02 6.950023e+01
7.060000e+02 7.351954e+01
7.070000e+02 7.775864e+01
7.080000e+02 8.222832e+01
7.090000e+02 8.694041e+01
7.100000e+02 9.190734e+01
7.110000e+02 9.714193e+01
7.120000e+02 1.026549e+02
7.130000e+02 1.084660e+02
7.140000e+02 1.145873e+02
7.150000e+02 1.210344e+02
7.160000e+02 1.278236e+02
7.170000e+02 1.349710e+02
7.180000e+02 1.424922e+02
7.190000e+02 1.504175e+02
7.200000e+02 1.587530e+02
7.210000e+02 1.675232e+02
7.220000e+02 1.767508e+02
7.230000e+02 1.864575e+02
7.240000e+02 1.966664e+02
7.250000e+02 2.073958e+02
7.260000e+02 2.186833e+02
7.270000e+02 2.305494e+02
7.280000e+02 2.430216e+02
7.290000e+02 2.561296e+02
7.300000e+02 2.699020e+02
7.310000e+02 2.843745e+02
7.320000e+02 2.995762e+02
7.330000e+02 3.155433e+02
7.340000e+02 3.323113e+02
7.350000e+02 3.499164e+02
7.360000e+02 3.684001e+02
7.370000e+02 3.878049e+02
7.380000e+02 4.081583e+02
7.390000e+02 4.295296e+02
7.400000e+02 4.519528e+02
7.410000e+02 4.754791e+02
7.420000e+02 5.001561e+02
7.430000e+02 5.260386e+02
7.440000e+02 5.531804e+02
7.450000e+02 5.816391e+02
7.460000e+02 6.114745e+02
7.470000e+02 6.427490e+02
7.480000e+02 6.755269e+02
7.490000e+02 7.098733e+02
7.500000e+02 7.458419e+02
7.510000e+02 7.835475e+02
7.520000e+02 8.230446e+02
7.530000e+02 8.644127e+02
7.540000e+02 9.077344e+02
7.550000e+02 9.530952e+02
7.560000e+02 1.000587e+03
7.570000e+02 1.050296e+03
7.580000e+02 1.102335e+03
7.590000e+02 1.156785e+03
7.600000e+02 1.213772e+03
7.610000e+02 1.273392e+03
7.620000e+02 1.335707e+03
7.630000e+02 1.400939e+03
7.640000e+02 1.469162e+03
7.650000e+02 1.540503e+03
7.660000e+02 1.615097e+03
7.670000e+02 1.693080e+03
7.680000e+02 1.774580e+03
7.690000e+02 1.859796e+03
7.700000e+02 1.948833e+03
7.710000e+02 2.041869e+03
7.720000e+02 2.139071e+03
7.730000e+02 2.240612e+03
7.740000e+02 2.346599e+03
7.750000e+02 2.457366e+03
7.760000e+02 2.572964e+03
7.770000e+02 2.693810e+03
7.780000e+02 2.819902e+03
7.790000e+02 2.951524e+03
7.800000e+02 3.088904e+03
7.810000e+02 3.232279e+03
7.820000e+02 3.381889e+03
7.830000e+02 3.537988e+03
7.840000e+02 3.700838e+03
7.850000e+02 3.870648e+03
7.860000e+02 4.047822e+03
7.870000e+02 4.232619e+03
7.880000e+02 4.425291e+03
7.890000e+02 4.626125e+03
7.900000e+02 4.835526e+03
7.910000e+02 5.053845e+03
7.920000e+02 5.281373e+03
7.930000e+02 5.518485e+03
7.940000e+02 5.765563e+03
7.950000e+02 6.022999e+03
7.960000e+02 6.291189e+03
7.970000e+02 6.570556e+03
7.980000e+02 6.861518e+03
7.990000e+02 7.164561e+03
8.000000e+02 7.480111e+03
8.010000e+02 7.808660e+03
8.020000e+02 8.150708e+03
8.030000e+02 8.506760e+03
8.040000e+02 8.877375e+03
8.050000e+02 9.263078e+03
8.060000e+02 9.664450e+03
8.070000e+02 1.008208e+04
8.080000e+02 1.051658e+04
8.090000e+02 1.096858e+04
8.100000e+02 1.143874e+04
8.110000e+02 1.192773e+04
8.120000e+02 1.243621e+04
8.130000e+02 1.296504e+04
8.140000e+02 1.351467e+04
8.150000e+02 1.408617e+04
8.160000e+02 1.468036e+04
8.170000e+02 1.529788e+04
8.180000e+02 1.593969e+04
8.190000e+02 1.660665e+04
8.200000e+02 1.729965e+04
8.210000e+02 1.801964e+04
8.220000e+02 1.876761e+04
8.230000e+02 1.954454e+04
8.240000e+02 2.035153e+04
8.250000e+02 2.118960e+04
8.260000e+02 2.205985e+04
8.270000e+02 2.296347e+04
8.280000e+02 2.390161e+04
8.290000e+02 2.487551e+04
8.300000e+02 2.588642e+04
8.310000e+02 2.693564e+04
8.320000e+02 2.802453e+04
8.330000e+02 2.915445e+04
8.340000e+02 3.032686e+04
8.350000e+02 3.153550e+04
8.360000e+02 3.280448e+04
8.370000e+02 3.411392e+04
8.380000e+02 3.547109e+04
8.390000e+02 3.687900e+04
8.400000e+02 3.833897e+04
8.410000e+02 3.985272e+04
8.420000e+02 4.141969e+04
8.430000e+02 4.304936e+04
8.440000e+02 4.473598e+04
8.450000e+02 4.648414e+04
8.460000e+02 4.829589e+04
8.470000e+02 5.017345e+04
8.480000e+02 5.211895e+04
8.490000e+02 5.413468e+04
8.500000e+02 5.622296e+04
8.510000e+02 5.838624e+04
8.520000e+02 6.062691e+04
8.530000e+02 6.294768e+04
8.540000e+02 6.535172e+04
8.550000e+02 6.784055e+04
8.560000e+02 7.041758e+04
8.570000e+02 7.308566e+04
8.580000e+02 7.584770e+04
8.590000e+02 7.870694e+04
8.600000e+02 8.166536e+04
8.610000e+02 8.472820e+04
8.620000e+02 8.789788e+04
8.630000e+02 9.117768e+04
8.640000e+02 9.457143e+04
8.650000e+02 9.808246e+04
8.660000e+02 1.017147e+05
8.670000e+02 1.054719e+05
8.680000e+02 1.093581e+05
8.690000e+02 1.133773e+05
8.700000e+02 1.175328e+05
8.710000e+02 1.218317e+05
8.720000e+02 1.262756e+05
8.730000e+02 1.308701e+05
8.740000e+02 1.356199e+05
8.750000e+02 1.405296e+05
8.760000e+02 1.456044e+05
8.770000e+02 1.508490e+05
8.780000e+02 1.562697e+05
8.790000e+02 1.618708e+05
8.800000e+02 1.676581e+05
8.810000e+02 1.736374e+05
8.820000e+02 1.798124e+05
8.830000e+02 1.861935e+05
8.840000e+02 1.927847e+05
8.850000e+02 1.995921e+05
8.860000e+02 2.066227e+05
8.870000e+02 2.138829e+05
8.880000e+02 2.213796e+05
8.890000e+02 2.291198e+05
8.900000e+02 2.371111e+05
8.910000e+02 2.453607e+05
8.920000e+02 2.529663e+05
8.930000e+02 2.626659e+05
8.940000e+02 2.717375e+05
8.950000e+02 2.810991e+05
8.960000e+02 2.907600e+05
8.970000e+02 3.007283e+05
8.980000e+02 3.110131e+05
8.990000e+02 3.216238e+05
9.000000e+02 3.325696e+05
9.010000e+02 3.438604e+05
9.020000e+02 3.555015e+05
9.030000e+02 3.675118e+05
9.040000e+02 3.798880e+05
9.050000e+02 3.926711e+05
9.060000e+02 4.058414e+05
9.070000e+02 4.194141e+05
9.080000e+02 4.334201e+05
9.090000e+02 4.478519e+05
9.100000e+02 4.627283e+05
9.110000e+02 4.780649e+05
9.120000e+02 4.938865e+05
9.130000e+02 5.004243e+05
9.140000e+02 5.391448e+05
9.150000e+02 2.937837e+06
9.160000e+02 2.356926e+07
9.170000e+02 7.360176e+07
9.180000e+02 5.876439e+07
9.190000e+02 1.039501e+08
9.200000e+02 1.174139e+08
9.210000e+02 6.358402e+05
9.220000e+02 1.257687e+08
9.230000e+02 7.479818e+07
9.240000e+02 4.635847e+07
9.250000e+02 1.257112e+08
9.260000e+02 1.028246e+08
9.270000e+02 1.394548e+08
9.280000e+02 1.454629e+08
9.290000e+02 5.621554e+07
9.300000e+02 1.412939e+08
9.310000e+02 1.184176e+08
9.320000e+02 1.596141e+08
9.330000e+02 1.607952e+08
9.340000e+02 1.674329e+08
9.350000e+02 5.799640e+07
9.360000e+02 1.713566e+08
9.370000e+02 3.690333e+07
9.380000e+02 6.088071e+07
9.390000e+02 1.845006e+08
9.400000e+02 1.903739e+08
9.410000e+02 1.457321e+08
9.420000e+02 1.985074e+08
9.430000e+02 2.023968e+08
9.440000e+02 5.537962e+07
9.450000e+02 2.094367e+08
9.460000e+02 2.155714e+08
9.470000e+02 6.734406e+07
9.480000e+02 2.229688e+08
9.490000e+02 2.128992e+08
9.500000e+02 2.221419e+07
9.510000e+02 1.705059e+08
9.520000e+02 2.439773e+08
9.530000e+02 2.474111e+08
9.540000e+02 1.138920e+08
9.550000e+02 2.610699e+08
9.560000e+02 2.702223e+08
9.570000e+02 2.334570e+08
9.580000e+02 2.641589e+08
9.590000e+02 2.863837e+08
9.600000e+02 5.867507e+07
9.610000e+02 3.012135e+08
9.620000e+02 2.976418e+08
9.630000e+02 3.134554e+08
9.640000e+02 2.735456e+06
9.650000e+02 2.060274e+08
9.660000e+02 3.323611e+08
9.670000e+02 3.370289e+08
9.680000e+02 3.256176e+08
9.690000e+02 3.415487e+08
9.700000e+02 3.524945e+08
9.710000e+02 3.434236e+08
9.720000e+02 2.208285e+08
9.730000e+02 2.019531e+08
9.740000e+02 3.552622e+08
9.750000e+02 3.883872e+08
9.760000e+02 4.026423e+08
9.770000e+02 4.109259e+08
9.780000e+02 4.187145e+08
9.790000e+02 4.302612e+08
9.800000e+02 4.393775e+08
9.810000e+02 4.487314e+08
9.820000e+02 4.322131e+08
9.830000e+02 4.652135e+08
9.840000e+02 3.066090e+07
9.850000e+02 4.847430e+08
9.860000e+02 4.938727e+08
9.870000e+02 5.009218e+08
9.880000e+02 4.945970e+08
9.890000e+02 1.104373e+08
9.900000e+02 7.058882e+06
9.910000e+02 5.208220e+08
9.920000e+02 4.713486e+08
9.930000e+02 4.704920e+08
9.940000e+02 3.741888e+07
9.950000e+02 1.713804e+07
9.960000e+02 2.906144e+07
9.970000e+02 2.910080e+07
9.980000e+02 6.073473e+08
9.990000e+02 5.849514e+08
1.000000e+03 6.446285e+08
1.001000e+03 6.569248e+08
1.002000e+03 6.670164e+08
1.003000e+03 3.430844e+08
1.004000e+03 6.939724e+08
1.005000e+03 4.193730e+08
1.006000e+03 7.193839e+08
1.007000e+03 7.327475e+08
1.008000e+03 7.431116e+08
1.009000e+03 5.710986e+08
1.010000e+03 7.718571e+08
1.011000e+03 7.853444e+08
1.012000e+03 7.971457e+08
1.013000e+03 8.123289e+08
1.014000e+03 8.257033e+08
1.015000e+03 7.367589e+08
1.016000e+03 8.445044e+08
1.017000e+03 8.628452e+08
1.018000e+03 8.747982e+08
1.019000e+03 8.837242e+08
1.020000e+03 8.877652e+08
1.021000e+03 7.919666e+08
1.022000e+03 8.646216e+08
1.023000e+03 8.243507e+08
1.024000e+03 6.525802e+08
1.025000e+03 2.245933e+08
1.026000e+03 4.538984e+07
1.027000e+03 5.236561e+08
1.028000e+03 2.451446e+08
1.029000e+03 9.739717e+08
1.030000e+03 9.628943e+08
1.031000e+03 1.096288e+09
1.032000e+03 1.065397e+09
1.033000e+03 6.856240e+08
1.034000e+03 1.191978e+09
1.035000e+03 1.780050e+08
1.036000e+03 1.192649e+09
1.037000e+03 2.185843e+07
1.038000e+03 1.285450e+09
1.039000e+03 1.256934e+09
1.040000e+03 1.343540e+09
1.041000e+03 1.359445e+09
1.042000e+03 1.111556e+09
1.043000e+03 1.405549e+09
1.044000e+03 1.410611e+09
1.045000e+03 1.458448e+09
1.046000e+03 1.491779e+09
1.047000e+03 1.520461e+09
1.048000e+03 1.464087e+09
1.049000e+03 1.540063e+09
1.050000e+03 1.603785e+09
1.051000e+03 1.631340e+09
1.052000e+03 1.658925e+09
1.053000e+03 1.457434e+09
1.054000e+03 1.713268e+09
1.055000e+03 1.743427e+09
1.056000e+03 1.774345e+09
1.057000e+03 1.799012e+09
1.058000e+03 1.831698e+09
1.059000e+03 1.863931e+09
1.060000e+03 1.895218e+09
1.061000e+03 1.927210e+09
1.062000e+03 1.958629e+09
1.063000e+03 1.441771e+09
1.064000e+03 2.090016e+08
1.065000e+03 2.230218e+09
1.066000e+03 2.259383e+09
1.067000e+03 1.670484e+09
1.068000e+03 2.344956e+09
1.069000e+03 2.380765e+09
1.070000e+03 2.131447e+09
1.071000e+03 2.477413e+09
1.072000e+03 2.514629e+09
1.073000e+03 2.556750e+09
1.074000e+03 2.596807e+09
1.075000e+03 2.625271e+09
1.076000e+03 2.682515e+09
1.077000e+03 2.718779e+09
1.078000e+03 2.767949e+09
1.079000e+03 2.737923e+09
1.080000e+03 2.830284e+09
1.081000e+03 2.902710e+09
1.082000e+03 2.937306e+09
1.083000e+03 2.993611e+09
1.084000e+03 6.558042e+08
1.085000e+03 1.913514e+09
1.086000e+03 3.139038e+09
1.087000e+03 3.180667e+09
1.088000e+03 3.173446e+09
1.089000e+03 3.278019e+09
1.090000e+03 3.317058e+09
1.091000e+03 3.384592e+09
1.092000e+03 3.439416e+09
1.093000e+03 3.475795e+09
1.094000e+03 3.549934e+09
1.095000e+03 3.557905e+09
1.096000e+03 3.656308e+09
1.097000e+03 3.562288e+09
1.098000e+03 3.516644e+09
1.099000e+03 3.803553e+09
1.100000e+03 3.612821e+09
1.101000e+03 3.531244e+09
1.102000e+03 8.527666e+09
1.103000e+03 2.861976e+10
1.104000e+03 9.091654e+09
1.105000e+03 3.805381e+09
1.106000e+03 6.521472e+10
1.107000e+03 5.839416e+10
1.108000e+03 6.696314e+10
1.109000e+03 1.814921e+10
1.110000e+03 2.290988e+09
1.111000e+03 9.180692e+09
1.112000e+03 5.609099e+10
1.113000e+03 7.017628e+10
1.114000e+03 2.638590e+09
1.115000e+03 6.231264e+10
1.116000e+03 6.841267e+10
1.117000e+03 2.543297e+09
1.118000e+03 4.929162e+10
1.119000e+03 6.986957e+10
1.120000e+03 7.169228e+10
1.121000e+03 2.231187e+10
1.122000e+03 1.804984e+08
1.123000e+03 8.724361e+09
1.124000e+03 7.195149e+10
1.125000e+03 1.007454e+10
1.126000e+03 7.498494e+10
1.127000e+03 6.288987e+10
1.128000e+03 3.577023e+10
1.129000e+03 7.560903e+10
1.130000e+03 2.588251e+10
1.131000e+03 8.051693e+10
1.132000e+03 4.974592e+08
1.133000e+03 6.945529e+10
1.134000e+03 7.066710e+10
1.135000e+03 3.414712e+08
1.136000e+03 7.434378e+10
1.137000e+03 8.409913e+10
1.138000e+03 8.778267e+10
1.139000e+03 8.595963e+10
1.140000e+03 5.843845e+08
1.141000e+03 9.057451e+10
1.142000e+03 6.030714e+10
1.143000e+03 8.978732e+10
1.144000e+03 9.136705e+10
1.145000e+03 4.216273e+10
1.146000e+03 9.095095e+10
1.147000e+03 8.624730e+10
1.148000e+03 8.833899e+10
1.149000e+03 9.462095e+10
1.150000e+03 7.049239e+10
1.151000e+03 9.260202e+10
1.152000e+03 9.012202e+10
1.153000e+03 7.628095e+09
1.154000e+03 7.311360e+08
1.155000e+03 5.906230e+10
1.156000e+03 3.424368e+10
1.157000e+03 1.003061e+11
1.158000e+03 1.389786e+09
1.159000e+03 8.053496e+10
1.160000e+03 9.939257e+10
1.161000e+03 1.053244e+11
1.162000e+03 2.845368e+09
1.163000e+03 8.481942e+10
1.164000e+03 3.805229e+09
1.165000e+03 1.072715e+11
1.166000e+03 9.676416e+10
1.167000e+03 6.652854e+10
1.168000e+03 1.083126e+11
1.169000e+03 1.016973e+11
1.170000e+03 1.093817e+11
1.171000e+03 1.096123e+11
1.172000e+03 7.920019e+10
1.173000e+03 1.083005e+11
1.174000e+03 9.683187e+10
1.175000e+03 3.433480e+09
1.176000e+03 1.564639e+09
1.177000e+03 1.001992e+11
1.178000e+03 7.272952e+10
1.179000e+03 1.070244e+11
1.180000e+03 6.098959e+10
1.181000e+03 9.288937e+10
1.182000e+03 1.055631e+11
1.183000e+03 1.040422e+11
1.184000e+03 1.034865e+11
1.185000e+03 8.588990e+10
1.186000e+03 1.004112e+11
1.187000e+03 9.887338e+10
1.188000e+03 8.139777e+10
1.189000e+03 1.176510e+09
1.190000e+03 2.480415e+10
1.191000e+03 8.343234e+10
1.192000e+03 8.320167e+10
1.193000e+03 6.339174e+08
1.194000e+03 1.412735e+09
1.195000e+03 1.909275e+10
1.196000e+03 7.154577e+10
1.197000e+03 6.480480e+10
1.198000e+03 6.609837e+10
1.199000e+03 6.098884e+10
1.200000e+03 4.838068e+10
1.201000e+03 5.133364e+10
1.202000e+03 4.923856e+10
1.203000e+03 4.497218e+10
1.204000e+03 3.862958e+10
1.205000e+03 3.435336e+10
1.206000e+03 2.367088e+10
1.207000e+03 2.050611e+10
1.208000e+03 1.948375e+10
1.209000e+03 1.407063e+10
1.210000e+03 2.941609e+09
1.211000e+03 7.745140e+09
1.212000e+03 4.978885e+09
1.213000e+03 2.948634e+09
1.214000e+03 1.640490e+09
1.215000e+03 9.452929e+08
1.216000e+03 8.075401e+08
1.217000e+03 1.404718e+09
1.218000e+03 2.608422e+09
1.219000e+03 4.660727e+09
1.220000e+03 7.653599e+09
1.221000e+03 1.158215e+10
1.222000e+03 1.639565e+10
1.223000e+03 2.202951e+10
1.224000e+03 2.840749e+10
1.225000e+03 3.546250e+10
1.226000e+03 4.256455e+10
1.227000e+03 5.100196e+10
1.228000e+03 6.009250e+10
1.229000e+03 6.882574e+10
1.230000e+03 7.796353e+10
1.231000e+03 8.836347e+10
1.232000e+03 9.849683e+10
1.233000e+03 1.087674e+11
1.234000e+03 5.562680e+10
1.235000e+03 1.289949e+11
1.236000e+03 1.401617e+11
1.237000e+03 1.500184e+11
1.238000e+03 1.611546e+11
1.239000e+03 1.719866e+11
1.240000e+03 1.721632e+11
1.241000e+03 2.374316e+11
1.242000e+03 1.792525e+11
1.243000e+03 2.356263e+11
1.244000e+03 1.135700e+11
1.245000e+03 1.841844e+11
1.246000e+03 3.330799e+11
1.247000e+03 3.789502e+11
1.248000e+03 1.484139e+11
1.249000e+03 1.854953e+11
1.250000e+03 4.483512e+11
1.251000e+03 4.551050e+11
1.252000e+03 4.522240e+11
1.253000e+03 5.225810e+11
1.254000e+03 5.324470e+11
1.255000e+03 5.512057e+11
1.256000e+03 5.732155e+11
1.257000e+03 6.214403e+11
1.258000e+03 6.206112e+11
1.259000e+03 5.641330e+11
1.260000e+03 4.219432e+11
1.261000e+03 2.324500e+09
1.262000e+03 9.726670e+10
1.263000e+03 7.195884e+11
1.264000e+03 5.656351e+11
1.265000e+03 1.591796e+09
1.266000e+03 7.483893e+11
1.267000e+03 8.618440e+11
