# wavelength_A flux
5.000000e+02 3.931250e-39
5.010000e+02 5.139499e-39
5.020000e+02 6.711792e-39
5.030000e+02 8.755617e-39
5.040000e+02 1.140955e-38
5.050000e+02 1.485458e-38
5.060000e+02 1.931585e-38
5.070000e+02 2.509040e-38
5.080000e+02 3.255724e-38
5.090000e+02 4.220208e-38
5.100000e+02 5.464004e-38
5.110000e+02 7.069012e-38
5.120000e+02 9.134850e-38
5.130000e+02 1.179245e-37
5.140000e+02 1.520779e-37
5.150000e+02 1.959255e-37
5.160000e+02 2.521630e-37
5.170000e+02 3.242200e-37
5.180000e+02 4.164557e-37
5.190000e+02 5.344053e-37
5.200000e+02 6.850910e-37
5.210000e+02 8.774122e-37
5.220000e+02 1.122636e-36
5.230000e+02 1.435020e-36
5.240000e+02 1.832576e-36
5.250000e+02 2.338048e-36
5.260000e+02 2.980127e-36
5.270000e+02 3.794971e-36
5.280000e+02 4.828106e-36
5.290000e+02 6.136801e-36
5.300000e+02 7.793033e-36
5.310000e+02 9.887182e-36
5.320000e+02 1.253263e-35
5.330000e+02 1.587150e-35
5.340000e+02 2.008178e-35
5.350000e+02 2.538613e-35
5.360000e+02 3.206297e-35
5.370000e+02 4.045880e-35
5.380000e+02 5.101108e-35
5.390000e+02 6.425731e-35
5.400000e+02 8.087268e-35
5.410000e+02 1.016961e-34
5.420000e+02 1.277711e-34
5.430000e+02 1.603940e-34
5.440000e+02 2.011747e-34
5.450000e+02 2.521101e-34
5.460000e+02 3.156755e-34
5.470000e+02 3.949363e-34
5.480000e+02 4.936864e-34
5.490000e+02 6.166161e-34
5.500000e+02 7.695206e-34
5.510000e+02 9.595537e-34
5.520000e+02 1.195540e-33
5.530000e+02 1.488354e-33
5.540000e+02 1.851389e-33
5.550000e+02 2.301128e-33
5.560000e+02 2.857834e-33
5.570000e+02 3.546406e-33
5.580000e+02 4.397409e-33
5.590000e+02 5.448338e-33
5.600000e+02 6.745156e-33
5.610000e+02 8.344157e-33
5.620000e+02 1.031424e-32
5.630000e+02 1.273967e-32
5.640000e+02 1.572342e-32
5.650000e+02 1.939124e-32
5.660000e+02 2.389657e-32
5.670000e+02 2.942651e-32
5.680000e+02 3.620903e-32
5.690000e+02 4.452170e-32
5.700000e+02 5.470221e-32
5.710000e+02 6.716116e-32
5.720000e+02 8.239735e-32
5.730000e+02 1.010164e-31
5.740000e+02 1.237529e-31
5.750000e+02 1.514976e-31
5.760000e+02 1.853295e-31
5.770000e+02 2.265549e-31
5.780000e+02 2.767540e-31
5.790000e+02 3.378374e-31
5.800000e+02 4.121130e-31
5.810000e+02 5.023674e-31
5.820000e+02 6.119621e-31
5.830000e+02 7.449503e-31
5.840000e+02 9.062146e-31
5.850000e+02 1.101635e-30
5.860000e+02 1.338285e-30
5.870000e+02 1.624670e-30
5.880000e+02 1.971010e-30
5.890000e+02 2.389580e-30
5.900000e+02 2.895105e-30
5.910000e+02 3.505249e-30
5.920000e+02 4.241179e-30
5.930000e+02 5.128249e-30
5.940000e+02 6.196802e-30
5.950000e+02 7.483138e-30
5.960000e+02 9.030647e-30
5.970000e+02 1.089117e-29
5.980000e+02 1.312658e-29
5.990000e+02 1.581074e-29
6.000000e+02 1.903170e-29
6.010000e+02 2.289437e-29
6.020000e+02 2.752373e-29
6.030000e+02 3.306851e-29
6.040000e+02 3.970563e-29
6.050000e+02 4.764540e-29
6.060000e+02 5.713770e-29
6.070000e+02 6.847918e-29
6.080000e+02 8.202190e-29
6.090000e+02 9.818335e-29
6.100000e+02 1.174584e-28
6.110000e+02 1.404331e-28
6.120000e+02 1.678014e-28
6.130000e+02 2.003842e-28
6.140000e+02 2.391524e-28
6.150000e+02 2.852531e-28
6.160000e+02 3.400414e-28
6.170000e+02 4.051167e-28
6.180000e+02 4.823661e-28
6.190000e+02 5.740143e-28
6.200000e+02 6.826833e-28
6.210000e+02 8.114612e-28
6.220000e+02 9.639828e-28
6.230000e+02 1.144525e-27
6.240000e+02 1.358114e-27
6.250000e+02 1.610661e-27
6.260000e+02 1.909106e-27
6.270000e+02 2.261594e-27
6.280000e+02 2.677685e-27
6.290000e+02 3.168587e-27
6.300000e+02 3.747435e-27
6.310000e+02 4.429618e-27
6.320000e+02 5.233149e-27
6.330000e+02 6.179107e-27
6.340000e+02 7.292146e-27
6.350000e+02 8.601081e-27
6.360000e+02 1.013958e-26
6.370000e+02 1.194695e-26
6.380000e+02 1.406907e-26
6.390000e+02 1.655946e-26
6.400000e+02 1.948052e-26
6.410000e+02 2.290496e-26
6.420000e+02 2.691746e-26
6.430000e+02 3.161661e-26
6.440000e+02 3.711711e-26
6.450000e+02 4.355239e-26
6.460000e+02 5.107748e-26
6.470000e+02 5.987257e-26
6.480000e+02 7.014684e-26
6.490000e+02 8.214314e-26
6.500000e+02 9.614314e-26
6.510000e+02 1.124735e-25
6.520000e+02 1.315128e-25
6.530000e+02 1.536996e-25
6.540000e+02 1.795417e-25
6.550000e+02 2.096267e-25
6.560000e+02 2.446346e-25
6.570000e+02 2.853513e-25
6.580000e+02 3.326853e-25
6.590000e+02 3.876860e-25
6.600000e+02 4.515650e-25
6.610000e+02 5.257206e-25
6.620000e+02 6.117658e-25
6.630000e+02 7.115607e-25
6.640000e+02 8.272487e-25
6.650000e+02 9.612990e-25
6.660000e+02 1.116555e-24
6.670000e+02 1.296289e-24
6.680000e+02 1.504267e-24
6.690000e+02 1.744816e-24
6.700000e+02 2.022914e-24
6.710000e+02 2.344276e-24
6.720000e+02 2.715468e-24
6.730000e+02 3.144027e-24
6.740000e+02 3.638598e-24
6.750000e+02 4.209099e-24
6.760000e+02 4.866899e-24
6.770000e+02 5.625026e-24
6.780000e+02 6.498400e-24
6.790000e+02 7.504108e-24
6.800000e+02 8.661701e-24
6.810000e+02 9.993546e-24
6.820000e+02 1.152522e-23
6.830000e+02 1.328596e-23
6.840000e+02 1.530915e-23
6.850000e+02 1.763296e-23
6.860000e+02 2.030092e-23
6.870000e+02 2.336272e-23
6.880000e+02 2.687505e-23
6.890000e+02 3.090252e-23
6.900000e+02 3.551879e-23
6.910000e+02 4.080777e-23
6.920000e+02 4.686503e-23
6.930000e+02 5.379933e-23
6.940000e+02 6.173446e-23
6.950000e+02 7.081120e-23
6.960000e+02 8.118963e-23
6.970000e+02 9.305169e-23
6.980000e+02 1.066041e-22
6.990000e+02 1.220815e-22
7.000000e+02 1.397505e-22
7.010000e+02 1.599135e-22
7.020000e+02 1.829134e-22
7.030000e+02 2.091392e-22
7.040000e+02 2.390318e-22
7.050000e+02 2.730908e-22
7.060000e+02 3.118818e-22
7.070000e+02 3.560456e-22
7.080000e+02 4.063070e-22
7.090000e+02 4.634864e-22
7.100000e+02 5.285112e-22
7.110000e+02 6.024302e-22
7.120000e+02 6.864285e-22
7.130000e+02 7.818448e-22
7.140000e+02 8.901910e-22
7.150000e+02 1.013174e-21
7.160000e+02 1.152719e-21
7.170000e+02 1.310999e-21
7.180000e+02 1.490464e-21
7.190000e+02 1.693876e-21
7.200000e+02 1.924345e-21
7.210000e+02 2.185377e-21
7.220000e+02 2.480920e-21
7.230000e+02 2.815416e-21
7.240000e+02 3.193864e-21
7.250000e+02 3.621888e-21
7.260000e+02 4.105813e-21
7.270000e+02 4.652745e-21
7.280000e+02 5.270673e-21
7.290000e+02 5.968569e-21
7.300000e+02 6.756508e-21
7.310000e+02 7.645801e-21
7.320000e+02 8.649139e-21
7.330000e+02 9.780761e-21
7.340000e+02 1.105663e-20
7.350000e+02 1.249465e-20
7.360000e+02 1.411488e-20
7.370000e+02 1.593978e-20
7.380000e+02 1.799454e-20
7.390000e+02 2.030731e-20
7.400000e+02 2.290963e-20
7.410000e+02 2.583679e-20
7.420000e+02 2.912825e-20
7.430000e+02 3.282813e-20
7.440000e+02 3.698573e-20
7.450000e+02 4.165618e-20
7.460000e+02 4.690102e-20
7.470000e+02 5.278899e-20
7.480000e+02 5.939682e-20
7.490000e+02 6.681013e-20
7.500000e+02 7.512447e-20
7.510000e+02 8.444638e-20
7.520000e+02 9.489464e-20
7.530000e+02 1.066017e-19
7.540000e+02 1.197149e-19
7.550000e+02 1.343988e-19
7.560000e+02 1.508363e-19
7.570000e+02 1.692311e-19
7.580000e+02 1.898098e-19
7.590000e+02 2.128248e-19
7.600000e+02 2.385564e-19
7.610000e+02 2.673166e-19
7.620000e+02 2.994521e-19
7.630000e+02 3.353480e-19
7.640000e+02 3.754324e-19
7.650000e+02 4.201805e-19
7.660000e+02 4.701198e-19
7.670000e+02 5.258360e-19
7.680000e+02 5.879790e-19
7.690000e+02 6.572693e-19
7.700000e+02 7.345065e-19
7.710000e+02 8.205765e-19
7.720000e+02 9.164614e-19
7.730000e+02 1.023249e-18
7.740000e+02 1.142146e-18
7.750000e+02 1.274485e-18
7.760000e+02 1.421744e-18
7.770000e+02 1.585559e-18
7.780000e+02 1.767739e-18
7.790000e+02 1.970285e-18
7.800000e+02 2.195409e-18
7.810000e+02 2.445558e-18
7.820000e+02 2.723436e-18
7.830000e+02 3.032029e-18
7.840000e+02 3.374637e-18
7.850000e+02 3.754904e-18
7.860000e+02 4.176852e-18
7.870000e+02 4.644921e-18
7.880000e+02 5.164009e-18
7.890000e+02 5.739519e-18
7.900000e+02 6.377410e-18
7.910000e+02 7.084252e-18
7.920000e+02 7.867286e-18
7.930000e+02 8.734490e-18
7.940000e+02 9.694654e-18
7.950000e+02 1.075746e-17
7.960000e+02 1.193356e-17
7.970000e+02 1.323470e-17
7.980000e+02 1.467378e-17
7.990000e+02 1.626501e-17
8.000000e+02 1.802401e-17
8.010000e+02 1.996796e-17
8.020000e+02 2.211576e-17
8.030000e+02 2.448815e-17
8.040000e+02 2.710796e-17
8.050000e+02 3.000022e-17
8.060000e+02 3.319247e-17
8.070000e+02 3.671491e-17
8.080000e+02 4.060072e-17
8.090000e+02 4.488627e-17
8.100000e+02 4.961151e-17
8.110000e+02 5.482024e-17
8.120000e+02 6.056047e-17
8.130000e+02 6.688487e-17
8.140000e+02 7.385115e-17
8.150000e+02 8.152256e-17
8.160000e+02 8.996837e-17
8.170000e+02 9.926448e-17
8.180000e+02 1.094940e-16
8.190000e+02 1.207478e-16
8.200000e+02 1.331256e-16
8.210000e+02 1.467362e-16
8.220000e+02 1.616988e-16
8.230000e+02 1.781439e-16
8.240000e+02 1.962138e-16
8.250000e+02 2.160644e-16
8.260000e+02 2.378661e-16
8.270000e+02 2.618048e-16
8.280000e+02 2.880838e-16
8.290000e+02 3.169252e-16
8.300000e+02 3.485714e-16
8.310000e+02 3.832870e-16
8.320000e+02 4.213608e-16
8.330000e+02 4.631080e-16
8.340000e+02 5.088724e-16
8.350000e+02 5.590291e-16
8.360000e+02 6.139870e-16
8.370000e+02 6.741917e-16
8.380000e+02 7.401295e-16
8.390000e+02 8.123296e-16
8.400000e+02 8.913690e-16
8.410000e+02 9.778759e-16
8.420000e+02 1.072535e-15
8.430000e+02 1.176091e-15
8.440000e+02 1.289354e-15
8.450000e+02 1.413208e-15
8.460000e+02 1.548613e-15
8.470000e+02 1.696613e-15
8.480000e+02 1.858344e-15
8.490000e+02 2.035042e-15
8.500000e+02 2.228048e-15
8.510000e+02 2.438824e-15
8.520000e+02 2.668955e-15
8.530000e+02 2.920163e-15
8.540000e+02 3.194321e-15
8.550000e+02 3.493461e-15
8.560000e+02 3.819789e-15
8.570000e+02 4.175701e-15
8.580000e+02 4.563797e-15
8.590000e+02 4.986896e-15
8.600000e+02 5.448061e-15
8.610000e+02 5.950608e-15
8.620000e+02 6.498139e-15
8.630000e+02 7.094554e-15
8.640000e+02 7.744083e-15
8.650000e+02 8.451309e-15
8.660000e+02 9.221201e-15
8.670000e+02 1.005914e-14
8.680000e+02 1.097095e-14
8.690000e+02 1.196294e-14
8.700000e+02 1.304194e-14
8.710000e+02 1.421535e-14
8.720000e+02 1.549118e-14
8.730000e+02 1.687807e-14
8.740000e+02 1.838540e-14
8.750000e+02 2.002330e-14
8.760000e+02 2.180273e-14
8.770000e+02 2.373553e-14
8.780000e+02 2.583449e-14
8.790000e+02 2.811348e-14
8.800000e+02 3.058742e-14
8.810000e+02 3.327249e-14
8.820000e+02 3.618612e-14
8.830000e+02 3.934716e-14
8.840000e+02 4.277595e-14
8.850000e+02 4.649446e-14
8.860000e+02 5.052639e-14
8.870000e+02 5.489731e-14
8.880000e+02 5.963483e-14
8.890000e+02 6.476871e-14
8.900000e+02 7.033107e-14
8.910000e+02 7.635652e-14
8.920000e+02 8.288238e-14
8.930000e+02 8.994890e-14
8.940000e+02 9.759943e-14
8.950000e+02 1.058807e-13
8.960000e+02 1.148430e-13
8.970000e+02 1.245406e-13
8.980000e+02 1.350319e-13
8.990000e+02 1.463797e-13
9.000000e+02 1.586517e-13
9.010000e+02 1.719208e-13
9.020000e+02 1.862654e-13
9.030000e+02 2.017697e-13
9.040000e+02 2.185246e-13
9.050000e+02 2.366277e-13
9.060000e+02 2.561839e-13
9.070000e+02 2.773060e-13
9.080000e+02 3.001155e-13
9.090000e+02 3.247427e-13
9.100000e+02 3.513277e-13
9.110000e+02 3.800212e-13
9.120000e+02 4.109849e-13
9.130000e+02 4.443926e-13
9.140000e+02 4.918010e-13
9.150000e+02 1.247755e-10
9.160000e+02 9.130953e-10
9.170000e+02 6.560493e-11
9.180000e+02 1.637795e-10
9.190000e+02 2.711052e-09
9.200000e+02 8.110433e-09
9.210000e+02 8.251785e-13
9.220000e+02 8.680925e-09
9.230000e+02 4.119922e-11
9.240000e+02 1.092051e-10
9.250000e+02 2.144998e-09
9.260000e+02 2.537701e-10
9.270000e+02 1.159316e-10
9.280000e+02 5.733693e-08
9.290000e+02 5.445262e-08
9.300000e+02 1.081739e-08
9.310000e+02 9.915877e-11
9.320000e+02 4.305978e-08
9.330000e+02 2.157512e-08
9.340000e+02 4.932673e-09
9.350000e+02 8.394895e-11
9.360000e+02 5.270470e-10
9.370000e+02 2.652309e-11
9.380000e+02 5.859143e-11
9.390000e+02 1.899142e-09
9.400000e+02 9.319790e-08
9.410000e+02 6.928826e-09
9.420000e+02 2.122559e-07
9.430000e+02 3.671218e-09
9.440000e+02 2.442366e-07
9.450000e+02 2.379707e-07
9.460000e+02 6.816421e-08
9.470000e+02 3.480771e-11
9.480000e+02 6.807359e-08
9.490000e+02 5.758715e-09
9.500000e+02 8.121698e-11
9.510000e+02 2.608868e-08
9.520000e+02 9.785353e-08
9.530000e+02 6.541283e-10
9.540000e+02 3.784151e-11
9.550000e+02 8.329408e-09
9.560000e+02 3.887135e-07
9.570000e+02 2.870692e-09
9.580000e+02 1.690736e-11
9.590000e+02 3.079471e-07
9.600000e+02 2.225846e-10
9.610000e+02 1.476559e-07
9.620000e+02 4.835344e-08
9.630000e+02 3.396508e-09
9.640000e+02 8.794281e-10
9.650000e+02 1.439844e-10
9.660000e+02 9.255473e-09
9.670000e+02 1.103245e-09
9.680000e+02 7.509868e-10
9.690000e+02 5.508306e-08
9.700000e+02 9.423920e-08
9.710000e+02 1.854708e-09
9.720000e+02 3.737954e-10
9.730000e+02 1.220237e-09
9.740000e+02 4.088807e-08
9.750000e+02 2.122435e-08
9.760000e+02 5.773196e-07
9.770000e+02 4.782981e-07
9.780000e+02 2.488606e-07
9.790000e+02 1.706686e-06
9.800000e+02 1.793856e-06
9.810000e+02 1.356657e-07
9.820000e+02 1.811679e-08
9.830000e+02 2.106431e-06
9.840000e+02 4.169082e-08
9.850000e+02 4.892877e-08
9.860000e+02 7.926325e-08
9.870000e+02 2.394226e-06
9.880000e+02 5.752554e-10
9.890000e+02 9.153989e-07
9.900000e+02 1.853403e-06
9.910000e+02 2.138357e-08
9.920000e+02 1.561343e-10
9.930000e+02 3.681179e-06
9.940000e+02 2.183640e-10
9.950000e+02 1.291328e-07
9.960000e+02 3.241666e-09
9.970000e+02 7.109813e-08
9.980000e+02 2.791221e-06
9.990000e+02 3.222639e-08
1.000000e+03 6.813912e-06
1.001000e+03 5.825111e-06
1.002000e+03 6.581379e-06
1.003000e+03 3.159914e-08
1.004000e+03 8.894858e-10
1.005000e+03 1.761173e-07
1.006000e+03 6.733467e-06
1.007000e+03 8.452068e-06
1.008000e+03 5.214759e-06
1.009000e+03 4.458413e-08
1.010000e+03 4.986666e-06
1.011000e+03 5.186301e-06
1.012000e+03 6.774314e-06
1.013000e+03 6.816773e-06
1.014000e+03 6.530172e-10
1.015000e+03 2.105025e-09
1.016000e+03 2.265297e-07
1.017000e+03 6.580194e-10
1.018000e+03 4.654476e-08
1.019000e+03 1.771696e-09
1.020000e+03 5.758472e-06
1.021000e+03 1.157923e-07
1.022000e+03 1.742508e-07
1.023000e+03 6.465484e-09
1.024000e+03 3.308983e-07
1.025000e+03 1.045805e-09
1.026000e+03 1.541745e-09
1.027000e+03 1.350527e-07
1.028000e+03 9.259224e-09
1.029000e+03 1.432227e-09
1.030000e+03 8.018355e-07
1.031000e+03 3.061547e-06
1.032000e+03 1.940498e-05
1.033000e+03 1.127846e-07
1.034000e+03 3.573722e-06
1.035000e+03 5.797119e-09
1.036000e+03 2.659363e-09
1.037000e+03 3.983049e-05
1.038000e+03 1.187557e-04
1.039000e+03 5.123200e-05
1.040000e+03 3.388743e-05
1.041000e+03 1.367705e-04
1.042000e+03 1.308063e-04
1.043000e+03 9.997637e-05
1.044000e+03 2.439770e-04
1.045000e+03 6.414538e-09
1.046000e+03 3.698724e-05
1.047000e+03 1.619881e-05
1.048000e+03 1.126973e-07
1.049000e+03 1.323105e-05
1.050000e+03 1.871289e-06
1.051000e+03 8.419593e-07
1.052000e+03 2.134598e-04
1.053000e+03 2.813729e-04
1.054000e+03 6.548362e-09
1.055000e+03 2.909461e-04
1.056000e+03 3.449613e-04
1.057000e+03 5.424748e-05
1.058000e+03 7.942837e-07
1.059000e+03 6.095506e-07
1.060000e+03 1.639419e-07
1.061000e+03 1.356308e-04
1.062000e+03 3.936996e-07
1.063000e+03 1.120494e-05
1.064000e+03 1.623994e-08
1.065000e+03 1.193257e-08
1.066000e+03 1.670773e-04
1.067000e+03 7.875343e-07
1.068000e+03 7.168094e-04
1.069000e+03 1.391854e-07
1.070000e+03 1.296873e-05
1.071000e+03 3.712838e-04
1.072000e+03 8.992456e-04
1.073000e+03 2.537854e-08
1.074000e+03 7.161177e-05
1.075000e+03 3.574637e-05
1.076000e+03 8.494664e-04
1.077000e+03 3.424138e-07
1.078000e+03 1.242268e-06
1.079000e+03 8.547082e-06
1.080000e+03 6.063073e-05
1.081000e+03 5.220030e-04
1.082000e+03 2.605333e-04
1.083000e+03 1.166040e-04
1.084000e+03 1.708053e-03
1.085000e+03 1.575612e-05
1.086000e+03 1.540032e-03
1.087000e+03 2.190005e-06
1.088000e+03 1.976917e-03
1.089000e+03 2.098150e-03
1.090000e+03 1.190973e-05
1.091000e+03 2.286048e-05
1.092000e+03 2.128493e-03
1.093000e+03 2.476033e-03
1.094000e+03 2.403914e-04
1.095000e+03 2.808319e-03
1.096000e+03 5.817116e-05
1.097000e+03 1.831676e-03
1.098000e+03 2.790838e-03
1.099000e+03 5.030818e-05
1.100000e+03 3.621335e-07
1.101000e+03 1.346751e-06
1.102000e+03 3.882275e-05
1.103000e+03 3.773713e-03
1.104000e+03 3.825873e-03
1.105000e+03 4.078409e-03
1.106000e+03 2.840814e-04
1.107000e+03 9.734649e-07
1.108000e+03 2.430056e-03
1.109000e+03 1.904741e-05
1.110000e+03 4.619775e-03
1.111000e+03 4.107401e-03
1.112000e+03 1.165968e-03
1.113000e+03 3.264761e-03
1.114000e+03 5.376938e-04
1.115000e+03 1.857409e-05
1.116000e+03 4.314294e-06
1.117000e+03 5.716518e-03
1.118000e+03 3.501214e-05
1.119000e+03 1.110536e-03
1.120000e+03 9.007752e-06
1.121000e+03 5.009375e-03
1.122000e+03 9.441515e-03
1.123000e+03 9.647318e-03
1.124000e+03 1.213376e-02
1.125000e+03 7.260324e-03
1.126000e+03 1.276116e-02
1.127000e+03 7.031627e-03
1.128000e+03 7.292639e-03
1.129000e+03 3.473537e-03
1.130000e+03 8.686612e-03
1.131000e+03 6.672622e-03
1.132000e+03 1.646939e-05
1.133000e+03 3.202381e-04
1.134000e+03 4.454133e-03
1.135000e+03 6.631739e-03
1.136000e+03 6.211442e-04
1.137000e+03 5.904218e-03
1.138000e+03 3.282367e-03
1.139000e+03 7.139786e-03
1.140000e+03 6.606051e-03
1.141000e+03 6.974721e-03
1.142000e+03 6.971518e-03
1.143000e+03 3.030396e-03
1.144000e+03 6.864125e-03
1.145000e+03 9.641983e-06
1.146000e+03 7.285050e-03
1.147000e+03 7.285862e-03
1.148000e+03 1.168693e-04
1.149000e+03 6.375792e-03
1.150000e+03 6.038752e-03
1.151000e+03 6.991790e-03
1.152000e+03 6.093285e-03
1.153000e+03 6.756761e-03
1.154000e+03 6.734679e-03
1.155000e+03 5.961329e-03
1.156000e+03 4.947921e-03
1.157000e+03 6.084330e-03
1.158000e+03 3.398692e-03
1.159000e+03 6.299899e-03
1.160000e+03 4.296090e-03
1.161000e+03 5.779769e-03
1.162000e+03 5.616550e-04
1.163000e+03 2.160775e-03
1.164000e+03 1.251046e-05
1.165000e+03 3.169519e-03
1.166000e+03 1.671027e-03
1.167000e+03 1.117985e-03
1.168000e+03 6.588825e-03
1.169000e+03 6.760142e-03
1.170000e+03 1.115621e-03
1.171000e+03 3.018332e-03
1.172000e+03 2.315814e-03
1.173000e+03 2.080030e-03
1.174000e+03 6.921263e-05
1.175000e+03 9.720679e-06
1.176000e+03 3.867666e-06
1.177000e+03 8.735717e-03
1.178000e+03 8.245540e-03
1.179000e+03 7.789658e-03
1.180000e+03 6.714854e-03
1.181000e+03 7.058705e-03
1.182000e+03 6.831478e-03
1.183000e+03 6.019477e-03
1.184000e+03 5.668210e-03
1.185000e+03 5.611148e-03
1.186000e+03 4.031681e-04
1.187000e+03 5.650458e-03
1.188000e+03 4.807634e-03
1.189000e+03 5.462803e-03
1.190000e+03 5.316360e-03
1.191000e+03 4.981330e-03
1.192000e+03 4.541008e-03
1.193000e+03 4.462345e-03
1.194000e+03 4.365963e-03
1.195000e+03 4.173117e-03
1.196000e+03 7.882186e-02
1.197000e+03 7.669798e-02
1.198000e+03 1.848690e-03
1.199000e+03 6.355823e-02
1.200000e+03 8.483995e-03
1.201000e+03 4.875425e-02
1.202000e+03 3.461447e-02
1.203000e+03 3.499205e-02
1.204000e+03 8.305592e-03
1.205000e+03 2.255404e-02
1.206000e+03 1.739565e-02
1.207000e+03 2.228761e-03
1.208000e+03 8.148662e-03
1.209000e+03 5.926650e-03
1.210000e+03 2.165022e-05
1.211000e+03 2.109405e-03
1.212000e+03 1.022344e-03
1.213000e+03 4.269127e-04
1.214000e+03 1.197406e-04
1.215000e+03 2.126542e-05
1.216000e+03 1.903101e-05
1.217000e+03 7.492537e-05
1.218000e+03 3.520971e-04
1.219000e+03 1.008381e-03
1.220000e+03 1.980409e-03
1.221000e+03 4.553595e-03
1.222000e+03 8.043892e-03
1.223000e+03 1.223031e-02
1.224000e+03 1.776340e-02
1.225000e+03 3.090311e-03
1.226000e+03 3.970111e-02
1.227000e+03 5.513494e-02
1.228000e+03 3.274376e-02
1.229000e+03 8.947989e-02
1.230000e+03 8.245036e-02
1.231000e+03 1.952681e-02
1.232000e+03 1.585866e-01
1.233000e+03 1.871639e-01
1.234000e+03 1.816312e-01
1.235000e+03 2.398927e-01
1.236000e+03 8.672617e-02
1.237000e+03 3.021679e-01
1.238000e+03 3.308179e-01
1.239000e+03 2.968110e-01
1.240000e+03 6.701085e-02
1.241000e+03 3.343024e-01
1.242000e+03 4.407668e-01
1.243000e+03 4.882770e-01
1.244000e+03 5.228795e-01
1.245000e+03 5.473700e-01
1.246000e+03 5.340305e-01
1.247000e+03 5.883552e-01
1.248000e+03 4.902470e-01
1.249000e+03 6.786452e-01
1.250000e+03 5.278485e-01
1.251000e+03 7.386606e-01
1.252000e+03 7.192725e-01
1.253000e+03 7.814246e-01
1.254000e+03 7.635845e-01
1.255000e+03 1.669286e-01
1.256000e+03 6.397410e-01
1.257000e+03 4.487403e-01
1.258000e+03 6.981440e-01
1.259000e+03 7.821895e-01
1.260000e+03 9.045189e-01
1.261000e+03 1.397425e-02
1.262000e+03 9.385544e-01
1.263000e+03 9.036963e-01
1.264000e+03 7.762908e-01
1.265000e+03 7.146389e-01
1.266000e+03 1.134775e+00
1.267000e+03 1.129410e+00
