# wavelength_A flux
5.000000e+02 2.946463e-24
5.010000e+02 3.593990e-24
5.020000e+02 4.380286e-24
5.030000e+02 5.334327e-24
5.040000e+02 6.490989e-24
5.050000e+02 8.656500e-24
5.060000e+02 1.051132e-23
5.070000e+02 1.274555e-23
5.080000e+02 1.545562e-23
5.090000e+02 1.871910e-23
5.100000e+02 1.780061e-23
5.110000e+02 2.739655e-23
5.120000e+02 3.308522e-23
5.130000e+02 3.997545e-23
5.140000e+02 4.823463e-23
5.150000e+02 5.815524e-23
5.160000e+02 7.006451e-23
5.170000e+02 8.435606e-23
5.180000e+02 1.014916e-22
5.190000e+02 1.220140e-22
5.200000e+02 1.465808e-22
5.210000e+02 1.759672e-22
5.220000e+02 2.110059e-22
5.230000e+02 2.530572e-22
5.240000e+02 3.031579e-22
5.250000e+02 3.629182e-22
5.260000e+02 4.341556e-22
5.270000e+02 5.190179e-22
5.280000e+02 6.200426e-22
5.290000e+02 7.400310e-22
5.300000e+02 8.831073e-22
5.310000e+02 1.052857e-21
5.320000e+02 1.254394e-21
5.330000e+02 1.493514e-21
5.340000e+02 1.777035e-21
5.350000e+02 2.112977e-21
5.360000e+02 2.510718e-21
5.370000e+02 2.853117e-21
5.380000e+02 3.538135e-21
5.390000e+02 4.196324e-21
5.400000e+02 4.973538e-21
5.410000e+02 5.889948e-21
5.420000e+02 6.972992e-21
5.430000e+02 8.248833e-21
5.440000e+02 9.751867e-21
5.450000e+02 1.152158e-20
5.460000e+02 1.360151e-20
5.470000e+02 1.605290e-20
5.480000e+02 1.893100e-20
5.490000e+02 2.231150e-20
5.500000e+02 2.627968e-20
5.510000e+02 3.093495e-20
5.520000e+02 3.639300e-20
5.530000e+02 4.278848e-20
5.540000e+02 5.027799e-20
5.550000e+02 5.904353e-20
5.560000e+02 6.929653e-20
5.570000e+02 8.128243e-20
5.580000e+02 9.528606e-20
5.590000e+02 1.116377e-19
5.600000e+02 1.307201e-19
5.610000e+02 1.529768e-19
5.620000e+02 1.789211e-19
5.630000e+02 2.091470e-19
5.640000e+02 2.443413e-19
5.650000e+02 2.852981e-19
5.660000e+02 3.329347e-19
5.670000e+02 3.883098e-19
5.680000e+02 4.526454e-19
5.690000e+02 5.273508e-19
5.700000e+02 6.140504e-19
5.710000e+02 7.146162e-19
5.720000e+02 8.312028e-19
5.730000e+02 9.662909e-19
5.740000e+02 1.122733e-18
5.750000e+02 1.303810e-18
5.760000e+02 1.513177e-18
5.770000e+02 1.755630e-18
5.780000e+02 2.035564e-18
5.790000e+02 2.358903e-18
5.800000e+02 2.732186e-18
5.810000e+02 3.162901e-18
5.820000e+02 3.659614e-18
5.830000e+02 4.232033e-18
5.840000e+02 4.887003e-18
5.850000e+02 5.650300e-18
5.860000e+02 6.525902e-18
5.870000e+02 7.531983e-18
5.880000e+02 8.688696e-18
5.890000e+02 1.001801e-17
5.900000e+02 1.154509e-17
5.910000e+02 1.329836e-17
5.920000e+02 1.531043e-17
5.930000e+02 1.761839e-17
5.940000e+02 2.026447e-17
5.950000e+02 2.329677e-17
5.960000e+02 2.677003e-17
5.970000e+02 3.074650e-17
5.980000e+02 3.529694e-17
5.990000e+02 4.050179e-17
6.000000e+02 4.645239e-17
6.010000e+02 5.325243e-17
6.020000e+02 6.101968e-17
6.030000e+02 6.988756e-17
6.040000e+02 8.000748e-17
6.050000e+02 9.155098e-17
6.060000e+02 1.047123e-16
6.070000e+02 1.197117e-16
6.080000e+02 1.367981e-16
6.090000e+02 1.562533e-16
6.100000e+02 1.783958e-16
6.110000e+02 2.035858e-16
6.120000e+02 2.322303e-16
6.130000e+02 2.647888e-16
6.140000e+02 3.017802e-16
6.150000e+02 3.437898e-16
6.160000e+02 3.914779e-16
6.170000e+02 4.455892e-16
6.180000e+02 5.069626e-16
6.190000e+02 5.765435e-16
6.200000e+02 6.553962e-16
6.210000e+02 7.447190e-16
6.220000e+02 8.458599e-16
6.230000e+02 9.603350e-16
6.240000e+02 1.089849e-15
6.250000e+02 1.236318e-15
6.260000e+02 1.401894e-15
6.270000e+02 1.588993e-15
6.280000e+02 1.800327e-15
6.290000e+02 2.038939e-15
6.300000e+02 2.308244e-15
6.310000e+02 2.607254e-15
6.320000e+02 2.954696e-15
6.330000e+02 3.340907e-15
6.340000e+02 3.776169e-15
6.350000e+02 4.266211e-15
6.360000e+02 4.818410e-15
6.370000e+02 5.439700e-15
6.380000e+02 6.138712e-15
6.390000e+02 6.924866e-15
6.400000e+02 7.808687e-15
6.410000e+02 8.801928e-15
6.420000e+02 9.917717e-15
6.430000e+02 1.117070e-14
6.440000e+02 1.257722e-14
6.450000e+02 1.415550e-14
6.460000e+02 1.592586e-14
6.470000e+02 1.791070e-14
6.480000e+02 2.013557e-14
6.490000e+02 2.262861e-14
6.500000e+02 2.542094e-14
6.510000e+02 2.854743e-14
6.520000e+02 3.204666e-14
6.530000e+02 3.596176e-14
6.540000e+02 4.034056e-14
6.550000e+02 4.523628e-14
6.560000e+02 5.070798e-14
6.570000e+02 5.682078e-14
6.580000e+02 6.364894e-14
6.590000e+02 7.127186e-14
6.600000e+02 7.977968e-14
6.610000e+02 8.927184e-14
6.620000e+02 9.985857e-14
6.630000e+02 1.116620e-13
6.640000e+02 1.248176e-13
6.650000e+02 1.394750e-13
6.660000e+02 1.558040e-13
6.670000e+02 1.739813e-13
6.680000e+02 1.942134e-13
6.690000e+02 2.167252e-13
6.700000e+02 2.417651e-13
6.710000e+02 2.696078e-13
6.720000e+02 3.005568e-13
6.730000e+02 3.349475e-13
6.740000e+02 3.731501e-13
6.750000e+02 4.155732e-13
6.760000e+02 4.626680e-13
6.770000e+02 5.149320e-13
6.780000e+02 5.729141e-13
6.790000e+02 6.372192e-13
6.800000e+02 7.085143e-13
6.810000e+02 7.875349e-13
6.820000e+02 8.750898e-13
6.830000e+02 9.720702e-13
6.840000e+02 1.079457e-12
6.850000e+02 1.198331e-12
6.860000e+02 1.329879e-12
6.870000e+02 1.475408e-12
6.880000e+02 1.636350e-12
6.890000e+02 1.814276e-12
6.900000e+02 2.010931e-12
6.910000e+02 2.228231e-12
6.920000e+02 2.468269e-12
6.930000e+02 2.733335e-12
6.940000e+02 3.025950e-12
6.950000e+02 3.348884e-12
6.960000e+02 3.705169e-12
6.970000e+02 4.098085e-12
6.980000e+02 4.531424e-12
6.990000e+02 5.009047e-12
7.000000e+02 5.535381e-12
7.010000e+02 6.115227e-12
7.020000e+02 6.753840e-12
7.030000e+02 7.456974e-12
7.040000e+02 8.230927e-12
7.050000e+02 9.082590e-12
7.060000e+02 1.001645e-11
7.070000e+02 1.104989e-11
7.080000e+02 1.218278e-11
7.090000e+02 1.342801e-11
7.100000e+02 1.479634e-11
7.110000e+02 1.629952e-11
7.120000e+02 1.795039e-11
7.130000e+02 1.976296e-11
7.140000e+02 2.175251e-11
7.150000e+02 2.393574e-11
7.160000e+02 2.633085e-11
7.170000e+02 2.895765e-11
7.180000e+02 3.183767e-11
7.190000e+02 3.499505e-11
7.200000e+02 3.845488e-11
7.210000e+02 4.224538e-11
7.220000e+02 4.639707e-11
7.230000e+02 5.094315e-11
7.240000e+02 5.591978e-11
7.250000e+02 6.136630e-11
7.260000e+02 6.732555e-11
7.270000e+02 7.384408e-11
7.280000e+02 8.097253e-11
7.290000e+02 8.876599e-11
7.300000e+02 9.728430e-11
7.310000e+02 1.065925e-10
7.320000e+02 1.167612e-10
7.330000e+02 1.278689e-10
7.340000e+02 1.399957e-10
7.350000e+02 1.532336e-10
7.360000e+02 1.676804e-10
7.370000e+02 1.834438e-10
7.380000e+02 2.006383e-10
7.390000e+02 2.193895e-10
7.400000e+02 2.398334e-10
7.410000e+02 2.621174e-10
7.420000e+02 2.864010e-10
7.430000e+02 3.128574e-10
7.440000e+02 3.416739e-10
7.450000e+02 3.730536e-10
7.460000e+02 4.072161e-10
7.470000e+02 4.443994e-10
7.480000e+02 4.848610e-10
7.490000e+02 5.288796e-10
7.500000e+02 5.767563e-10
7.510000e+02 6.288172e-10
7.520000e+02 6.854147e-10
7.530000e+02 7.469298e-10
7.540000e+02 8.137741e-10
7.550000e+02 8.863925e-10
7.560000e+02 9.652656e-10
7.570000e+02 1.050904e-09
7.580000e+02 1.143894e-09
7.590000e+02 1.244813e-09
7.600000e+02 1.354327e-09
7.610000e+02 1.473137e-09
7.620000e+02 1.602005e-09
7.630000e+02 1.741749e-09
7.640000e+02 1.893256e-09
7.650000e+02 2.057460e-09
7.660000e+02 2.235441e-09
7.670000e+02 2.428255e-09
7.680000e+02 2.637107e-09
7.690000e+02 2.862908e-09
7.700000e+02 3.108197e-09
7.710000e+02 3.373302e-09
7.720000e+02 3.660214e-09
7.730000e+02 3.970662e-09
7.740000e+02 4.306503e-09
7.750000e+02 4.669738e-09
7.760000e+02 5.062498e-09
7.770000e+02 5.487154e-09
7.780000e+02 5.946134e-09
7.790000e+02 6.442132e-09
7.800000e+02 6.978021e-09
7.810000e+02 7.556887e-09
7.820000e+02 8.182047e-09
7.830000e+02 8.857064e-09
7.840000e+02 9.585764e-09
7.850000e+02 1.037225e-08
7.860000e+02 1.122094e-08
7.870000e+02 1.213662e-08
7.880000e+02 1.312425e-08
7.890000e+02 1.418934e-08
7.900000e+02 1.533773e-08
7.910000e+02 1.657568e-08
7.920000e+02 1.790882e-08
7.930000e+02 1.934736e-08
7.940000e+02 2.089657e-08
7.950000e+02 2.256497e-08
7.960000e+02 2.436171e-08
7.970000e+02 2.629627e-08
7.980000e+02 2.837883e-08
7.990000e+02 3.062027e-08
8.000000e+02 3.303223e-08
8.010000e+02 3.562720e-08
8.020000e+02 3.841852e-08
8.030000e+02 4.142046e-08
8.040000e+02 4.464831e-08
8.050000e+02 4.788693e-08
8.060000e+02 5.184453e-08
8.070000e+02 5.585643e-08
8.080000e+02 6.016292e-08
8.090000e+02 6.478928e-08
8.100000e+02 6.975807e-08
8.110000e+02 7.509374e-08
8.120000e+02 8.082230e-08
8.130000e+02 8.697157e-08
8.140000e+02 9.357120e-08
8.150000e+02 1.006529e-07
8.160000e+02 1.082505e-07
8.170000e+02 1.164000e-07
8.180000e+02 1.251401e-07
8.190000e+02 1.345117e-07
8.200000e+02 1.445588e-07
8.210000e+02 1.553280e-07
8.220000e+02 1.668692e-07
8.230000e+02 1.792356e-07
8.240000e+02 1.924837e-07
8.250000e+02 2.066740e-07
8.260000e+02 2.218708e-07
8.270000e+02 2.381426e-07
8.280000e+02 2.555624e-07
8.290000e+02 2.742079e-07
8.300000e+02 2.941620e-07
8.310000e+02 3.155127e-07
8.320000e+02 3.383539e-07
8.330000e+02 3.627855e-07
8.340000e+02 3.889137e-07
8.350000e+02 4.167773e-07
8.360000e+02 4.467176e-07
8.370000e+02 4.786450e-07
8.380000e+02 5.127645e-07
8.390000e+02 5.492225e-07
8.400000e+02 5.881728e-07
8.410000e+02 6.297788e-07
8.420000e+02 6.742072e-07
8.430000e+02 7.216634e-07
8.440000e+02 7.723252e-07
8.450000e+02 8.264033e-07
8.460000e+02 8.841204e-07
8.470000e+02 9.457119e-07
8.480000e+02 1.011427e-06
8.490000e+02 1.081531e-06
8.500000e+02 1.156304e-06
8.510000e+02 1.236045e-06
8.520000e+02 1.321070e-06
8.530000e+02 1.411715e-06
8.540000e+02 1.508335e-06
8.550000e+02 1.611309e-06
8.560000e+02 1.721037e-06
8.570000e+02 1.837943e-06
8.580000e+02 1.962041e-06
8.590000e+02 2.095117e-06
8.600000e+02 2.236369e-06
8.610000e+02 2.386727e-06
8.620000e+02 2.546878e-06
8.630000e+02 2.717305e-06
8.640000e+02 2.898683e-06
8.650000e+02 3.091690e-06
8.660000e+02 3.297037e-06
8.670000e+02 3.515479e-06
8.680000e+02 3.747818e-06
8.690000e+02 3.994899e-06
8.700000e+02 4.257609e-06
8.710000e+02 4.536925e-06
8.720000e+02 4.833821e-06
8.730000e+02 5.149368e-06
8.740000e+02 5.484686e-06
8.750000e+02 5.840963e-06
8.760000e+02 6.219453e-06
8.770000e+02 6.621479e-06
8.780000e+02 7.048439e-06
8.790000e+02 7.501836e-06
8.800000e+02 7.983199e-06
8.810000e+02 8.494222e-06
8.820000e+02 9.036626e-06
8.830000e+02 9.612254e-06
8.840000e+02 1.022306e-05
8.850000e+02 1.087111e-05
8.860000e+02 1.155857e-05
8.870000e+02 1.228773e-05
8.880000e+02 1.306101e-05
8.890000e+02 1.388096e-05
8.900000e+02 1.475030e-05
8.910000e+02 1.567184e-05
8.920000e+02 1.664594e-05
8.930000e+02 1.768375e-05
8.940000e+02 1.878061e-05
8.950000e+02 1.994272e-05
8.960000e+02 2.117377e-05
8.970000e+02 2.247768e-05
8.980000e+02 2.385857e-05
8.990000e+02 2.532081e-05
9.000000e+02 2.686895e-05
9.010000e+02 2.850783e-05
9.020000e+02 3.024251e-05
9.030000e+02 3.207811e-05
9.040000e+02 3.402106e-05
9.050000e+02 3.607656e-05
9.060000e+02 3.825066e-05
9.070000e+02 4.055107e-05
9.080000e+02 4.298375e-05
9.090000e+02 4.555620e-05
9.100000e+02 4.827617e-05
9.110000e+02 5.115188e-05
9.120000e+02 5.419355e-05
9.130000e+02 5.681006e-05
9.140000e+02 6.914046e-05
9.150000e+02 7.513818e-03
9.160000e+02 4.087664e-02
9.170000e+02 5.776131e-03
9.180000e+02 9.613455e-03
9.190000e+02 1.002311e-01
9.200000e+02 2.361251e-01
9.210000e+02 8.971816e-05
9.220000e+02 1.712572e-01
9.230000e+02 3.188951e-03
9.240000e+02 1.468474e-02
9.250000e+02 6.352788e-02
9.260000e+02 1.303796e-02
9.270000e+02 1.031532e-02
9.280000e+02 9.262507e-01
9.290000e+02 9.128628e-01
9.300000e+02 2.818858e-01
9.310000e+02 5.215786e-03
9.320000e+02 7.868652e-01
9.330000e+02 2.897376e-01
9.340000e+02 1.171162e-01
9.350000e+02 4.601500e-03
9.360000e+02 2.133862e-02
9.370000e+02 1.796948e-03
9.380000e+02 3.172235e-03
9.390000e+02 4.065853e-02
9.400000e+02 1.104637e+00
9.410000e+02 1.518658e-01
9.420000e+02 2.339370e+00
9.430000e+02 6.698036e-02
9.440000e+02 2.500345e+00
9.450000e+02 2.505070e+00
9.460000e+02 7.430165e-01
9.470000e+02 5.283102e-03
9.480000e+02 1.066983e+00
9.490000e+02 1.536656e-01
9.500000e+02 3.667858e-03
9.510000e+02 3.511954e-01
9.520000e+02 8.379496e-01
9.530000e+02 1.646394e-02
9.540000e+02 6.083466e-03
9.550000e+02 1.821074e-01
9.560000e+02 3.621181e+00
9.570000e+02 7.214642e-02
9.580000e+02 2.895415e-03
9.590000e+02 3.759390e+00
9.600000e+02 7.404208e-03
9.610000e+02 9.555194e-01
9.620000e+02 3.928564e-01
9.630000e+02 1.579666e-01
9.640000e+02 2.110839e-03
9.650000e+02 1.364279e-02
9.660000e+02 1.984649e-01
9.670000e+02 4.603720e-02
9.680000e+02 2.839565e-02
9.690000e+02 7.908220e-01
9.700000e+02 6.009755e-01
9.710000e+02 4.924973e-02
9.720000e+02 2.129632e-02
9.730000e+02 3.250629e-02
9.740000e+02 5.000777e-01
9.750000e+02 2.979434e-01
9.760000e+02 3.404573e+00
9.770000e+02 2.617038e+00
9.780000e+02 1.115529e+00
9.790000e+02 9.428953e+00
9.800000e+02 1.004410e+01
9.810000e+02 1.070424e+00
9.820000e+02 2.223787e-01
9.830000e+02 9.272039e+00
9.840000e+02 5.396242e-01
9.850000e+02 5.828748e-01
9.860000e+02 7.502820e-01
9.870000e+02 1.109495e+01
9.880000e+02 3.076077e-02
9.890000e+02 3.397061e+00
9.900000e+02 5.588263e-01
9.910000e+02 1.677682e-01
9.920000e+02 1.272503e-02
9.930000e+02 1.631327e+01
9.940000e+02 7.898331e-03
9.950000e+02 1.373371e+00
9.960000e+02 8.190918e-02
9.970000e+02 7.715969e-01
9.980000e+02 7.774310e+00
9.990000e+02 2.995737e-01
1.000000e+03 2.289163e+01
1.001000e+03 2.182282e+01
1.002000e+03 2.154340e+01
1.003000e+03 4.182720e-01
1.004000e+03 5.478096e-02
1.005000e+03 1.029821e+00
1.006000e+03 1.973019e+01
1.007000e+03 2.605775e+01
1.008000e+03 1.357758e+01
1.009000e+03 6.261687e-01
1.010000e+03 1.468293e+01
1.011000e+03 2.217457e+01
1.012000e+03 1.603517e+01
1.013000e+03 1.445522e+01
1.014000e+03 3.204155e-02
1.015000e+03 7.473373e-02
1.016000e+03 1.060785e+00
1.017000e+03 3.247452e-02
1.018000e+03 6.372185e-01
1.019000e+03 7.688141e-02
1.020000e+03 2.227033e+01
1.021000e+03 6.193409e-01
1.022000e+03 9.812937e-01
1.023000e+03 1.247778e-01
1.024000e+03 2.655954e+00
1.025000e+03 3.675750e-02
1.026000e+03 3.417834e-02
1.027000e+03 1.100799e+00
1.028000e+03 1.225729e-01
1.029000e+03 5.831146e-02
1.030000e+03 5.013552e+00
1.031000e+03 4.953997e+00
1.032000e+03 3.406375e+01
1.033000e+03 1.002884e+00
1.034000e+03 9.146285e+00
1.035000e+03 8.736801e-02
1.036000e+03 9.091568e-02
1.037000e+03 4.105058e+01
1.038000e+03 1.183367e+02
1.039000e+03 4.720399e+01
1.040000e+03 5.793994e+01
1.041000e+03 1.578251e+02
1.042000e+03 1.133463e+02
1.043000e+03 9.691807e+01
1.044000e+03 2.036986e+02
1.045000e+03 1.047112e-01
1.046000e+03 7.360070e+01
1.047000e+03 1.636989e+01
1.048000e+03 7.405357e-01
1.049000e+03 2.247187e+01
1.050000e+03 8.985504e+00
1.051000e+03 4.954529e+00
1.052000e+03 1.277189e+02
1.053000e+03 2.131386e+02
1.054000e+03 1.647339e-01
1.055000e+03 2.366737e+02
1.056000e+03 2.498167e+02
1.057000e+03 4.049697e+01
1.058000e+03 6.189986e+00
1.059000e+03 1.807388e+00
1.060000e+03 1.123703e+00
1.061000e+03 6.005521e+01
1.062000e+03 3.351504e+00
1.063000e+03 2.485488e+01
1.064000e+03 1.835327e-01
1.065000e+03 2.688599e-01
1.066000e+03 7.727559e+01
1.067000e+03 2.438529e+00
1.068000e+03 4.136618e+02
1.069000e+03 8.551051e-01
1.070000e+03 3.910220e+01
1.071000e+03 3.088881e+02
1.072000e+03 3.668859e+02
1.073000e+03 4.676208e-01
1.074000e+03 4.184921e+01
1.075000e+03 2.578296e+01
1.076000e+03 4.015709e+02
1.077000e+03 2.030739e+00
1.078000e+03 7.241913e+00
1.079000e+03 2.698623e+01
1.080000e+03 6.296062e+01
1.081000e+03 1.748069e+02
1.082000e+03 1.269000e+02
1.083000e+03 7.621973e+01
1.084000e+03 6.644314e+02
1.085000e+03 2.433246e+01
1.086000e+03 6.422724e+02
1.087000e+03 5.718201e+00
1.088000e+03 7.816103e+02
1.089000e+03 7.931094e+02
1.090000e+03 1.954298e+01
1.091000e+03 2.374261e+01
1.092000e+03 7.455413e+02
1.093000e+03 7.995605e+02
1.094000e+03 1.933543e+02
1.095000e+03 9.378998e+02
1.096000e+03 1.138944e+02
1.097000e+03 3.993044e+02
1.098000e+03 9.545124e+02
1.099000e+03 7.119348e+01
1.100000e+03 2.829678e+00
1.101000e+03 6.056679e+00
1.102000e+03 3.692579e+01
1.103000e+03 1.013142e+03
1.104000e+03 1.212897e+03
1.105000e+03 1.136726e+03
1.106000e+03 1.587953e+02
1.107000e+03 3.375244e+00
1.108000e+03 5.961184e+02
1.109000e+03 2.238110e+01
1.110000e+03 1.368387e+03
1.111000e+03 1.052375e+03
1.112000e+03 3.634233e+02
1.113000e+03 1.166888e+03
1.114000e+03 2.397857e+02
1.115000e+03 3.344925e+01
1.116000e+03 2.067142e+01
1.117000e+03 1.107582e+03
1.118000e+03 3.460220e+01
1.119000e+03 5.061862e+02
1.120000e+03 2.235706e+01
1.121000e+03 1.080640e+03
1.122000e+03 5.495326e+02
1.123000e+03 1.584342e+03
1.124000e+03 1.729393e+03
1.125000e+03 1.111657e+03
1.126000e+03 2.439942e+03
1.127000e+03 1.558762e+03
1.128000e+03 1.454235e+03
1.129000e+03 8.410421e+02
1.130000e+03 1.839770e+03
1.131000e+03 1.920026e+03
1.132000e+03 3.778958e+01
1.133000e+03 1.155425e+02
1.134000e+03 8.520625e+02
1.135000e+03 5.877499e+02
1.136000e+03 2.590254e+02
1.137000e+03 1.689034e+03
1.138000e+03 7.630807e+02
1.139000e+03 2.099887e+03
1.140000e+03 1.858751e+03
1.141000e+03 1.977986e+03
1.142000e+03 2.217596e+03
1.143000e+03 1.224014e+03
1.144000e+03 2.213329e+03
1.145000e+03 1.998584e+01
1.146000e+03 2.372065e+03
1.147000e+03 2.237097e+03
1.148000e+03 9.446973e+01
1.149000e+03 1.917309e+03
1.150000e+03 1.485057e+03
1.151000e+03 2.415550e+03
1.152000e+03 2.195109e+03
1.153000e+03 2.235839e+03
1.154000e+03 2.421946e+03
1.155000e+03 1.749069e+03
1.156000e+03 2.111938e+03
1.157000e+03 2.325139e+03
1.158000e+03 1.251997e+03
1.159000e+03 2.356658e+03
1.160000e+03 1.186006e+03
1.161000e+03 2.255902e+03
1.162000e+03 3.039116e+02
1.163000e+03 6.880830e+02
1.164000e+03 2.163428e+01
1.165000e+03 1.617978e+03
1.166000e+03 1.035984e+03
1.167000e+03 8.148805e+02
1.168000e+03 2.621367e+03
1.169000e+03 2.675405e+03
1.170000e+03 8.066434e+02
1.171000e+03 1.629925e+03
1.172000e+03 1.074943e+03
1.173000e+03 1.345242e+03
1.174000e+03 9.385315e+01
1.175000e+03 1.798071e+01
1.176000e+03 9.870178e+00
1.177000e+03 3.212516e+03
1.178000e+03 3.130956e+03
1.179000e+03 2.973368e+03
1.180000e+03 2.152049e+03
1.181000e+03 2.918860e+03
1.182000e+03 2.788487e+03
1.183000e+03 2.269331e+03
1.184000e+03 2.067210e+03
1.185000e+03 2.315683e+03
1.186000e+03 3.701003e+02
1.187000e+03 2.454188e+03
1.188000e+03 1.653025e+03
1.189000e+03 2.447326e+03
1.190000e+03 2.530044e+03
1.191000e+03 2.267328e+03
1.192000e+03 2.272540e+03
1.193000e+03 1.372569e+03
1.194000e+03 2.143366e+03
1.195000e+03 2.146801e+03
1.196000e+03 8.849907e+03
1.197000e+03 9.956146e+03
1.198000e+03 1.025550e+03
1.199000e+03 9.431066e+03
1.200000e+03 2.082089e+03
1.201000e+03 8.507629e+03
1.202000e+03 5.076434e+03
1.203000e+03 7.202810e+03
1.204000e+03 1.722340e+03
1.205000e+03 5.756833e+03
1.206000e+03 5.242015e+03
1.207000e+03 1.402335e+03
1.208000e+03 3.348657e+03
1.209000e+03 2.782886e+03
1.210000e+03 3.464856e+01
1.211000e+03 1.317114e+03
1.212000e+03 7.089207e+02
1.213000e+03 3.579304e+02
1.214000e+03 1.237349e+02
1.215000e+03 3.476743e+01
1.216000e+03 2.628927e+01
1.217000e+03 8.594708e+01
1.218000e+03 2.965891e+02
1.219000e+03 7.139215e+02
1.220000e+03 9.696832e+02
1.221000e+03 2.310797e+03
1.222000e+03 3.301688e+03
1.223000e+03 4.249667e+03
1.224000e+03 5.816081e+03
1.225000e+03 1.237897e+03
1.226000e+03 9.302311e+03
1.227000e+03 1.088192e+04
1.228000e+03 5.042616e+03
1.229000e+03 1.272698e+04
1.230000e+03 1.124939e+04
1.231000e+03 3.989116e+03
1.232000e+03 1.861313e+04
1.233000e+03 2.022559e+04
1.234000e+03 1.736449e+04
1.235000e+03 2.186216e+04
1.236000e+03 7.750759e+03
1.237000e+03 2.496142e+04
1.238000e+03 2.503231e+04
1.239000e+03 2.216145e+04
1.240000e+03 1.454397e+04
1.241000e+03 2.184928e+04
1.242000e+03 2.792825e+04
1.243000e+03 3.134768e+04
1.244000e+03 3.281864e+04
1.245000e+03 3.282232e+04
1.246000e+03 3.059208e+04
1.247000e+03 3.318316e+04
1.248000e+03 3.059804e+04
1.249000e+03 3.808880e+04
1.250000e+03 2.972027e+04
1.251000e+03 3.972311e+04
1.252000e+03 3.744362e+04
1.253000e+03 4.151864e+04
1.254000e+03 3.992363e+04
1.255000e+03 2.430389e+04
1.256000e+03 3.732157e+04
1.257000e+03 3.602838e+04
1.258000e+03 3.266644e+04
1.259000e+03 3.851183e+04
1.260000e+03 4.679779e+04
1.261000e+03 4.560980e+03
1.262000e+03 4.902100e+04
1.263000e+03 4.747119e+04
1.264000e+03 3.876857e+04
1.265000e+03 8.033750e+02
1.266000e+03 5.345517e+04
1.267000e+03 4.679726e+04
