# wavelength_A flux
5.000000e+02 9.554813e-09
5.010000e+02 1.086066e-08
5.020000e+02 1.233845e-08
5.030000e+02 1.400991e-08
5.040000e+02 1.589950e-08
5.050000e+02 1.842662e-08
5.060000e+02 2.088766e-08
5.070000e+02 2.366524e-08
5.080000e+02 2.679851e-08
5.090000e+02 3.033205e-08
5.100000e+02 3.431329e-08
5.110000e+02 3.879776e-08
5.120000e+02 4.384642e-08
5.130000e+02 4.952755e-08
5.140000e+02 5.591726e-08
5.150000e+02 6.309988e-08
5.160000e+02 7.117181e-08
5.170000e+02 8.023416e-08
5.180000e+02 9.041299e-08
5.190000e+02 1.018311e-07
5.200000e+02 1.146366e-07
5.210000e+02 1.289915e-07
5.220000e+02 1.450622e-07
5.230000e+02 1.630895e-07
5.240000e+02 1.832550e-07
5.250000e+02 2.058210e-07
5.260000e+02 2.310580e-07
5.270000e+02 2.592711e-07
5.280000e+02 2.907973e-07
5.290000e+02 3.259449e-07
5.300000e+02 3.653227e-07
5.310000e+02 4.091938e-07
5.320000e+02 4.581316e-07
5.330000e+02 5.126947e-07
5.340000e+02 5.735048e-07
5.350000e+02 6.412469e-07
5.360000e+02 7.166770e-07
5.370000e+02 7.917014e-07
5.380000e+02 8.940488e-07
5.390000e+02 9.979503e-07
5.400000e+02 1.113454e-06
5.410000e+02 1.241717e-06
5.420000e+02 1.384335e-06
5.430000e+02 1.542617e-06
5.440000e+02 1.718274e-06
5.450000e+02 1.913145e-06
5.460000e+02 2.128931e-06
5.470000e+02 2.368789e-06
5.480000e+02 2.634209e-06
5.490000e+02 2.928204e-06
5.500000e+02 3.253698e-06
5.510000e+02 3.613938e-06
5.520000e+02 4.012471e-06
5.530000e+02 4.453200e-06
5.540000e+02 4.940402e-06
5.550000e+02 5.478771e-06
5.560000e+02 6.073454e-06
5.570000e+02 6.730092e-06
5.580000e+02 7.454863e-06
5.590000e+02 8.254536e-06
5.600000e+02 9.136529e-06
5.610000e+02 1.010895e-05
5.620000e+02 1.118068e-05
5.630000e+02 1.236142e-05
5.640000e+02 1.366178e-05
5.650000e+02 1.509334e-05
5.660000e+02 1.666884e-05
5.670000e+02 1.840204e-05
5.680000e+02 2.030810e-05
5.690000e+02 2.240348e-05
5.700000e+02 2.470615e-05
5.710000e+02 2.723584e-05
5.720000e+02 3.001383e-05
5.730000e+02 3.306349e-05
5.740000e+02 3.641020e-05
5.750000e+02 4.008219e-05
5.760000e+02 4.410365e-05
5.770000e+02 4.852256e-05
5.780000e+02 5.335991e-05
5.790000e+02 5.865941e-05
5.800000e+02 6.446326e-05
5.810000e+02 7.081730e-05
5.820000e+02 7.777123e-05
5.830000e+02 8.537868e-05
5.840000e+02 9.367616e-05
5.850000e+02 1.027932e-04
5.860000e+02 1.127437e-04
5.870000e+02 1.236105e-04
5.880000e+02 1.354799e-04
5.890000e+02 1.484384e-04
5.900000e+02 1.625883e-04
5.910000e+02 1.780271e-04
5.920000e+02 1.948697e-04
5.930000e+02 2.132377e-04
5.940000e+02 2.332631e-04
5.950000e+02 2.550816e-04
5.960000e+02 2.788690e-04
5.970000e+02 3.047711e-04
5.980000e+02 3.329755e-04
5.990000e+02 3.636778e-04
6.000000e+02 3.970889e-04
6.010000e+02 4.333986e-04
6.020000e+02 4.729682e-04
6.030000e+02 5.159478e-04
6.040000e+02 5.626652e-04
6.050000e+02 6.134282e-04
6.060000e+02 6.685704e-04
6.070000e+02 7.284560e-04
6.080000e+02 7.934699e-04
6.090000e+02 8.640325e-04
6.100000e+02 9.405944e-04
6.110000e+02 1.023644e-03
6.120000e+02 1.113704e-03
6.130000e+02 1.211338e-03
6.140000e+02 1.317154e-03
6.150000e+02 1.431806e-03
6.160000e+02 1.555996e-03
6.170000e+02 1.690481e-03
6.180000e+02 1.836074e-03
6.190000e+02 1.993648e-03
6.200000e+02 2.164144e-03
6.210000e+02 2.348570e-03
6.220000e+02 2.548011e-03
6.230000e+02 2.763631e-03
6.240000e+02 2.996677e-03
6.250000e+02 3.248497e-03
6.260000e+02 3.520526e-03
6.270000e+02 3.814310e-03
6.280000e+02 4.131505e-03
6.290000e+02 4.473887e-03
6.300000e+02 4.843359e-03
6.310000e+02 5.241828e-03
6.320000e+02 5.671880e-03
6.330000e+02 6.135448e-03
6.340000e+02 6.635198e-03
6.350000e+02 7.173785e-03
6.360000e+02 7.746055e-03
6.370000e+02 8.379212e-03
6.380000e+02 9.052409e-03
6.390000e+02 9.777212e-03
6.400000e+02 1.055738e-02
6.410000e+02 1.139693e-02
6.420000e+02 1.230017e-02
6.430000e+02 1.327169e-02
6.440000e+02 1.431640e-02
6.450000e+02 1.543953e-02
6.460000e+02 1.664671e-02
6.470000e+02 1.794387e-02
6.480000e+02 1.933744e-02
6.490000e+02 2.083418e-02
6.500000e+02 2.244134e-02
6.510000e+02 2.416671e-02
6.520000e+02 2.601852e-02
6.530000e+02 2.800558e-02
6.540000e+02 3.013727e-02
6.550000e+02 3.242359e-02
6.560000e+02 3.487518e-02
6.570000e+02 3.750273e-02
6.580000e+02 4.032034e-02
6.590000e+02 4.333885e-02
6.600000e+02 4.657251e-02
6.610000e+02 5.003618e-02
6.620000e+02 5.374514e-02
6.630000e+02 5.771594e-02
6.640000e+02 6.196613e-02
6.650000e+02 6.651422e-02
6.660000e+02 7.138046e-02
6.670000e+02 7.658551e-02
6.680000e+02 8.215191e-02
6.690000e+02 8.810346e-02
6.700000e+02 9.446541e-02
6.710000e+02 1.012646e-01
6.720000e+02 1.085292e-01
6.730000e+02 1.162906e-01
6.740000e+02 1.245797e-01
6.750000e+02 1.334310e-01
6.760000e+02 1.428807e-01
6.770000e+02 1.529671e-01
6.780000e+02 1.637306e-01
6.790000e+02 1.752148e-01
6.800000e+02 1.874651e-01
6.810000e+02 2.005301e-01
6.820000e+02 2.144609e-01
6.830000e+02 2.293121e-01
6.840000e+02 2.451411e-01
6.850000e+02 2.620083e-01
6.860000e+02 2.799804e-01
6.870000e+02 2.991217e-01
6.880000e+02 3.195109e-01
6.890000e+02 3.412189e-01
6.900000e+02 3.643286e-01
6.910000e+02 3.889261e-01
6.920000e+02 4.151014e-01
6.930000e+02 4.429506e-01
6.940000e+02 4.725750e-01
6.950000e+02 5.040811e-01
6.960000e+02 5.375833e-01
6.970000e+02 5.731932e-01
6.980000e+02 6.110590e-01
6.990000e+02 6.512923e-01
7.000000e+02 6.940408e-01
7.010000e+02 7.394543e-01
7.020000e+02 7.876889e-01
7.030000e+02 8.389112e-01
7.040000e+02 8.932958e-01
7.050000e+02 9.510272e-01
7.060000e+02 1.012300e+00
7.070000e+02 1.077320e+00
7.080000e+02 1.146304e+00
7.090000e+02 1.219474e+00
7.100000e+02 1.297087e+00
7.110000e+02 1.379380e+00
7.120000e+02 1.466628e+00
7.130000e+02 1.559111e+00
7.140000e+02 1.657126e+00
7.150000e+02 1.760986e+00
7.160000e+02 1.871021e+00
7.170000e+02 1.987569e+00
7.180000e+02 2.110990e+00
7.190000e+02 2.241725e+00
7.200000e+02 2.380108e+00
7.210000e+02 2.526591e+00
7.220000e+02 2.681620e+00
7.230000e+02 2.845666e+00
7.240000e+02 3.019224e+00
7.250000e+02 3.202814e+00
7.260000e+02 3.396983e+00
7.270000e+02 3.602310e+00
7.280000e+02 3.819396e+00
7.290000e+02 4.048873e+00
7.300000e+02 4.291412e+00
7.310000e+02 4.547719e+00
7.320000e+02 4.818525e+00
7.330000e+02 5.104605e+00
7.340000e+02 5.406773e+00
7.350000e+02 5.725878e+00
7.360000e+02 6.062814e+00
7.370000e+02 6.418532e+00
7.380000e+02 6.794005e+00
7.390000e+02 7.190273e+00
7.400000e+02 7.608394e+00
7.410000e+02 8.049583e+00
7.420000e+02 8.514928e+00
7.430000e+02 9.005796e+00
7.440000e+02 9.523409e+00
7.450000e+02 1.006916e+01
7.460000e+02 1.064452e+01
7.470000e+02 1.125098e+01
7.480000e+02 1.189013e+01
7.490000e+02 1.256362e+01
7.500000e+02 1.327320e+01
7.510000e+02 1.402068e+01
7.520000e+02 1.480796e+01
7.530000e+02 1.563704e+01
7.540000e+02 1.651003e+01
7.550000e+02 1.742909e+01
7.560000e+02 1.839652e+01
7.570000e+02 1.941431e+01
7.580000e+02 2.048618e+01
7.590000e+02 2.161344e+01
7.600000e+02 2.279950e+01
7.610000e+02 2.404700e+01
7.620000e+02 2.535899e+01
7.630000e+02 2.673860e+01
7.640000e+02 2.818913e+01
7.650000e+02 2.971397e+01
7.660000e+02 3.131676e+01
7.670000e+02 3.300119e+01
7.680000e+02 3.477102e+01
7.690000e+02 3.663085e+01
7.700000e+02 3.858443e+01
7.710000e+02 4.063637e+01
7.720000e+02 4.279136e+01
7.730000e+02 4.505422e+01
7.740000e+02 4.743005e+01
7.750000e+02 4.992413e+01
7.760000e+02 5.253703e+01
7.770000e+02 5.528936e+01
7.780000e+02 5.817235e+01
7.790000e+02 6.119719e+01
7.800000e+02 6.437041e+01
7.810000e+02 6.769889e+01
7.820000e+02 7.118972e+01
7.830000e+02 7.485030e+01
7.840000e+02 7.868850e+01
7.850000e+02 8.271227e+01
7.860000e+02 8.692993e+01
7.870000e+02 9.135085e+01
7.880000e+02 9.598344e+01
7.890000e+02 1.008375e+02
7.900000e+02 1.059230e+02
7.910000e+02 1.112503e+02
7.920000e+02 1.168301e+02
7.930000e+02 1.226737e+02
7.940000e+02 1.287927e+02
7.950000e+02 1.351994e+02
7.960000e+02 1.419063e+02
7.970000e+02 1.489267e+02
7.980000e+02 1.562743e+02
7.990000e+02 1.639632e+02
8.000000e+02 1.720086e+02
8.010000e+02 1.804255e+02
8.020000e+02 1.892310e+02
8.030000e+02 1.984405e+02
8.040000e+02 2.080723e+02
8.050000e+02 2.181444e+02
8.060000e+02 2.286754e+02
8.070000e+02 2.396850e+02
8.080000e+02 2.511936e+02
8.090000e+02 2.632223e+02
8.100000e+02 2.757930e+02
8.110000e+02 2.889287e+02
8.120000e+02 3.026531e+02
8.130000e+02 3.169909e+02
8.140000e+02 3.319677e+02
8.150000e+02 3.476097e+02
8.160000e+02 3.639460e+02
8.170000e+02 3.810038e+02
8.180000e+02 3.988137e+02
8.190000e+02 4.174064e+02
8.200000e+02 4.368141e+02
8.210000e+02 4.570699e+02
8.220000e+02 4.782092e+02
8.230000e+02 5.002670e+02
8.240000e+02 5.232819e+02
8.250000e+02 5.472919e+02
8.260000e+02 5.723370e+02
8.270000e+02 5.984595e+02
8.280000e+02 6.257023e+02
8.290000e+02 6.541103e+02
8.300000e+02 6.837302e+02
8.310000e+02 7.146099e+02
8.320000e+02 7.467998e+02
8.330000e+02 7.803516e+02
8.340000e+02 8.153191e+02
8.350000e+02 8.516907e+02
8.360000e+02 8.897225e+02
8.370000e+02 9.292838e+02
8.380000e+02 9.704843e+02
8.390000e+02 1.013416e+03
8.400000e+02 1.058123e+03
8.410000e+02 1.104679e+03
8.420000e+02 1.153139e+03
8.430000e+02 1.203635e+03
8.440000e+02 1.256185e+03
8.450000e+02 1.310887e+03
8.460000e+02 1.367825e+03
8.470000e+02 1.427082e+03
8.480000e+02 1.488748e+03
8.490000e+02 1.552912e+03
8.500000e+02 1.619671e+03
8.510000e+02 1.689121e+03
8.520000e+02 1.761360e+03
8.530000e+02 1.836501e+03
8.540000e+02 1.914654e+03
8.550000e+02 1.995916e+03
8.560000e+02 2.080411e+03
8.570000e+02 2.168258e+03
8.580000e+02 2.259580e+03
8.590000e+02 2.354509e+03
8.600000e+02 2.453174e+03
8.610000e+02 2.555713e+03
8.620000e+02 2.662268e+03
8.630000e+02 2.772982e+03
8.640000e+02 2.888015e+03
8.650000e+02 3.007508e+03
8.660000e+02 3.131641e+03
8.670000e+02 3.260569e+03
8.680000e+02 3.394467e+03
8.690000e+02 3.533514e+03
8.700000e+02 3.677893e+03
8.710000e+02 3.827794e+03
8.720000e+02 3.983415e+03
8.730000e+02 4.144957e+03
8.740000e+02 4.312630e+03
8.750000e+02 4.486650e+03
8.760000e+02 4.667241e+03
8.770000e+02 4.854621e+03
8.780000e+02 5.049064e+03
8.790000e+02 5.250780e+03
8.800000e+02 5.460034e+03
8.810000e+02 5.677087e+03
8.820000e+02 5.902209e+03
8.830000e+02 6.135681e+03
8.840000e+02 6.377787e+03
8.850000e+02 6.628825e+03
8.860000e+02 6.889100e+03
8.870000e+02 7.158930e+03
8.880000e+02 7.438637e+03
8.890000e+02 7.728559e+03
8.900000e+02 8.029041e+03
8.910000e+02 8.340430e+03
8.920000e+02 8.652869e+03
8.930000e+02 8.997459e+03
8.940000e+02 9.343861e+03
8.950000e+02 9.702714e+03
8.960000e+02 1.007445e+04
8.970000e+02 1.045949e+04
8.980000e+02 1.085826e+04
8.990000e+02 1.127124e+04
9.000000e+02 1.169888e+04
9.010000e+02 1.214166e+04
9.020000e+02 1.260009e+04
9.030000e+02 1.307468e+04
9.040000e+02 1.356583e+04
9.050000e+02 1.407443e+04
9.060000e+02 1.460074e+04
9.070000e+02 1.514515e+04
9.080000e+02 1.570899e+04
9.090000e+02 1.629217e+04
9.100000e+02 1.689554e+04
9.110000e+02 1.751981e+04
9.120000e+02 1.816592e+04
9.130000e+02 1.859173e+04
9.140000e+02 1.981146e+04
9.150000e+02 8.350076e+04
9.160000e+02 2.254076e+05
9.170000e+02 2.347048e+05
9.180000e+02 2.275554e+05
9.190000e+02 2.619321e+05
9.200000e+02 2.725972e+05
9.210000e+02 2.439263e+04
9.220000e+02 2.895914e+05
9.230000e+02 2.722972e+05
9.240000e+02 2.825929e+05
9.250000e+02 3.125999e+05
9.260000e+02 3.136046e+05
9.270000e+02 3.347037e+05
9.280000e+02 3.455249e+05
9.290000e+02 3.208557e+05
9.300000e+02 3.617765e+05
9.310000e+02 3.639689e+05
9.320000e+02 3.877123e+05
9.330000e+02 3.983237e+05
9.340000e+02 4.105752e+05
9.350000e+02 1.073286e+05
9.360000e+02 4.185979e+05
9.370000e+02 8.222705e+04
9.380000e+02 2.331695e+05
9.390000e+02 4.705417e+05
9.400000e+02 4.868294e+05
9.410000e+02 2.050428e+05
9.420000e+02 5.152268e+05
9.430000e+02 5.290324e+05
9.440000e+02 3.889420e+05
9.450000e+02 5.601513e+05
9.460000e+02 5.757631e+05
9.470000e+02 4.610799e+05
9.480000e+02 4.987730e+05
9.490000e+02 6.198153e+05
9.500000e+02 1.217738e+05
9.510000e+02 6.425474e+05
9.520000e+02 6.799081e+05
9.530000e+02 6.845373e+05
9.540000e+02 6.093780e+05
9.550000e+02 7.383295e+05
9.560000e+02 5.888127e+05
9.570000e+02 5.342009e+05
9.580000e+02 7.720224e+05
9.590000e+02 8.275851e+05
9.600000e+02 1.717498e+05
9.610000e+02 8.724828e+05
9.620000e+02 8.965568e+05
9.630000e+02 9.219087e+05
9.640000e+02 1.122932e+05
9.650000e+02 8.942148e+05
9.660000e+02 9.988186e+05
9.670000e+02 1.016684e+06
9.680000e+02 1.036558e+06
9.690000e+02 1.076194e+06
9.700000e+02 1.108247e+06
9.710000e+02 1.124143e+06
9.720000e+02 1.076715e+06
9.730000e+02 1.081636e+06
9.740000e+02 1.219234e+06
9.750000e+02 1.264437e+06
9.760000e+02 1.303067e+06
9.770000e+02 1.338631e+06
9.780000e+02 1.370659e+06
9.790000e+02 1.412220e+06
9.800000e+02 1.449310e+06
9.810000e+02 1.486821e+06
9.820000e+02 1.516954e+06
9.830000e+02 1.566612e+06
9.840000e+02 7.129943e+05
9.850000e+02 1.647842e+06
9.860000e+02 1.689647e+06
9.870000e+02 1.736866e+06
9.880000e+02 1.750764e+06
9.890000e+02 1.499398e+06
9.900000e+02 2.964804e+05
9.910000e+02 1.893205e+06
9.920000e+02 1.693156e+06
9.930000e+02 1.919019e+06
9.940000e+02 3.540942e+05
9.950000e+02 6.567603e+05
9.960000e+02 1.253526e+06
9.970000e+02 5.082551e+05
9.980000e+02 2.290476e+06
9.990000e+02 2.301490e+06
1.000000e+03 2.414207e+06
1.001000e+03 2.475874e+06
1.002000e+03 2.537234e+06
1.003000e+03 2.458102e+06
1.004000e+03 2.636344e+06
1.005000e+03 2.532500e+06
1.006000e+03 2.801614e+06
1.007000e+03 2.865865e+06
1.008000e+03 2.938023e+06
1.009000e+03 2.959371e+06
1.010000e+03 3.089043e+06
1.011000e+03 3.165296e+06
1.012000e+03 3.242176e+06
1.013000e+03 3.321280e+06
1.014000e+03 3.186147e+06
1.015000e+03 3.383856e+06
1.016000e+03 3.548511e+06
1.017000e+03 3.456745e+06
1.018000e+03 3.727200e+06
1.019000e+03 3.758649e+06
1.020000e+03 3.912767e+06
1.021000e+03 2.278645e+06
1.022000e+03 3.725506e+06
1.023000e+03 4.033420e+06
1.024000e+03 3.864182e+06
1.025000e+03 3.049090e+06
1.026000e+03 1.559570e+06
1.027000e+03 4.021498e+06
1.028000e+03 1.260567e+06
1.029000e+03 4.547936e+06
1.030000e+03 4.881061e+06
1.031000e+03 5.061083e+06
1.032000e+03 5.182496e+06
1.033000e+03 2.446742e+06
1.034000e+03 5.465798e+06
1.035000e+03 1.270720e+06
1.036000e+03 5.154964e+06
1.037000e+03 1.144080e+06
1.038000e+03 6.016187e+06
1.039000e+03 6.111184e+06
1.040000e+03 6.301743e+06
1.041000e+03 6.387538e+06
1.042000e+03 6.551844e+06
1.043000e+03 6.529162e+06
1.044000e+03 6.903336e+06
1.045000e+03 7.062610e+06
1.046000e+03 7.239602e+06
1.047000e+03 7.392822e+06
1.048000e+03 7.461278e+06
1.049000e+03 7.524544e+06
1.050000e+03 7.919464e+06
1.051000e+03 8.090966e+06
1.052000e+03 8.296063e+06
1.053000e+03 8.425814e+06
1.054000e+03 8.145674e+06
1.055000e+03 8.774233e+06
1.056000e+03 9.078197e+06
1.057000e+03 9.272670e+06
1.058000e+03 9.476261e+06
1.059000e+03 9.624673e+06
1.060000e+03 9.805241e+06
1.061000e+03 1.013910e+07
1.062000e+03 1.034775e+07
1.063000e+03 3.934134e+06
1.064000e+03 2.453226e+06
1.065000e+03 1.063339e+07
1.066000e+03 9.008714e+06
1.067000e+03 1.131501e+07
1.068000e+03 1.188727e+07
1.069000e+03 1.168466e+07
1.070000e+03 1.232574e+07
1.071000e+03 1.269466e+07
1.072000e+03 1.297163e+07
1.073000e+03 1.282688e+07
1.074000e+03 1.352358e+07
1.075000e+03 1.380641e+07
1.076000e+03 1.414045e+07
1.077000e+03 1.435164e+07
1.078000e+03 1.472805e+07
1.079000e+03 1.503234e+07
1.080000e+03 1.538860e+07
1.081000e+03 1.572797e+07
1.082000e+03 1.605943e+07
1.083000e+03 1.639302e+07
1.084000e+03 1.673850e+07
1.085000e+03 1.290355e+07
1.086000e+03 1.748774e+07
1.087000e+03 1.771188e+07
1.088000e+03 1.818697e+07
1.089000e+03 1.861659e+07
1.090000e+03 1.894559e+07
1.091000e+03 1.932883e+07
1.092000e+03 1.981198e+07
1.093000e+03 2.021375e+07
1.094000e+03 2.064261e+07
1.095000e+03 2.106940e+07
1.096000e+03 2.150493e+07
1.097000e+03 2.172608e+07
1.098000e+03 2.218351e+07
1.099000e+03 2.284932e+07
1.100000e+03 2.264663e+07
1.101000e+03 2.171825e+07
1.102000e+03 4.718891e+07
1.103000e+03 1.464942e+08
1.104000e+03 5.980237e+07
1.105000e+03 2.379059e+07
1.106000e+03 3.234539e+08
1.107000e+03 1.760340e+08
1.108000e+03 3.389833e+08
1.109000e+03 2.034385e+08
1.110000e+03 8.697658e+07
1.111000e+03 5.381395e+07
1.112000e+03 3.116305e+08
1.113000e+03 3.744766e+08
1.114000e+03 1.950430e+07
1.115000e+03 3.350454e+08
1.116000e+03 3.302975e+08
1.117000e+03 2.162237e+07
1.118000e+03 2.573210e+08
1.119000e+03 4.007866e+08
1.120000e+03 3.583567e+08
1.121000e+03 3.744954e+08
1.122000e+03 8.470080e+06
1.123000e+03 4.438480e+07
1.124000e+03 4.349877e+08
1.125000e+03 2.296041e+08
1.126000e+03 4.523625e+08
1.127000e+03 4.429156e+08
1.128000e+03 1.976781e+08
1.129000e+03 4.534830e+08
1.130000e+03 4.108143e+08
1.131000e+03 4.878101e+08
1.132000e+03 2.419782e+07
1.133000e+03 3.747835e+08
1.134000e+03 4.811989e+08
1.135000e+03 1.413603e+07
1.136000e+03 4.880265e+08
1.137000e+03 5.316572e+08
1.138000e+03 5.274217e+08
1.139000e+03 5.354202e+08
1.140000e+03 1.533306e+07
1.141000e+03 5.642767e+08
1.142000e+03 5.640979e+08
1.143000e+03 5.787460e+08
1.144000e+03 5.920596e+08
1.145000e+03 3.901139e+08
1.146000e+03 6.094886e+08
1.147000e+03 6.092839e+08
1.148000e+03 5.469567e+08
1.149000e+03 6.344945e+08
1.150000e+03 6.261875e+08
1.151000e+03 6.516723e+08
1.152000e+03 6.615802e+08
1.153000e+03 2.140266e+08
1.154000e+03 5.405498e+07
1.155000e+03 5.485353e+08
1.156000e+03 1.748886e+08
1.157000e+03 7.121524e+08
1.158000e+03 2.341124e+07
1.159000e+03 6.103526e+08
1.160000e+03 7.112390e+08
1.161000e+03 7.574001e+08
1.162000e+03 1.965791e+08
1.163000e+03 7.423498e+08
1.164000e+03 3.275866e+07
1.165000e+03 8.025731e+08
1.166000e+03 8.079436e+08
1.167000e+03 8.068063e+08
1.168000e+03 8.444454e+08
1.169000e+03 8.364826e+08
1.170000e+03 8.691104e+08
1.171000e+03 8.830927e+08
1.172000e+03 8.657053e+08
1.173000e+03 9.135821e+08
1.174000e+03 7.892930e+08
1.175000e+03 3.832538e+07
1.176000e+03 3.278144e+07
1.177000e+03 9.701259e+08
1.178000e+03 9.401613e+08
1.179000e+03 1.000054e+09
1.180000e+03 7.768298e+08
1.181000e+03 1.023946e+09
1.182000e+03 1.045015e+09
1.183000e+03 1.054736e+09
1.184000e+03 1.066282e+09
1.185000e+03 1.068811e+09
1.186000e+03 1.055343e+09
1.187000e+03 1.109262e+09
1.188000e+03 1.090629e+09
1.189000e+03 4.090298e+07
1.190000e+03 1.656241e+08
1.191000e+03 1.129645e+09
1.192000e+03 1.142913e+09
1.193000e+03 3.832499e+07
1.194000e+03 4.688442e+07
1.195000e+03 8.693956e+08
1.196000e+03 1.163818e+09
1.197000e+03 1.598472e+09
1.198000e+03 1.555358e+09
1.199000e+03 1.567424e+09
1.200000e+03 1.381184e+09
1.201000e+03 1.471385e+09
1.202000e+03 1.432487e+09
1.203000e+03 1.707055e+09
1.204000e+03 1.482211e+09
1.205000e+03 1.439879e+09
1.206000e+03 1.290791e+09
1.207000e+03 2.674098e+08
1.208000e+03 9.979215e+08
1.209000e+03 7.651755e+08
1.210000e+03 6.745120e+07
1.211000e+03 4.580485e+08
1.212000e+03 2.989112e+08
1.213000e+03 1.891419e+08
1.214000e+03 1.100878e+08
1.215000e+03 6.888870e+07
1.216000e+03 6.256487e+07
1.217000e+03 9.679579e+07
1.218000e+03 1.714413e+08
1.219000e+03 2.959950e+08
1.220000e+03 4.669890e+08
1.221000e+03 6.813706e+08
1.222000e+03 9.222773e+08
1.223000e+03 1.185783e+09
1.224000e+03 1.465401e+09
1.225000e+03 1.680066e+09
1.226000e+03 2.034568e+09
1.227000e+03 2.307284e+09
1.228000e+03 2.555962e+09
1.229000e+03 2.883033e+09
1.230000e+03 3.120222e+09
1.231000e+03 3.314515e+09
1.232000e+03 3.741933e+09
1.233000e+03 4.005374e+09
1.234000e+03 2.554876e+09
1.235000e+03 4.487598e+09
1.236000e+03 4.427071e+09
1.237000e+03 4.954210e+09
1.238000e+03 5.129829e+09
1.239000e+03 5.337403e+09
1.240000e+03 4.995652e+09
1.241000e+03 9.129111e+09
1.242000e+03 4.829739e+09
1.243000e+03 7.507220e+09
1.244000e+03 2.944497e+09
1.245000e+03 4.455881e+09
1.246000e+03 1.483188e+10
1.247000e+03 1.501630e+10
1.248000e+03 3.151018e+09
1.249000e+03 4.006824e+09
1.250000e+03 1.804906e+10
1.251000e+03 1.929938e+10
1.252000e+03 1.907531e+10
1.253000e+03 2.077230e+10
1.254000e+03 2.035909e+10
1.255000e+03 2.201078e+10
1.256000e+03 2.147330e+10
1.257000e+03 2.325788e+10
1.258000e+03 2.055123e+10
1.259000e+03 2.231501e+10
1.260000e+03 1.882575e+10
1.261000e+03 1.437396e+08
1.262000e+03 1.875414e+09
1.263000e+03 2.572907e+10
1.264000e+03 2.111240e+10
1.265000e+03 1.469901e+08
1.266000e+03 2.682515e+10
1.267000e+03 2.624827e+10
