# wavelength_A flux
5.000000e+02 1.602237e+00
5.010000e+02 1.753786e+00
5.020000e+02 1.918942e+00
5.030000e+02 2.098854e+00
5.040000e+02 2.294781e+00
5.050000e+02 2.547414e+00
5.060000e+02 2.782762e+00
5.070000e+02 3.038740e+00
5.080000e+02 3.317056e+00
5.090000e+02 3.619692e+00
5.100000e+02 3.948323e+00
5.110000e+02 4.305300e+00
5.120000e+02 4.692874e+00
5.130000e+02 5.113535e+00
5.140000e+02 5.569936e+00
5.150000e+02 6.064925e+00
5.160000e+02 6.601653e+00
5.170000e+02 7.183164e+00
5.180000e+02 7.813660e+00
5.190000e+02 8.496383e+00
5.200000e+02 9.235638e+00
5.210000e+02 1.003581e+01
5.220000e+02 1.090085e+01
5.230000e+02 1.183824e+01
5.240000e+02 1.285098e+01
5.250000e+02 1.394601e+01
5.260000e+02 1.512922e+01
5.270000e+02 1.640747e+01
5.280000e+02 1.778796e+01
5.290000e+02 1.927567e+01
5.300000e+02 2.088692e+01
5.310000e+02 2.262254e+01
5.320000e+02 2.449470e+01
5.330000e+02 2.651339e+01
5.340000e+02 2.868946e+01
5.350000e+02 3.103446e+01
5.360000e+02 3.356060e+01
5.370000e+02 3.597702e+01
5.380000e+02 3.921046e+01
5.390000e+02 4.236378e+01
5.400000e+02 4.575680e+01
5.410000e+02 4.940432e+01
5.420000e+02 5.333080e+01
5.430000e+02 5.755030e+01
5.440000e+02 6.208514e+01
5.450000e+02 6.695763e+01
5.460000e+02 7.218430e+01
5.470000e+02 7.781112e+01
5.480000e+02 8.384436e+01
5.490000e+02 9.031991e+01
5.500000e+02 9.726744e+01
5.510000e+02 1.047198e+02
5.520000e+02 1.127112e+02
5.530000e+02 1.212782e+02
5.540000e+02 1.304598e+02
5.550000e+02 1.402976e+02
5.560000e+02 1.508356e+02
5.570000e+02 1.621205e+02
5.580000e+02 1.742010e+02
5.590000e+02 1.871318e+02
5.600000e+02 2.009680e+02
5.610000e+02 2.157692e+02
5.620000e+02 2.315985e+02
5.630000e+02 2.485228e+02
5.640000e+02 2.666133e+02
5.650000e+02 2.859448e+02
5.660000e+02 3.065977e+02
5.670000e+02 3.286571e+02
5.680000e+02 3.522124e+02
5.690000e+02 3.773586e+02
5.700000e+02 4.041956e+02
5.710000e+02 4.328325e+02
5.720000e+02 4.633795e+02
5.730000e+02 4.959577e+02
5.740000e+02 5.306929e+02
5.750000e+02 5.677241e+02
5.760000e+02 6.071304e+02
5.770000e+02 6.492190e+02
5.780000e+02 6.939998e+02
5.790000e+02 7.416880e+02
5.800000e+02 7.924601e+02
5.810000e+02 8.465021e+02
5.820000e+02 9.040117e+02
5.830000e+02 9.651905e+02
5.840000e+02 1.030106e+03
5.850000e+02 1.099449e+03
5.860000e+02 1.173073e+03
5.870000e+02 1.251292e+03
5.880000e+02 1.334414e+03
5.890000e+02 1.422709e+03
5.900000e+02 1.516527e+03
5.910000e+02 1.616145e+03
5.920000e+02 1.721915e+03
5.930000e+02 1.834190e+03
5.940000e+02 1.953342e+03
5.950000e+02 2.079720e+03
5.960000e+02 2.213879e+03
5.970000e+02 2.356115e+03
5.980000e+02 2.506934e+03
5.990000e+02 2.666819e+03
6.000000e+02 2.836279e+03
6.010000e+02 3.015700e+03
6.020000e+02 3.206090e+03
6.030000e+02 3.407569e+03
6.040000e+02 3.620966e+03
6.050000e+02 3.846900e+03
6.060000e+02 4.086054e+03
6.070000e+02 4.339174e+03
6.080000e+02 4.606995e+03
6.090000e+02 4.890322e+03
6.100000e+02 5.189973e+03
6.110000e+02 5.506864e+03
6.120000e+02 5.841896e+03
6.130000e+02 6.196038e+03
6.140000e+02 6.570300e+03
6.150000e+02 6.965764e+03
6.160000e+02 7.383530e+03
6.170000e+02 7.824777e+03
6.180000e+02 8.290731e+03
6.190000e+02 8.782653e+03
6.200000e+02 9.301948e+03
6.210000e+02 9.850003e+03
6.220000e+02 1.042830e+04
6.230000e+02 1.103839e+04
6.240000e+02 1.168190e+04
6.250000e+02 1.236051e+04
6.260000e+02 1.307605e+04
6.270000e+02 1.383024e+04
6.280000e+02 1.462526e+04
6.290000e+02 1.546295e+04
6.300000e+02 1.634563e+04
6.310000e+02 1.727526e+04
6.320000e+02 1.825472e+04
6.330000e+02 1.928593e+04
6.340000e+02 2.037165e+04
6.350000e+02 2.151451e+04
6.360000e+02 2.270178e+04
6.370000e+02 2.398299e+04
6.380000e+02 2.531458e+04
6.390000e+02 2.671527e+04
6.400000e+02 2.818838e+04
6.410000e+02 2.973739e+04
6.420000e+02 3.136593e+04
6.430000e+02 3.307780e+04
6.440000e+02 3.487693e+04
6.450000e+02 3.676742e+04
6.460000e+02 3.875367e+04
6.470000e+02 4.083998e+04
6.480000e+02 4.303135e+04
6.490000e+02 4.533238e+04
6.500000e+02 4.774770e+04
6.510000e+02 5.028371e+04
6.520000e+02 5.294521e+04
6.530000e+02 5.573836e+04
6.540000e+02 5.866897e+04
6.550000e+02 6.174332e+04
6.560000e+02 6.496792e+04
6.570000e+02 6.834904e+04
6.580000e+02 7.189537e+04
6.590000e+02 7.561266e+04
6.600000e+02 7.950903e+04
6.610000e+02 8.359274e+04
6.620000e+02 8.787184e+04
6.630000e+02 9.235502e+04
6.640000e+02 9.705141e+04
6.650000e+02 1.019701e+05
6.660000e+02 1.071213e+05
6.670000e+02 1.125147e+05
6.680000e+02 1.181607e+05
6.690000e+02 1.240709e+05
6.700000e+02 1.302563e+05
6.710000e+02 1.367291e+05
6.720000e+02 1.435459e+05
6.730000e+02 1.505833e+05
6.740000e+02 1.579926e+05
6.750000e+02 1.657412e+05
6.760000e+02 1.738434e+05
6.770000e+02 1.823140e+05
6.780000e+02 1.911685e+05
6.790000e+02 2.004230e+05
6.800000e+02 2.100940e+05
6.810000e+02 2.201990e+05
6.820000e+02 2.307548e+05
6.830000e+02 2.417821e+05
6.840000e+02 2.532974e+05
6.850000e+02 2.653231e+05
6.860000e+02 2.778799e+05
6.870000e+02 2.909885e+05
6.880000e+02 3.046732e+05
6.890000e+02 3.189523e+05
6.900000e+02 3.338553e+05
6.910000e+02 3.494056e+05
6.920000e+02 3.656279e+05
6.930000e+02 3.825457e+05
6.940000e+02 4.001940e+05
6.950000e+02 4.185979e+05
6.960000e+02 4.377872e+05
6.970000e+02 4.577892e+05
6.980000e+02 4.786453e+05
6.990000e+02 5.003801e+05
7.000000e+02 5.230304e+05
7.010000e+02 5.466315e+05
7.020000e+02 5.712202e+05
7.030000e+02 5.968333e+05
7.040000e+02 6.235122e+05
7.050000e+02 6.512964e+05
7.060000e+02 6.802281e+05
7.070000e+02 7.103509e+05
7.080000e+02 7.417096e+05
7.090000e+02 7.743496e+05
7.100000e+02 8.083191e+05
7.110000e+02 8.436712e+05
7.120000e+02 8.804462e+05
7.130000e+02 9.187147e+05
7.140000e+02 9.585232e+05
7.150000e+02 9.999284e+05
7.160000e+02 1.042989e+06
7.170000e+02 1.087765e+06
7.180000e+02 1.134317e+06
7.190000e+02 1.182721e+06
7.200000e+02 1.233031e+06
7.210000e+02 1.285320e+06
7.220000e+02 1.339661e+06
7.230000e+02 1.396125e+06
7.240000e+02 1.454790e+06
7.250000e+02 1.515734e+06
7.260000e+02 1.579038e+06
7.270000e+02 1.644785e+06
7.280000e+02 1.713063e+06
7.290000e+02 1.783959e+06
7.300000e+02 1.857582e+06
7.310000e+02 1.933959e+06
7.320000e+02 2.013279e+06
7.330000e+02 2.095592e+06
7.340000e+02 2.181020e+06
7.350000e+02 2.269663e+06
7.360000e+02 2.361630e+06
7.370000e+02 2.457021e+06
7.380000e+02 2.555985e+06
7.390000e+02 2.658628e+06
7.400000e+02 2.765048e+06
7.410000e+02 2.875427e+06
7.420000e+02 2.989865e+06
7.430000e+02 3.108510e+06
7.440000e+02 3.231492e+06
7.450000e+02 3.358962e+06
7.460000e+02 3.491066e+06
7.470000e+02 3.627962e+06
7.480000e+02 3.769801e+06
7.490000e+02 3.916731e+06
7.500000e+02 4.068960e+06
7.510000e+02 4.226639e+06
7.520000e+02 4.389948e+06
7.530000e+02 4.559067e+06
7.540000e+02 4.734187e+06
7.550000e+02 4.915499e+06
7.560000e+02 5.103207e+06
7.570000e+02 5.297481e+06
7.580000e+02 5.498626e+06
7.590000e+02 5.706760e+06
7.600000e+02 5.922156e+06
7.610000e+02 6.145027e+06
7.620000e+02 6.375583e+06
7.630000e+02 6.614126e+06
7.640000e+02 6.860876e+06
7.650000e+02 7.116091e+06
7.660000e+02 7.380036e+06
7.670000e+02 7.652979e+06
7.680000e+02 7.935194e+06
7.690000e+02 8.226988e+06
7.700000e+02 8.528634e+06
7.710000e+02 8.840441e+06
7.720000e+02 9.162721e+06
7.730000e+02 9.495792e+06
7.740000e+02 9.839982e+06
7.750000e+02 1.019563e+07
7.760000e+02 1.056290e+07
7.770000e+02 1.094268e+07
7.780000e+02 1.133481e+07
7.790000e+02 1.173983e+07
7.800000e+02 1.215813e+07
7.810000e+02 1.259011e+07
7.820000e+02 1.303617e+07
7.830000e+02 1.349667e+07
7.840000e+02 1.397216e+07
7.850000e+02 1.446292e+07
7.860000e+02 1.496956e+07
7.870000e+02 1.549234e+07
7.880000e+02 1.603199e+07
7.890000e+02 1.658886e+07
7.900000e+02 1.716347e+07
7.910000e+02 1.775630e+07
7.920000e+02 1.836790e+07
7.930000e+02 1.899879e+07
7.940000e+02 1.964953e+07
7.950000e+02 2.032067e+07
7.960000e+02 2.101281e+07
7.970000e+02 2.172652e+07
7.980000e+02 2.246243e+07
7.990000e+02 2.322114e+07
8.000000e+02 2.400331e+07
8.010000e+02 2.480957e+07
8.020000e+02 2.564063e+07
8.030000e+02 2.649713e+07
8.040000e+02 2.737981e+07
8.050000e+02 2.828936e+07
8.060000e+02 2.922655e+07
8.070000e+02 3.019214e+07
8.080000e+02 3.118670e+07
8.090000e+02 3.221137e+07
8.100000e+02 3.326687e+07
8.110000e+02 3.435390e+07
8.120000e+02 3.547338e+07
8.130000e+02 3.662618e+07
8.140000e+02 3.781318e+07
8.150000e+02 3.903530e+07
8.160000e+02 4.029352e+07
8.170000e+02 4.158873e+07
8.180000e+02 4.292194e+07
8.190000e+02 4.429416e+07
8.200000e+02 4.570638e+07
8.210000e+02 4.715971e+07
8.220000e+02 4.865518e+07
8.230000e+02 5.019352e+07
8.240000e+02 5.177662e+07
8.250000e+02 5.340524e+07
8.260000e+02 5.508038e+07
8.270000e+02 5.680360e+07
8.280000e+02 5.857595e+07
8.290000e+02 6.039870e+07
8.300000e+02 6.227216e+07
8.310000e+02 6.419955e+07
8.320000e+02 6.618127e+07
8.330000e+02 6.821872e+07
8.340000e+02 7.031326e+07
8.350000e+02 7.246506e+07
8.360000e+02 7.467945e+07
8.370000e+02 7.695411e+07
8.380000e+02 7.929174e+07
8.390000e+02 8.169410e+07
8.400000e+02 8.416262e+07
8.410000e+02 8.669899e+07
8.420000e+02 8.930482e+07
8.430000e+02 9.198200e+07
8.440000e+02 9.473209e+07
8.450000e+02 9.755692e+07
8.460000e+02 1.004583e+08
8.470000e+02 1.034382e+08
8.480000e+02 1.064983e+08
8.490000e+02 1.096407e+08
8.500000e+02 1.128673e+08
8.510000e+02 1.161799e+08
8.520000e+02 1.195811e+08
8.530000e+02 1.230727e+08
8.540000e+02 1.266570e+08
8.550000e+02 1.303359e+08
8.560000e+02 1.341118e+08
8.570000e+02 1.379869e+08
8.580000e+02 1.419637e+08
8.590000e+02 1.460444e+08
8.600000e+02 1.502316e+08
8.610000e+02 1.545276e+08
8.620000e+02 1.589350e+08
8.630000e+02 1.634564e+08
8.640000e+02 1.680944e+08
8.650000e+02 1.728511e+08
8.660000e+02 1.777304e+08
8.670000e+02 1.827345e+08
8.680000e+02 1.878663e+08
8.690000e+02 1.931265e+08
8.700000e+02 1.985223e+08
8.710000e+02 2.040545e+08
8.720000e+02 2.097264e+08
8.730000e+02 2.155409e+08
8.740000e+02 2.215014e+08
8.750000e+02 2.276111e+08
8.760000e+02 2.338732e+08
8.770000e+02 2.402911e+08
8.780000e+02 2.468687e+08
8.790000e+02 2.536088e+08
8.800000e+02 2.605155e+08
8.810000e+02 2.675922e+08
8.820000e+02 2.748427e+08
8.830000e+02 2.822708e+08
8.840000e+02 2.898803e+08
8.850000e+02 2.976752e+08
8.860000e+02 3.056595e+08
8.870000e+02 3.138372e+08
8.880000e+02 3.222125e+08
8.890000e+02 3.307897e+08
8.900000e+02 3.395731e+08
8.910000e+02 3.485670e+08
8.920000e+02 3.577895e+08
8.930000e+02 3.672045e+08
8.940000e+02 3.768573e+08
8.950000e+02 3.867391e+08
8.960000e+02 3.968545e+08
8.970000e+02 4.072086e+08
8.980000e+02 4.178063e+08
8.990000e+02 4.286527e+08
9.000000e+02 4.397530e+08
9.010000e+02 4.511121e+08
9.020000e+02 4.627342e+08
9.030000e+02 4.746279e+08
9.040000e+02 4.867978e+08
9.050000e+02 4.992474e+08
9.060000e+02 5.119787e+08
9.070000e+02 5.250090e+08
9.080000e+02 5.383364e+08
9.090000e+02 5.519691e+08
9.100000e+02 5.659126e+08
9.110000e+02 5.801736e+08
9.120000e+02 5.947605e+08
9.130000e+02 6.087258e+08
9.140000e+02 6.256908e+08
9.150000e+02 8.115720e+08
9.160000e+02 1.250267e+09
9.170000e+02 1.338709e+09
9.180000e+02 1.144025e+09
9.190000e+02 2.291466e+09
9.200000e+02 3.653694e+09
9.210000e+02 7.488073e+08
9.220000e+02 5.144967e+09
9.230000e+02 1.392519e+09
9.240000e+02 4.933156e+09
9.250000e+02 6.641508e+09
9.260000e+02 1.940044e+09
9.270000e+02 5.512298e+09
9.280000e+02 8.714521e+09
9.290000e+02 7.848232e+09
9.300000e+02 5.686693e+09
9.310000e+02 2.337522e+09
9.320000e+02 8.442820e+09
9.330000e+02 1.073974e+10
9.340000e+02 1.156831e+10
9.350000e+02 4.457093e+09
9.360000e+02 1.070430e+10
9.370000e+02 2.864710e+09
9.380000e+02 2.156340e+09
9.390000e+02 9.438526e+09
9.400000e+02 1.242281e+10
9.410000e+02 7.412818e+09
9.420000e+02 1.425068e+10
9.430000e+02 1.466111e+10
9.440000e+02 8.598865e+09
9.450000e+02 1.515408e+10
9.460000e+02 1.518265e+10
9.470000e+02 1.091097e+10
9.480000e+02 1.207890e+10
9.490000e+02 8.112542e+09
9.500000e+02 2.805917e+09
9.510000e+02 1.169899e+10
9.520000e+02 1.556723e+10
9.530000e+02 1.690934e+10
9.540000e+02 1.470654e+10
9.550000e+02 1.836584e+10
9.560000e+02 1.526445e+10
9.570000e+02 1.537868e+10
9.580000e+02 1.954252e+10
9.590000e+02 2.001749e+10
9.600000e+02 4.765934e+09
9.610000e+02 2.065820e+10
9.620000e+02 2.094131e+10
9.630000e+02 2.147604e+10
9.640000e+02 2.056026e+09
9.650000e+02 2.039036e+10
9.660000e+02 2.245176e+10
9.670000e+02 2.254045e+10
9.680000e+02 2.258765e+10
9.690000e+02 2.257706e+10
9.700000e+02 2.178209e+10
9.710000e+02 1.876828e+10
9.720000e+02 9.285138e+09
9.730000e+02 8.398403e+09
9.740000e+02 1.929464e+10
9.750000e+02 2.359440e+10
9.760000e+02 2.547730e+10
9.770000e+02 2.652677e+10
9.780000e+02 2.724264e+10
9.790000e+02 2.792912e+10
9.800000e+02 2.849621e+10
9.810000e+02 2.904054e+10
9.820000e+02 2.926643e+10
9.830000e+02 3.005987e+10
9.840000e+02 1.266371e+10
9.850000e+02 3.111405e+10
9.860000e+02 3.162834e+10
9.870000e+02 3.208799e+10
9.880000e+02 3.217821e+10
9.890000e+02 2.322703e+10
9.900000e+02 4.288962e+09
9.910000e+02 3.401745e+10
9.920000e+02 3.027458e+10
9.930000e+02 3.341717e+10
9.940000e+02 5.799252e+09
9.950000e+02 9.716240e+09
9.960000e+02 7.756960e+09
9.970000e+02 8.038863e+09
9.980000e+02 3.826861e+10
9.990000e+02 3.776039e+10
1.000000e+03 3.949839e+10
1.001000e+03 4.019590e+10
1.002000e+03 4.078795e+10
1.003000e+03 3.495897e+10
1.004000e+03 4.210002e+10
1.005000e+03 3.612996e+10
1.006000e+03 4.341358e+10
1.007000e+03 4.371785e+10
1.008000e+03 4.467662e+10
1.009000e+03 4.317637e+10
1.010000e+03 4.610979e+10
1.011000e+03 4.680469e+10
1.012000e+03 4.746340e+10
1.013000e+03 4.818344e+10
1.014000e+03 4.889984e+10
1.015000e+03 4.871723e+10
1.016000e+03 5.015581e+10
1.017000e+03 5.092580e+10
1.018000e+03 5.149209e+10
1.019000e+03 5.207989e+10
1.020000e+03 5.244882e+10
1.021000e+03 3.576358e+10
1.022000e+03 4.997913e+10
1.023000e+03 5.015234e+10
1.024000e+03 4.234668e+10
1.025000e+03 2.506662e+10
1.026000e+03 1.258623e+10
1.027000e+03 3.847251e+10
1.028000e+03 1.775760e+10
1.029000e+03 5.708795e+10
1.030000e+03 5.862262e+10
1.031000e+03 6.193217e+10
1.032000e+03 6.222760e+10
1.033000e+03 3.683789e+10
1.034000e+03 6.599809e+10
1.035000e+03 1.534875e+10
1.036000e+03 6.500980e+10
1.037000e+03 9.200132e+09
1.038000e+03 7.035340e+10
1.039000e+03 7.004603e+10
1.040000e+03 7.250489e+10
1.041000e+03 7.297967e+10
1.042000e+03 7.012139e+10
1.043000e+03 7.414251e+10
1.044000e+03 7.590912e+10
1.045000e+03 7.776454e+10
1.046000e+03 7.908888e+10
1.047000e+03 7.995390e+10
1.048000e+03 7.927450e+10
1.049000e+03 7.995739e+10
1.050000e+03 8.378373e+10
1.051000e+03 8.498937e+10
1.052000e+03 8.618905e+10
1.053000e+03 8.364983e+10
1.054000e+03 8.829674e+10
1.055000e+03 8.865224e+10
1.056000e+03 9.115536e+10
1.057000e+03 9.227253e+10
1.058000e+03 9.354061e+10
1.059000e+03 9.494557e+10
1.060000e+03 9.633215e+10
1.061000e+03 9.767843e+10
1.062000e+03 9.902572e+10
1.063000e+03 4.045174e+10
1.064000e+03 2.101730e+10
1.065000e+03 1.055786e+11
1.066000e+03 8.692660e+10
1.067000e+03 9.657761e+10
1.068000e+03 1.101267e+11
1.069000e+03 1.104879e+11
1.070000e+03 1.072587e+11
1.071000e+03 1.148058e+11
1.072000e+03 1.163097e+11
1.073000e+03 1.179334e+11
1.074000e+03 1.194727e+11
1.075000e+03 1.209385e+11
1.076000e+03 1.226713e+11
1.077000e+03 1.234814e+11
1.078000e+03 1.256819e+11
1.079000e+03 1.266167e+11
1.080000e+03 1.290094e+11
1.081000e+03 1.310802e+11
1.082000e+03 1.327890e+11
1.083000e+03 1.334090e+11
1.084000e+03 1.148063e+11
1.085000e+03 1.020103e+11
1.086000e+03 1.399680e+11
1.087000e+03 1.415935e+11
1.088000e+03 1.432070e+11
1.089000e+03 1.452579e+11
1.090000e+03 1.465772e+11
1.091000e+03 1.489783e+11
1.092000e+03 1.511648e+11
1.093000e+03 1.530072e+11
1.094000e+03 1.550920e+11
1.095000e+03 1.566666e+11
1.096000e+03 1.588459e+11
1.097000e+03 1.589068e+11
1.098000e+03 1.543718e+11
1.099000e+03 1.645311e+11
1.100000e+03 1.633195e+11
1.101000e+03 1.570158e+11
1.102000e+03 2.882302e+11
1.103000e+03 5.887573e+11
1.104000e+03 3.467204e+11
1.105000e+03 1.645685e+11
1.106000e+03 1.001743e+12
1.107000e+03 1.000487e+12
1.108000e+03 1.018645e+12
1.109000e+03 6.085894e+11
1.110000e+03 2.423201e+11
1.111000e+03 3.162461e+11
1.112000e+03 9.209168e+11
1.113000e+03 1.081851e+12
1.114000e+03 1.277610e+11
1.115000e+03 1.076668e+12
1.116000e+03 1.105369e+12
1.117000e+03 1.507850e+11
1.118000e+03 8.652263e+11
1.119000e+03 1.134795e+12
1.120000e+03 1.150277e+12
1.121000e+03 9.630657e+11
1.122000e+03 4.069930e+10
1.123000e+03 2.169570e+11
1.124000e+03 1.186342e+12
1.125000e+03 5.447986e+11
1.126000e+03 1.216823e+12
1.127000e+03 1.185910e+12
1.128000e+03 6.274620e+11
1.129000e+03 1.222437e+12
1.130000e+03 9.579350e+11
1.131000e+03 1.286554e+12
1.132000e+03 1.134123e+11
1.133000e+03 1.093725e+12
1.134000e+03 1.292612e+12
1.135000e+03 5.595333e+10
1.136000e+03 1.304811e+12
1.137000e+03 1.366062e+12
1.138000e+03 1.383851e+12
1.139000e+03 1.358734e+12
1.140000e+03 7.205906e+10
1.141000e+03 1.423824e+12
1.142000e+03 1.302478e+12
1.143000e+03 1.443828e+12
1.144000e+03 1.463972e+12
1.145000e+03 1.334355e+12
1.146000e+03 1.483555e+12
1.147000e+03 1.494667e+12
1.148000e+03 1.512164e+12
1.149000e+03 1.535217e+12
1.150000e+03 1.493462e+12
1.151000e+03 1.558015e+12
1.152000e+03 1.550616e+12
1.153000e+03 4.838335e+11
1.154000e+03 1.738034e+11
1.155000e+03 1.252159e+12
1.156000e+03 5.038857e+11
1.157000e+03 1.645973e+12
1.158000e+03 8.876753e+10
1.159000e+03 1.351471e+12
1.160000e+03 1.553327e+12
1.161000e+03 1.716691e+12
1.162000e+03 4.262486e+11
1.163000e+03 1.660654e+12
1.164000e+03 1.496838e+11
1.165000e+03 1.778679e+12
1.166000e+03 1.757942e+12
1.167000e+03 1.667541e+12
1.168000e+03 1.826821e+12
1.169000e+03 1.790831e+12
1.170000e+03 1.865016e+12
1.171000e+03 1.881552e+12
1.172000e+03 1.796896e+12
1.173000e+03 1.895655e+12
1.174000e+03 1.837443e+12
1.175000e+03 1.587273e+11
1.176000e+03 1.208725e+11
1.177000e+03 1.936001e+12
1.178000e+03 1.730768e+12
1.179000e+03 1.997074e+12
1.180000e+03 1.544750e+12
1.181000e+03 2.001251e+12
1.182000e+03 2.054407e+12
1.183000e+03 2.066933e+12
1.184000e+03 2.081844e+12
1.185000e+03 1.952263e+12
1.186000e+03 2.103348e+12
1.187000e+03 2.114388e+12
1.188000e+03 2.000987e+12
1.189000e+03 1.315951e+11
1.190000e+03 4.405629e+11
1.191000e+03 2.094095e+12
1.192000e+03 2.115653e+12
1.193000e+03 1.093350e+11
1.194000e+03 1.500054e+11
1.195000e+03 1.347738e+12
1.196000e+03 2.104867e+12
1.197000e+03 2.274887e+12
1.198000e+03 2.287363e+12
1.199000e+03 2.251021e+12
1.200000e+03 2.125301e+12
1.201000e+03 2.150448e+12
1.202000e+03 2.115629e+12
1.203000e+03 2.161095e+12
1.204000e+03 2.030547e+12
1.205000e+03 1.946717e+12
1.206000e+03 1.540643e+12
1.207000e+03 8.656842e+11
1.208000e+03 1.510931e+12
1.209000e+03 1.222209e+12
1.210000e+03 2.022567e+11
1.211000e+03 8.820386e+11
1.212000e+03 6.351151e+11
1.213000e+03 4.465318e+11
1.214000e+03 2.760848e+11
1.215000e+03 1.695721e+11
1.216000e+03 1.506602e+11
1.217000e+03 2.392979e+11
1.218000e+03 4.040481e+11
1.219000e+03 6.285054e+11
1.220000e+03 8.868675e+11
1.221000e+03 1.156763e+12
1.222000e+03 1.427700e+12
1.223000e+03 1.688330e+12
1.224000e+03 1.935006e+12
1.225000e+03 2.158761e+12
1.226000e+03 2.354791e+12
1.227000e+03 2.559002e+12
1.228000e+03 2.775422e+12
1.229000e+03 2.914737e+12
1.230000e+03 3.091283e+12
1.231000e+03 3.263073e+12
1.232000e+03 3.411361e+12
1.233000e+03 3.547555e+12
1.234000e+03 2.981168e+12
1.235000e+03 3.774807e+12
1.236000e+03 3.910891e+12
1.237000e+03 4.009075e+12
1.238000e+03 4.122578e+12
1.239000e+03 4.224750e+12
1.240000e+03 4.031410e+12
1.241000e+03 5.841504e+12
1.242000e+03 4.041869e+12
1.243000e+03 5.086413e+12
1.244000e+03 2.771062e+12
1.245000e+03 3.759622e+12
1.246000e+03 7.222686e+12
1.247000e+03 7.439617e+12
1.248000e+03 2.925910e+12
1.249000e+03 3.407543e+12
1.250000e+03 8.175809e+12
1.251000e+03 8.343758e+12
1.252000e+03 8.287912e+12
1.253000e+03 8.883044e+12
1.254000e+03 9.057469e+12
1.255000e+03 9.116048e+12
1.256000e+03 9.120438e+12
1.257000e+03 9.640557e+12
1.258000e+03 9.758148e+12
1.259000e+03 9.756458e+12
1.260000e+03 9.205758e+12
1.261000e+03 2.747793e+11
1.262000e+03 1.908206e+12
1.263000e+03 1.056653e+13
1.264000e+03 1.032141e+13
1.265000e+03 2.616611e+11
1.266000e+03 1.115052e+13
1.267000e+03 1.152270e+13
