# wavelength_A flux
5.000000e+02 6.104420e-34
5.010000e+02 7.792396e-34
5.020000e+02 9.937258e-34
5.030000e+02 1.266000e-33
5.040000e+02 1.611294e-33
5.050000e+02 2.049330e-33
5.060000e+02 2.603180e-33
5.070000e+02 3.303515e-33
5.080000e+02 4.188279e-33
5.090000e+02 5.304937e-33
5.100000e+02 6.711473e-33
5.110000e+02 8.486721e-33
5.120000e+02 1.071910e-32
5.130000e+02 1.352622e-32
5.140000e+02 1.705265e-32
5.150000e+02 2.147871e-32
5.160000e+02 2.702888e-32
5.170000e+02 3.398240e-32
5.180000e+02 4.268625e-32
5.190000e+02 5.357133e-32
5.200000e+02 6.717220e-32
5.210000e+02 8.415145e-32
5.220000e+02 1.053295e-31
5.230000e+02 1.317224e-31
5.240000e+02 1.645848e-31
5.250000e+02 2.054677e-31
5.260000e+02 2.562851e-31
5.270000e+02 3.193971e-31
5.280000e+02 3.977122e-31
5.290000e+02 4.948106e-31
5.300000e+02 6.150968e-31
5.310000e+02 7.639841e-31
5.320000e+02 9.481207e-31
5.330000e+02 1.175665e-30
5.340000e+02 1.456619e-30
5.350000e+02 1.803237e-30
5.360000e+02 2.230522e-30
5.370000e+02 2.756680e-30
5.380000e+02 3.404562e-30
5.390000e+02 4.201133e-30
5.400000e+02 5.179955e-30
5.410000e+02 6.381780e-30
5.420000e+02 7.856265e-30
5.430000e+02 9.663856e-30
5.440000e+02 1.187810e-29
5.450000e+02 1.458838e-29
5.460000e+02 1.790331e-29
5.470000e+02 2.195468e-29
5.480000e+02 2.690235e-29
5.490000e+02 3.294008e-29
5.500000e+02 4.030252e-29
5.510000e+02 4.927364e-29
5.520000e+02 6.019684e-29
5.530000e+02 7.348712e-29
5.540000e+02 8.964558e-29
5.550000e+02 1.092769e-28
5.560000e+02 1.331103e-28
5.570000e+02 1.620243e-28
5.580000e+02 1.970769e-28
5.590000e+02 2.395411e-28
5.600000e+02 2.909477e-28
5.610000e+02 3.531358e-28
5.620000e+02 4.283142e-28
5.630000e+02 5.191327e-28
5.640000e+02 6.287695e-28
5.650000e+02 7.610324e-28
5.660000e+02 9.204815e-28
5.670000e+02 1.112574e-27
5.680000e+02 1.343835e-27
5.690000e+02 1.622065e-27
5.700000e+02 1.956577e-27
5.710000e+02 2.358489e-27
5.720000e+02 2.841061e-27
5.730000e+02 3.420096e-27
5.740000e+02 4.114422e-27
5.750000e+02 4.946449e-27
5.760000e+02 5.942839e-27
5.770000e+02 7.135290e-27
5.780000e+02 8.561463e-27
5.790000e+02 1.026608e-26
5.800000e+02 1.230220e-26
5.810000e+02 1.473275e-26
5.820000e+02 1.763233e-26
5.830000e+02 2.108926e-26
5.840000e+02 2.520810e-26
5.850000e+02 3.011259e-26
5.860000e+02 3.594894e-26
5.870000e+02 4.288995e-26
5.880000e+02 5.113968e-26
5.890000e+02 6.093891e-26
5.900000e+02 7.257167e-26
5.910000e+02 8.637271e-26
5.920000e+02 1.027364e-25
5.930000e+02 1.221270e-25
5.940000e+02 1.450909e-25
5.950000e+02 1.722706e-25
5.960000e+02 2.044210e-25
5.970000e+02 2.424292e-25
5.980000e+02 2.873364e-25
5.990000e+02 3.403641e-25
6.000000e+02 4.029450e-25
6.010000e+02 4.767577e-25
6.020000e+02 5.637688e-25
6.030000e+02 6.662801e-25
6.040000e+02 7.869850e-25
6.050000e+02 9.290329e-25
6.060000e+02 1.096105e-24
6.070000e+02 1.292499e-24
6.080000e+02 1.523237e-24
6.090000e+02 1.794173e-24
6.100000e+02 2.112137e-24
6.110000e+02 2.485091e-24
6.120000e+02 2.922307e-24
6.130000e+02 3.434583e-24
6.140000e+02 4.034483e-24
6.150000e+02 4.736621e-24
6.160000e+02 5.557986e-24
6.170000e+02 6.518316e-24
6.180000e+02 7.640533e-24
6.190000e+02 8.951243e-24
6.200000e+02 1.048131e-23
6.210000e+02 1.226652e-23
6.220000e+02 1.434835e-23
6.230000e+02 1.677484e-23
6.240000e+02 1.960162e-23
6.250000e+02 2.289303e-23
6.260000e+02 2.672353e-23
6.270000e+02 3.117916e-23
6.280000e+02 3.635936e-23
6.290000e+02 4.237896e-23
6.300000e+02 4.937051e-23
6.310000e+02 5.748696e-23
6.320000e+02 6.690467e-23
6.330000e+02 7.782693e-23
6.340000e+02 9.048797e-23
6.350000e+02 1.051575e-22
6.360000e+02 1.221459e-22
6.370000e+02 1.418104e-22
6.380000e+02 1.645617e-22
6.390000e+02 1.908718e-22
6.400000e+02 2.212831e-22
6.410000e+02 2.564184e-22
6.420000e+02 2.969924e-22
6.430000e+02 3.438253e-22
6.440000e+02 3.978575e-22
6.450000e+02 4.601670e-22
6.460000e+02 5.319890e-22
6.470000e+02 6.147377e-22
6.480000e+02 7.100323e-22
6.490000e+02 8.197252e-22
6.500000e+02 9.459353e-22
6.510000e+02 1.091084e-21
6.520000e+02 1.257940e-21
6.530000e+02 1.449663e-21
6.540000e+02 1.669863e-21
6.550000e+02 1.922658e-21
6.560000e+02 2.212745e-21
6.570000e+02 2.545482e-21
6.580000e+02 2.926973e-21
6.590000e+02 3.364173e-21
6.600000e+02 3.865002e-21
6.610000e+02 4.438475e-21
6.620000e+02 5.094850e-21
6.630000e+02 5.845792e-21
6.640000e+02 6.704563e-21
6.650000e+02 7.686236e-21
6.660000e+02 8.807929e-21
6.670000e+02 1.008908e-20
6.680000e+02 1.155175e-20
6.690000e+02 1.322098e-20
6.700000e+02 1.512515e-20
6.710000e+02 1.729643e-20
6.720000e+02 1.977130e-20
6.730000e+02 2.259106e-20
6.740000e+02 2.580247e-20
6.750000e+02 2.945847e-20
6.760000e+02 3.361894e-20
6.770000e+02 3.835162e-20
6.780000e+02 4.373306e-20
6.790000e+02 4.984979e-20
6.800000e+02 5.679955e-20
6.810000e+02 6.469271e-20
6.820000e+02 7.365384e-20
6.830000e+02 8.382349e-20
6.840000e+02 9.536022e-20
6.850000e+02 1.084428e-19
6.860000e+02 1.232726e-19
6.870000e+02 1.400767e-19
6.880000e+02 1.591106e-19
6.890000e+02 1.806622e-19
6.900000e+02 2.050553e-19
6.910000e+02 2.326542e-19
6.920000e+02 2.638687e-19
6.930000e+02 2.991592e-19
6.940000e+02 3.390434e-19
6.950000e+02 3.841027e-19
6.960000e+02 4.349899e-19
6.970000e+02 4.924379e-19
6.980000e+02 5.572691e-19
6.990000e+02 6.304060e-19
7.000000e+02 7.128829e-19
7.010000e+02 8.058595e-19
7.020000e+02 9.106350e-19
7.030000e+02 1.028665e-18
7.040000e+02 1.161579e-18
7.050000e+02 1.311202e-18
7.060000e+02 1.479574e-18
7.070000e+02 1.668981e-18
7.080000e+02 1.881975e-18
7.090000e+02 2.121411e-18
7.100000e+02 2.390479e-18
7.110000e+02 2.692743e-18
7.120000e+02 3.032182e-18
7.130000e+02 3.413239e-18
7.140000e+02 3.840873e-18
7.150000e+02 4.320615e-18
7.160000e+02 4.858633e-18
7.170000e+02 5.461806e-18
7.180000e+02 6.137798e-18
7.190000e+02 6.895152e-18
7.200000e+02 7.743378e-18
7.210000e+02 8.693069e-18
7.220000e+02 9.756015e-18
7.230000e+02 1.094534e-17
7.240000e+02 1.227562e-17
7.250000e+02 1.376311e-17
7.260000e+02 1.542582e-17
7.270000e+02 1.728383e-17
7.280000e+02 1.935939e-17
7.290000e+02 2.167725e-17
7.300000e+02 2.426488e-17
7.310000e+02 2.715276e-17
7.320000e+02 3.037472e-17
7.330000e+02 3.396829e-17
7.340000e+02 3.797509e-17
7.350000e+02 4.244124e-17
7.360000e+02 4.741788e-17
7.370000e+02 5.296164e-17
7.380000e+02 5.913529e-17
7.390000e+02 6.600828e-17
7.400000e+02 7.365751e-17
7.410000e+02 8.216809e-17
7.420000e+02 9.163416e-17
7.430000e+02 1.021598e-16
7.440000e+02 1.138602e-16
7.450000e+02 1.268626e-16
7.460000e+02 1.413076e-16
7.470000e+02 1.573504e-16
7.480000e+02 1.751627e-16
7.490000e+02 1.949338e-16
7.500000e+02 2.168728e-16
7.510000e+02 2.412101e-16
7.520000e+02 2.682004e-16
7.530000e+02 2.981241e-16
7.540000e+02 3.312906e-16
7.550000e+02 3.680408e-16
7.560000e+02 4.087504e-16
7.570000e+02 4.538332e-16
7.580000e+02 5.037448e-16
7.590000e+02 5.589870e-16
7.600000e+02 6.201121e-16
7.610000e+02 6.877276e-16
7.620000e+02 7.625021e-16
7.630000e+02 8.451705e-16
7.640000e+02 9.365412e-16
7.650000e+02 1.037503e-15
7.660000e+02 1.149031e-15
7.670000e+02 1.272199e-15
7.680000e+02 1.408184e-15
7.690000e+02 1.558279e-15
7.700000e+02 1.723905e-15
7.710000e+02 1.906619e-15
7.720000e+02 2.108130e-15
7.730000e+02 2.330314e-15
7.740000e+02 2.575227e-15
7.750000e+02 2.845122e-15
7.760000e+02 3.142469e-15
7.770000e+02 3.469977e-15
7.780000e+02 3.830608e-15
7.790000e+02 4.227612e-15
7.800000e+02 4.664543e-15
7.810000e+02 5.145293e-15
7.820000e+02 5.674122e-15
7.830000e+02 6.255688e-15
7.840000e+02 6.895089e-15
7.850000e+02 7.597898e-15
7.860000e+02 8.370209e-15
7.870000e+02 9.218681e-15
7.880000e+02 1.015059e-14
7.890000e+02 1.117389e-14
7.900000e+02 1.229726e-14
7.910000e+02 1.353018e-14
7.920000e+02 1.488300e-14
7.930000e+02 1.636703e-14
7.940000e+02 1.799457e-14
7.950000e+02 1.977909e-14
7.960000e+02 2.173524e-14
7.970000e+02 2.387901e-14
7.980000e+02 2.622783e-14
7.990000e+02 2.880071e-14
8.000000e+02 3.161833e-14
8.010000e+02 3.470324e-14
8.020000e+02 3.808000e-14
8.030000e+02 4.177535e-14
8.040000e+02 4.581838e-14
8.050000e+02 5.024078e-14
8.060000e+02 5.507702e-14
8.070000e+02 6.036458e-14
8.080000e+02 6.614425e-14
8.090000e+02 7.246036e-14
8.100000e+02 7.936111e-14
8.110000e+02 8.689890e-14
8.120000e+02 9.513065e-14
8.130000e+02 1.041182e-13
8.140000e+02 1.139287e-13
8.150000e+02 1.246352e-13
8.160000e+02 1.363167e-13
8.170000e+02 1.490593e-13
8.180000e+02 1.629562e-13
8.190000e+02 1.781086e-13
8.200000e+02 1.946263e-13
8.210000e+02 2.126284e-13
8.220000e+02 2.322438e-13
8.230000e+02 2.536125e-13
8.240000e+02 2.768861e-13
8.250000e+02 3.022290e-13
8.260000e+02 3.298191e-13
8.270000e+02 3.598492e-13
8.280000e+02 3.925280e-13
8.290000e+02 4.280816e-13
8.300000e+02 4.667546e-13
8.310000e+02 5.088117e-13
8.320000e+02 5.545393e-13
8.330000e+02 6.042473e-13
8.340000e+02 6.582707e-13
8.350000e+02 7.169720e-13
8.360000e+02 7.807428e-13
8.370000e+02 8.500065e-13
8.380000e+02 9.252207e-13
8.390000e+02 1.006880e-12
8.400000e+02 1.095517e-12
8.410000e+02 1.191710e-12
8.420000e+02 1.296081e-12
8.430000e+02 1.409303e-12
8.440000e+02 1.532100e-12
8.450000e+02 1.665255e-12
8.460000e+02 1.809615e-12
8.470000e+02 1.966088e-12
8.480000e+02 2.135659e-12
8.490000e+02 2.319388e-12
8.500000e+02 2.518415e-12
8.510000e+02 2.733973e-12
8.520000e+02 2.967389e-12
8.530000e+02 3.220092e-12
8.540000e+02 3.493623e-12
8.550000e+02 3.789640e-12
8.560000e+02 4.109930e-12
8.570000e+02 4.456415e-12
8.580000e+02 4.831166e-12
8.590000e+02 5.236411e-12
8.600000e+02 5.674547e-12
8.610000e+02 6.148153e-12
8.620000e+02 6.660003e-12
8.630000e+02 7.213081e-12
8.640000e+02 7.810593e-12
8.650000e+02 8.455990e-12
8.660000e+02 9.152977e-12
8.670000e+02 9.905537e-12
8.680000e+02 1.071795e-11
8.690000e+02 1.159481e-11
8.700000e+02 1.254107e-11
8.710000e+02 1.356201e-11
8.720000e+02 1.466333e-11
8.730000e+02 1.585116e-11
8.740000e+02 1.713203e-11
8.750000e+02 1.851300e-11
8.760000e+02 2.000162e-11
8.770000e+02 2.160598e-11
8.780000e+02 2.333478e-11
8.790000e+02 2.519733e-11
8.800000e+02 2.720362e-11
8.810000e+02 2.936436e-11
8.820000e+02 3.169103e-11
8.830000e+02 3.419592e-11
8.840000e+02 3.689223e-11
8.850000e+02 3.979404e-11
8.860000e+02 4.291650e-11
8.870000e+02 4.627579e-11
8.880000e+02 4.988923e-11
8.890000e+02 5.377540e-11
8.900000e+02 5.795414e-11
8.910000e+02 6.244672e-11
8.920000e+02 6.727588e-11
8.930000e+02 7.246594e-11
8.940000e+02 7.804293e-11
8.950000e+02 8.403468e-11
8.960000e+02 9.047094e-11
8.970000e+02 9.738352e-11
8.980000e+02 1.048064e-10
8.990000e+02 1.127760e-10
9.000000e+02 1.213311e-10
9.010000e+02 1.305132e-10
9.020000e+02 1.403666e-10
9.030000e+02 1.509386e-10
9.040000e+02 1.622798e-10
9.050000e+02 1.744442e-10
9.060000e+02 1.874894e-10
9.070000e+02 2.014768e-10
9.080000e+02 2.164721e-10
9.090000e+02 2.325453e-10
9.100000e+02 2.497711e-10
9.110000e+02 2.682293e-10
9.120000e+02 2.880047e-10
9.130000e+02 3.091880e-10
9.140000e+02 3.340759e-10
9.150000e+02 8.560230e-08
9.160000e+02 6.360033e-07
9.170000e+02 3.760162e-08
9.180000e+02 1.111176e-07
9.190000e+02 1.919322e-06
9.200000e+02 5.936986e-06
9.210000e+02 5.423821e-10
9.220000e+02 4.757065e-06
9.230000e+02 2.528975e-08
9.240000e+02 7.088147e-08
9.250000e+02 9.149882e-07
9.260000e+02 1.624015e-07
9.270000e+02 6.159618e-08
9.280000e+02 4.021277e-05
9.290000e+02 3.842376e-05
9.300000e+02 7.192667e-06
9.310000e+02 5.070832e-08
9.320000e+02 2.940362e-05
9.330000e+02 8.637975e-06
9.340000e+02 1.916895e-06
9.350000e+02 5.565956e-08
9.360000e+02 2.178241e-07
9.370000e+02 1.496544e-08
9.380000e+02 3.456798e-08
9.390000e+02 6.561442e-07
9.400000e+02 5.962711e-05
9.410000e+02 2.808338e-06
9.420000e+02 1.332044e-04
9.430000e+02 1.160071e-06
9.440000e+02 1.505648e-04
9.450000e+02 1.447858e-04
9.460000e+02 2.756202e-05
9.470000e+02 2.012393e-08
9.480000e+02 3.980072e-05
9.490000e+02 3.182377e-06
9.500000e+02 4.093836e-08
9.510000e+02 1.125345e-05
9.520000e+02 3.932170e-05
9.530000e+02 2.146230e-07
9.540000e+02 2.211317e-08
9.550000e+02 2.888017e-06
9.560000e+02 2.096054e-04
9.570000e+02 1.090972e-06
9.580000e+02 9.209543e-09
9.590000e+02 1.774079e-04
9.600000e+02 1.103790e-07
9.610000e+02 4.392558e-05
9.620000e+02 1.303058e-05
9.630000e+02 1.475331e-06
9.640000e+02 2.293937e-07
9.650000e+02 7.118797e-08
9.660000e+02 3.156369e-06
9.670000e+02 4.420144e-07
9.680000e+02 2.916786e-07
9.690000e+02 2.210792e-05
9.700000e+02 2.650872e-05
9.710000e+02 6.496638e-07
9.720000e+02 1.843080e-07
9.730000e+02 5.796536e-07
9.740000e+02 1.497192e-05
9.750000e+02 6.507921e-06
9.760000e+02 2.265885e-04
9.770000e+02 1.556821e-04
9.780000e+02 5.950706e-05
9.790000e+02 7.774359e-04
9.800000e+02 8.170629e-04
9.810000e+02 3.644353e-05
9.820000e+02 4.915550e-06
9.830000e+02 8.450737e-04
9.840000e+02 1.767590e-05
9.850000e+02 1.383883e-05
9.860000e+02 2.095499e-05
9.870000e+02 9.810357e-04
9.880000e+02 2.268353e-07
9.890000e+02 2.386999e-04
9.900000e+02 3.562343e-04
9.910000e+02 4.850789e-06
9.920000e+02 6.596593e-08
9.930000e+02 1.471636e-03
9.940000e+02 9.008363e-08
9.950000e+02 5.214139e-05
9.960000e+02 1.029461e-06
9.970000e+02 1.862713e-05
9.980000e+02 7.962177e-04
9.990000e+02 8.173870e-06
1.000000e+03 2.554992e-03
1.001000e+03 2.220012e-03
1.002000e+03 2.389903e-03
1.003000e+03 8.690753e-06
1.004000e+03 3.674068e-07
1.005000e+03 3.874511e-05
1.006000e+03 2.204967e-03
1.007000e+03 2.991716e-03
1.008000e+03 1.431588e-03
1.009000e+03 1.233473e-05
1.010000e+03 1.444901e-03
1.011000e+03 1.907938e-03
1.012000e+03 1.865188e-03
1.013000e+03 1.765508e-03
1.014000e+03 2.334709e-07
1.015000e+03 7.025665e-07
1.016000e+03 4.342408e-05
1.017000e+03 2.386514e-07
1.018000e+03 1.294981e-05
1.019000e+03 6.330665e-07
1.020000e+03 1.948111e-03
1.021000e+03 2.341752e-05
1.022000e+03 3.709819e-05
1.023000e+03 1.814507e-06
1.024000e+03 1.134794e-04
1.025000e+03 3.575619e-07
1.026000e+03 5.332220e-07
1.027000e+03 4.204330e-05
1.028000e+03 3.264140e-06
1.029000e+03 4.853937e-07
1.030000e+03 1.941081e-04
1.031000e+03 4.704753e-04
1.032000e+03 4.834336e-03
1.033000e+03 3.996561e-05
1.034000e+03 6.212305e-04
1.035000e+03 1.905952e-06
1.036000e+03 8.444767e-07
1.037000e+03 7.512808e-03
1.038000e+03 2.755803e-02
1.039000e+03 8.791244e-03
1.040000e+03 8.327140e-03
1.041000e+03 3.371892e-02
1.042000e+03 2.651472e-02
1.043000e+03 2.062220e-02
1.044000e+03 5.237069e-02
1.045000e+03 2.185489e-06
1.046000e+03 7.933592e-03
1.047000e+03 2.016284e-03
1.048000e+03 2.303533e-05
1.049000e+03 2.054868e-03
1.050000e+03 3.832150e-04
1.051000e+03 1.766421e-04
1.052000e+03 3.550411e-02
1.053000e+03 5.670308e-02
1.054000e+03 1.899898e-06
1.055000e+03 5.971942e-02
1.056000e+03 6.737042e-02
1.057000e+03 6.728405e-03
1.058000e+03 1.850409e-04
1.059000e+03 1.126528e-04
1.060000e+03 3.318861e-05
1.061000e+03 1.539073e-02
1.062000e+03 9.173897e-05
1.063000e+03 1.695544e-03
1.064000e+03 4.604459e-06
1.065000e+03 3.326684e-06
1.066000e+03 1.965911e-02
1.067000e+03 1.261791e-04
1.068000e+03 1.268265e-01
1.069000e+03 2.644167e-05
1.070000e+03 2.453953e-03
1.071000e+03 6.964027e-02
1.072000e+03 1.355866e-01
1.073000e+03 6.563962e-06
1.074000e+03 7.560262e-03
1.075000e+03 3.776595e-03
1.076000e+03 1.288107e-01
1.077000e+03 7.704087e-05
1.078000e+03 2.556145e-04
1.079000e+03 1.539640e-03
1.080000e+03 7.768774e-03
1.081000e+03 5.939353e-02
1.082000e+03 2.938329e-02
1.083000e+03 1.323384e-02
1.084000e+03 2.498116e-01
1.085000e+03 2.097294e-03
1.086000e+03 2.320754e-01
1.087000e+03 3.308654e-04
1.088000e+03 2.908093e-01
1.089000e+03 3.021975e-01
1.090000e+03 1.602949e-03
1.091000e+03 2.626956e-03
1.092000e+03 3.053347e-01
1.093000e+03 3.363406e-01
1.094000e+03 3.303844e-02
1.095000e+03 3.833743e-01
1.096000e+03 1.172929e-02
1.097000e+03 1.966572e-01
1.098000e+03 3.848486e-01
1.099000e+03 6.709158e-03
1.100000e+03 7.492583e-05
1.101000e+03 2.397858e-04
1.102000e+03 4.382849e-03
1.103000e+03 4.629311e-01
1.104000e+03 5.057740e-01
1.105000e+03 5.082371e-01
1.106000e+03 2.984795e-02
1.107000e+03 1.505315e-04
1.108000e+03 2.575062e-01
1.109000e+03 2.226084e-03
1.110000e+03 6.176963e-01
1.111000e+03 4.816933e-01
1.112000e+03 1.138437e-01
1.113000e+03 4.566049e-01
1.114000e+03 5.338761e-02
1.115000e+03 2.582734e-03
1.116000e+03 8.627579e-04
1.117000e+03 5.991144e-01
1.118000e+03 3.870860e-03
1.119000e+03 1.265510e-01
1.120000e+03 1.362264e-03
1.121000e+03 5.160793e-01
1.122000e+03 9.536488e-01
1.123000e+03 9.103392e-01
1.124000e+03 1.067464e+00
1.125000e+03 6.383729e-01
1.126000e+03 1.300105e+00
1.127000e+03 7.317018e-01
1.128000e+03 7.791690e-01
1.129000e+03 3.378100e-01
1.130000e+03 9.561765e-01
1.131000e+03 8.412638e-01
1.132000e+03 2.452597e-03
1.133000e+03 2.572942e-02
1.134000e+03 4.133230e-01
1.135000e+03 5.982827e-01
1.136000e+03 5.596668e-02
1.137000e+03 7.114182e-01
1.138000e+03 3.063922e-01
1.139000e+03 9.036870e-01
1.140000e+03 8.624219e-01
1.141000e+03 8.694605e-01
1.142000e+03 9.048185e-01
1.143000e+03 3.689060e-01
1.144000e+03 8.911688e-01
1.145000e+03 1.298666e-03
1.146000e+03 9.507734e-01
1.147000e+03 9.325432e-01
1.148000e+03 1.230508e-02
1.149000e+03 7.872174e-01
1.150000e+03 6.839866e-01
1.151000e+03 9.267942e-01
1.152000e+03 8.107571e-01
1.153000e+03 8.893710e-01
1.154000e+03 9.065721e-01
1.155000e+03 7.262107e-01
1.156000e+03 7.038249e-01
1.157000e+03 8.329603e-01
1.158000e+03 3.833509e-01
1.159000e+03 8.580541e-01
1.160000e+03 4.618921e-01
1.161000e+03 7.910770e-01
1.162000e+03 5.475289e-02
1.163000e+03 2.041834e-01
1.164000e+03 2.091318e-03
1.165000e+03 4.530036e-01
1.166000e+03 2.470719e-01
1.167000e+03 1.718205e-01
1.168000e+03 9.000972e-01
1.169000e+03 9.215145e-01
1.170000e+03 1.634633e-01
1.171000e+03 4.425084e-01
1.172000e+03 3.124149e-01
1.173000e+03 3.146775e-01
1.174000e+03 8.481413e-03
1.175000e+03 1.634985e-03
1.176000e+03 6.386638e-04
1.177000e+03 1.150952e+00
1.178000e+03 1.094756e+00
1.179000e+03 1.033173e+00
1.180000e+03 8.069908e-01
1.181000e+03 9.543524e-01
1.182000e+03 9.180044e-01
1.183000e+03 7.512378e-01
1.184000e+03 6.906105e-01
1.185000e+03 7.179306e-01
1.186000e+03 4.623210e-02
1.187000e+03 7.578931e-01
1.188000e+03 5.602633e-01
1.189000e+03 7.488444e-01
1.190000e+03 7.282620e-01
1.191000e+03 6.692702e-01
1.192000e+03 6.239302e-01
1.193000e+03 5.922418e-01
1.194000e+03 5.983036e-01
1.195000e+03 5.709138e-01
1.196000e+03 6.364573e+00
1.197000e+03 6.598545e+00
1.198000e+03 1.796699e-01
1.199000e+03 5.836974e+00
1.200000e+03 6.672375e-01
1.201000e+03 4.817135e+00
1.202000e+03 3.019875e+00
1.203000e+03 3.680236e+00
1.204000e+03 6.318064e-01
1.205000e+03 2.545909e+00
1.206000e+03 2.062275e+00
1.207000e+03 3.035969e-01
1.208000e+03 1.026880e+00
1.209000e+03 7.730899e-01
1.210000e+03 3.124118e-03
1.211000e+03 2.842302e-01
1.212000e+03 1.370376e-01
1.213000e+03 5.918545e-02
1.214000e+03 1.682952e-02
1.215000e+03 2.952619e-03
1.216000e+03 2.591067e-03
1.217000e+03 1.044665e-02
1.218000e+03 4.813433e-02
1.219000e+03 1.349168e-01
1.220000e+03 2.260671e-01
1.221000e+03 5.797060e-01
1.222000e+03 9.791952e-01
1.223000e+03 1.398183e+00
1.224000e+03 2.096934e+00
1.225000e+03 2.676399e-01
1.226000e+03 4.269190e+00
1.227000e+03 5.595039e+00
1.228000e+03 2.422534e+00
1.229000e+03 8.066830e+00
1.230000e+03 7.255186e+00
1.231000e+03 1.435651e+00
1.232000e+03 1.306116e+01
1.233000e+03 1.482471e+01
1.234000e+03 1.315678e+01
1.235000e+03 1.758359e+01
1.236000e+03 5.083423e+00
1.237000e+03 2.107602e+01
1.238000e+03 2.238604e+01
1.239000e+03 1.925679e+01
1.240000e+03 6.077894e+00
1.241000e+03 2.079545e+01
1.242000e+03 2.741525e+01
1.243000e+03 2.992671e+01
1.244000e+03 3.156379e+01
1.245000e+03 3.257419e+01
1.246000e+03 3.077096e+01
1.247000e+03 3.384940e+01
1.248000e+03 2.873984e+01
1.249000e+03 3.856408e+01
1.250000e+03 3.059210e+01
1.251000e+03 4.118968e+01
1.252000e+03 3.975050e+01
1.253000e+03 4.336710e+01
1.254000e+03 4.237603e+01
1.255000e+03 1.451433e+01
1.256000e+03 3.800105e+01
1.257000e+03 3.091708e+01
1.258000e+03 3.647618e+01
1.259000e+03 4.135707e+01
1.260000e+03 4.982907e+01
1.261000e+03 1.493469e+00
1.262000e+03 5.192955e+01
1.263000e+03 4.999762e+01
1.264000e+03 4.229921e+01
1.265000e+03 1.568444e+01
1.266000e+03 5.985089e+01
1.267000e+03 5.633698e+01
