# wavelength_A flux
5.000000e+02 1.698363e-06
5.010000e+02 1.910593e-06
5.020000e+02 2.148293e-06
5.030000e+02 2.414364e-06
5.040000e+02 2.712114e-06
5.050000e+02 3.115494e-06
5.060000e+02 3.495883e-06
5.070000e+02 3.920831e-06
5.080000e+02 4.395407e-06
5.090000e+02 4.925304e-06
5.100000e+02 5.516321e-06
5.110000e+02 6.175419e-06
5.120000e+02 6.910087e-06
5.130000e+02 7.728632e-06
5.140000e+02 8.640222e-06
5.150000e+02 9.654893e-06
5.160000e+02 1.078409e-05
5.170000e+02 1.203946e-05
5.180000e+02 1.343596e-05
5.190000e+02 1.498719e-05
5.200000e+02 1.671035e-05
5.210000e+02 1.862349e-05
5.220000e+02 2.074444e-05
5.230000e+02 2.310183e-05
5.240000e+02 2.571351e-05
5.250000e+02 2.860868e-05
5.260000e+02 3.181607e-05
5.270000e+02 3.536816e-05
5.280000e+02 3.930042e-05
5.290000e+02 4.364256e-05
5.300000e+02 4.846442e-05
5.310000e+02 5.378606e-05
5.320000e+02 5.966788e-05
5.330000e+02 6.616581e-05
5.340000e+02 7.334176e-05
5.350000e+02 8.126327e-05
5.360000e+02 9.000392e-05
5.370000e+02 9.845610e-05
5.380000e+02 1.102760e-04
5.390000e+02 1.219950e-04
5.400000e+02 1.349066e-04
5.410000e+02 1.491162e-04
5.420000e+02 1.647781e-04
5.430000e+02 1.820065e-04
5.440000e+02 2.009563e-04
5.450000e+02 2.217970e-04
5.460000e+02 2.446699e-04
5.470000e+02 2.698814e-04
5.480000e+02 2.975341e-04
5.490000e+02 3.279005e-04
5.500000e+02 3.612314e-04
5.510000e+02 3.978026e-04
5.520000e+02 4.379189e-04
5.530000e+02 4.819057e-04
5.540000e+02 5.301195e-04
5.550000e+02 5.829476e-04
5.560000e+02 6.408116e-04
5.570000e+02 7.041690e-04
5.580000e+02 7.735174e-04
5.590000e+02 8.493972e-04
5.600000e+02 9.323946e-04
5.610000e+02 1.023147e-03
5.620000e+02 1.122344e-03
5.630000e+02 1.230723e-03
5.640000e+02 1.349121e-03
5.650000e+02 1.478404e-03
5.660000e+02 1.619532e-03
5.670000e+02 1.773532e-03
5.680000e+02 1.941529e-03
5.690000e+02 2.124723e-03
5.700000e+02 2.324438e-03
5.710000e+02 2.542097e-03
5.720000e+02 2.779221e-03
5.730000e+02 3.037476e-03
5.740000e+02 3.318653e-03
5.750000e+02 3.624743e-03
5.760000e+02 3.957264e-03
5.770000e+02 4.319943e-03
5.780000e+02 4.713802e-03
5.790000e+02 5.141947e-03
5.800000e+02 5.607217e-03
5.810000e+02 6.112674e-03
5.820000e+02 6.661543e-03
5.830000e+02 7.257465e-03
5.840000e+02 7.902243e-03
5.850000e+02 8.605829e-03
5.860000e+02 9.367759e-03
5.870000e+02 1.019349e-02
5.880000e+02 1.108866e-02
5.890000e+02 1.205861e-02
5.900000e+02 1.310990e-02
5.910000e+02 1.424838e-02
5.920000e+02 1.548119e-02
5.930000e+02 1.681572e-02
5.940000e+02 1.825995e-02
5.950000e+02 1.982170e-02
5.960000e+02 2.151246e-02
5.970000e+02 2.333983e-02
5.980000e+02 2.531519e-02
5.990000e+02 2.744992e-02
6.000000e+02 2.975590e-02
6.010000e+02 3.224394e-02
6.020000e+02 3.493659e-02
6.030000e+02 3.784006e-02
6.040000e+02 4.097331e-02
6.050000e+02 4.435397e-02
6.060000e+02 4.800026e-02
6.070000e+02 5.193235e-02
6.080000e+02 5.617115e-02
6.090000e+02 6.073948e-02
6.100000e+02 6.566160e-02
6.110000e+02 7.096373e-02
6.120000e+02 7.667349e-02
6.130000e+02 8.282068e-02
6.140000e+02 8.943706e-02
6.150000e+02 9.655673e-02
6.160000e+02 1.042146e-01
6.170000e+02 1.124520e-01
6.180000e+02 1.213091e-01
6.190000e+02 1.308301e-01
6.200000e+02 1.410622e-01
6.210000e+02 1.520558e-01
6.220000e+02 1.638646e-01
6.230000e+02 1.765459e-01
6.240000e+02 1.901608e-01
6.250000e+02 2.047744e-01
6.260000e+02 2.204546e-01
6.270000e+02 2.372785e-01
6.280000e+02 2.553234e-01
6.290000e+02 2.746732e-01
6.300000e+02 2.954174e-01
6.310000e+02 3.176475e-01
6.320000e+02 3.414712e-01
6.330000e+02 3.669938e-01
6.340000e+02 3.943301e-01
6.350000e+02 4.236014e-01
6.360000e+02 4.543087e-01
6.370000e+02 4.884748e-01
6.380000e+02 5.243633e-01
6.390000e+02 5.627570e-01
6.400000e+02 6.038214e-01
6.410000e+02 6.477322e-01
6.420000e+02 6.946763e-01
6.430000e+02 7.448521e-01
6.440000e+02 7.984695e-01
6.450000e+02 8.557516e-01
6.460000e+02 9.169371e-01
6.470000e+02 9.822742e-01
6.480000e+02 1.052020e+00
6.490000e+02 1.126481e+00
6.500000e+02 1.205944e+00
6.510000e+02 1.290728e+00
6.520000e+02 1.381169e+00
6.530000e+02 1.477625e+00
6.540000e+02 1.580472e+00
6.550000e+02 1.690111e+00
6.560000e+02 1.806965e+00
6.570000e+02 1.931450e+00
6.580000e+02 2.064144e+00
6.590000e+02 2.205446e+00
6.600000e+02 2.355915e+00
6.610000e+02 2.516133e+00
6.620000e+02 2.686657e+00
6.630000e+02 2.868158e+00
6.640000e+02 3.061287e+00
6.650000e+02 3.266719e+00
6.660000e+02 3.485253e+00
6.670000e+02 3.717635e+00
6.680000e+02 3.964702e+00
6.690000e+02 4.227330e+00
6.700000e+02 4.506443e+00
6.710000e+02 4.803017e+00
6.720000e+02 5.117948e+00
6.730000e+02 5.452731e+00
6.740000e+02 5.808105e+00
6.750000e+02 6.185416e+00
6.760000e+02 6.585943e+00
6.770000e+02 7.011031e+00
6.780000e+02 7.462101e+00
6.790000e+02 7.940649e+00
6.800000e+02 8.448254e+00
6.810000e+02 8.986578e+00
6.820000e+02 9.557372e+00
6.830000e+02 1.016248e+01
6.840000e+02 1.080385e+01
6.850000e+02 1.148350e+01
6.860000e+02 1.220367e+01
6.870000e+02 1.296634e+01
6.880000e+02 1.377442e+01
6.890000e+02 1.463003e+01
6.900000e+02 1.553591e+01
6.910000e+02 1.649487e+01
6.920000e+02 1.750980e+01
6.930000e+02 1.858370e+01
6.940000e+02 1.971997e+01
6.950000e+02 2.092194e+01
6.960000e+02 2.219317e+01
6.970000e+02 2.353711e+01
6.980000e+02 2.495865e+01
6.990000e+02 2.646098e+01
7.000000e+02 2.804878e+01
7.010000e+02 2.972663e+01
7.020000e+02 3.149930e+01
7.030000e+02 3.337187e+01
7.040000e+02 3.534960e+01
7.050000e+02 3.743807e+01
7.060000e+02 3.964306e+01
7.070000e+02 4.197077e+01
7.080000e+02 4.442753e+01
7.090000e+02 4.701991e+01
7.100000e+02 4.975553e+01
7.110000e+02 5.264121e+01
7.120000e+02 5.568490e+01
7.130000e+02 5.889472e+01
7.140000e+02 6.227919e+01
7.150000e+02 6.584723e+01
7.160000e+02 6.960822e+01
7.170000e+02 7.357165e+01
7.180000e+02 7.774712e+01
7.190000e+02 8.214851e+01
7.200000e+02 8.678384e+01
7.210000e+02 9.166592e+01
7.220000e+02 9.680699e+01
7.230000e+02 1.022201e+02
7.240000e+02 1.079187e+02
7.250000e+02 1.139168e+02
7.260000e+02 1.202292e+02
7.270000e+02 1.268716e+02
7.280000e+02 1.338598e+02
7.290000e+02 1.412102e+02
7.300000e+02 1.489417e+02
7.310000e+02 1.570723e+02
7.320000e+02 1.656211e+02
7.330000e+02 1.746083e+02
7.340000e+02 1.840551e+02
7.350000e+02 1.939834e+02
7.360000e+02 2.044160e+02
7.370000e+02 2.153775e+02
7.380000e+02 2.268925e+02
7.390000e+02 2.389849e+02
7.400000e+02 2.516859e+02
7.410000e+02 2.650243e+02
7.420000e+02 2.790262e+02
7.430000e+02 2.937252e+02
7.440000e+02 3.091537e+02
7.450000e+02 3.253450e+02
7.460000e+02 3.423345e+02
7.470000e+02 3.601589e+02
7.480000e+02 3.788566e+02
7.490000e+02 3.984678e+02
7.500000e+02 4.190340e+02
7.510000e+02 4.405989e+02
7.520000e+02 4.632077e+02
7.530000e+02 4.869078e+02
7.540000e+02 5.117484e+02
7.550000e+02 5.377805e+02
7.560000e+02 5.650583e+02
7.570000e+02 5.936232e+02
7.580000e+02 6.235741e+02
7.590000e+02 6.549280e+02
7.600000e+02 6.877692e+02
7.610000e+02 7.221563e+02
7.620000e+02 7.581591e+02
7.630000e+02 7.958480e+02
7.640000e+02 8.352974e+02
7.650000e+02 8.765836e+02
7.660000e+02 9.197820e+02
7.670000e+02 9.649858e+02
7.680000e+02 1.012271e+03
7.690000e+02 1.061743e+03
7.700000e+02 1.113481e+03
7.710000e+02 1.167586e+03
7.720000e+02 1.224159e+03
7.730000e+02 1.283306e+03
7.740000e+02 1.345135e+03
7.750000e+02 1.409760e+03
7.760000e+02 1.477158e+03
7.770000e+02 1.547877e+03
7.780000e+02 1.621618e+03
7.790000e+02 1.698654e+03
7.800000e+02 1.779125e+03
7.810000e+02 1.863172e+03
7.820000e+02 1.950943e+03
7.830000e+02 2.042591e+03
7.840000e+02 2.138281e+03
7.850000e+02 2.238173e+03
7.860000e+02 2.342412e+03
7.870000e+02 2.451225e+03
7.880000e+02 2.564785e+03
7.890000e+02 2.683277e+03
7.900000e+02 2.806895e+03
7.910000e+02 2.935856e+03
7.920000e+02 3.070370e+03
7.930000e+02 3.210659e+03
7.940000e+02 3.356954e+03
7.950000e+02 3.509494e+03
7.960000e+02 3.668528e+03
7.970000e+02 3.834313e+03
7.980000e+02 4.007115e+03
7.990000e+02 4.187209e+03
8.000000e+02 4.374885e+03
8.010000e+02 4.570426e+03
8.020000e+02 4.774171e+03
8.030000e+02 4.986408e+03
8.040000e+02 5.207479e+03
8.050000e+02 5.437722e+03
8.060000e+02 5.677493e+03
8.070000e+02 5.927159e+03
8.080000e+02 6.187054e+03
8.090000e+02 6.457658e+03
8.100000e+02 6.739333e+03
8.110000e+02 7.032502e+03
8.120000e+02 7.337601e+03
8.130000e+02 7.655080e+03
8.140000e+02 7.985404e+03
8.150000e+02 8.329043e+03
8.160000e+02 8.686538e+03
8.170000e+02 9.058361e+03
8.180000e+02 9.445068e+03
8.190000e+02 9.847204e+03
8.200000e+02 1.026533e+04
8.210000e+02 1.070006e+04
8.220000e+02 1.115200e+04
8.230000e+02 1.162176e+04
8.240000e+02 1.211003e+04
8.250000e+02 1.261745e+04
8.260000e+02 1.314473e+04
8.270000e+02 1.369259e+04
8.280000e+02 1.426178e+04
8.290000e+02 1.485270e+04
8.300000e+02 1.546687e+04
8.310000e+02 1.610474e+04
8.320000e+02 1.676718e+04
8.330000e+02 1.745504e+04
8.340000e+02 1.816925e+04
8.350000e+02 1.890912e+04
8.360000e+02 1.968036e+04
8.370000e+02 2.047940e+04
8.380000e+02 2.130843e+04
8.390000e+02 2.216915e+04
8.400000e+02 2.306211e+04
8.410000e+02 2.398861e+04
8.420000e+02 2.494937e+04
8.430000e+02 2.594696e+04
8.440000e+02 2.698125e+04
8.450000e+02 2.805399e+04
8.460000e+02 2.916648e+04
8.470000e+02 3.032010e+04
8.480000e+02 3.151614e+04
8.490000e+02 3.275626e+04
8.500000e+02 3.404187e+04
8.510000e+02 3.537448e+04
8.520000e+02 3.675564e+04
8.530000e+02 3.818714e+04
8.540000e+02 3.967073e+04
8.550000e+02 4.120781e+04
8.560000e+02 4.280036e+04
8.570000e+02 4.445021e+04
8.580000e+02 4.615928e+04
8.590000e+02 4.792955e+04
8.600000e+02 4.976302e+04
8.610000e+02 5.166178e+04
8.620000e+02 5.362797e+04
8.630000e+02 5.566373e+04
8.640000e+02 5.777156e+04
8.650000e+02 5.995344e+04
8.660000e+02 6.221229e+04
8.670000e+02 6.455016e+04
8.680000e+02 6.696890e+04
8.690000e+02 6.947283e+04
8.700000e+02 7.206367e+04
8.710000e+02 7.474469e+04
8.720000e+02 7.751828e+04
8.730000e+02 8.038758e+04
8.740000e+02 8.335560e+04
8.750000e+02 8.642549e+04
8.760000e+02 8.960047e+04
8.770000e+02 9.288359e+04
8.780000e+02 9.627905e+04
8.790000e+02 9.978956e+04
8.800000e+02 1.034190e+05
8.810000e+02 1.071711e+05
8.820000e+02 1.110496e+05
8.830000e+02 1.150585e+05
8.840000e+02 1.192017e+05
8.850000e+02 1.234836e+05
8.860000e+02 1.279083e+05
8.870000e+02 1.324801e+05
8.880000e+02 1.372037e+05
8.890000e+02 1.420836e+05
8.900000e+02 1.471246e+05
8.910000e+02 1.523316e+05
8.920000e+02 1.575015e+05
8.930000e+02 1.632638e+05
8.940000e+02 1.689994e+05
8.950000e+02 1.749218e+05
8.960000e+02 1.810371e+05
8.970000e+02 1.873505e+05
8.980000e+02 1.938680e+05
8.990000e+02 2.005958e+05
9.000000e+02 2.075401e+05
9.010000e+02 2.147073e+05
9.020000e+02 2.221039e+05
9.030000e+02 2.297367e+05
9.040000e+02 2.376065e+05
9.050000e+02 2.457350e+05
9.060000e+02 2.541190e+05
9.070000e+02 2.627628e+05
9.080000e+02 2.716889e+05
9.090000e+02 2.808908e+05
9.100000e+02 2.903813e+05
9.110000e+02 3.001699e+05
9.120000e+02 3.102682e+05
9.130000e+02 3.161159e+05
9.140000e+02 3.355557e+05
9.150000e+02 1.066869e+06
9.160000e+02 4.097581e+06
9.170000e+02 4.366686e+06
9.180000e+02 3.858874e+06
9.190000e+02 5.416640e+06
9.200000e+02 5.801340e+06
9.210000e+02 4.003732e+05
9.220000e+02 6.173738e+06
9.230000e+02 4.761940e+06
9.240000e+02 5.688015e+06
9.250000e+02 6.601486e+06
9.260000e+02 5.986165e+06
9.270000e+02 7.011262e+06
9.280000e+02 7.254478e+06
9.290000e+02 6.440616e+06
9.300000e+02 7.486735e+06
9.310000e+02 6.965451e+06
9.320000e+02 8.024900e+06
9.330000e+02 8.220376e+06
9.340000e+02 8.454961e+06
9.350000e+02 2.518250e+06
9.360000e+02 8.853832e+06
9.370000e+02 1.748264e+06
9.380000e+02 4.147642e+06
9.390000e+02 9.558412e+06
9.400000e+02 9.825125e+06
9.410000e+02 4.749501e+06
9.420000e+02 1.033409e+07
9.430000e+02 1.059180e+07
9.440000e+02 6.841542e+06
9.450000e+02 1.112423e+07
9.460000e+02 1.139776e+07
9.470000e+02 8.024590e+06
9.480000e+02 1.035122e+07
9.490000e+02 1.204197e+07
9.500000e+02 2.384088e+06
9.510000e+02 1.233355e+07
9.520000e+02 1.318882e+07
9.530000e+02 1.332113e+07
9.540000e+02 1.138808e+07
9.550000e+02 1.419737e+07
9.560000e+02 1.184111e+07
9.570000e+02 1.121573e+07
9.580000e+02 1.499018e+07
9.590000e+02 1.570070e+07
9.600000e+02 3.365837e+06
9.610000e+02 1.643430e+07
9.620000e+02 1.684241e+07
9.630000e+02 1.728304e+07
9.640000e+02 1.647896e+06
9.650000e+02 1.646616e+07
9.660000e+02 1.854644e+07
9.670000e+02 1.882845e+07
9.680000e+02 1.919906e+07
9.690000e+02 1.975824e+07
9.700000e+02 2.028807e+07
9.710000e+02 2.053959e+07
9.720000e+02 1.904045e+07
9.730000e+02 1.888219e+07
9.740000e+02 2.196705e+07
9.750000e+02 2.279329e+07
9.760000e+02 2.341014e+07
9.770000e+02 2.397816e+07
9.780000e+02 2.448145e+07
9.790000e+02 2.514200e+07
9.800000e+02 2.572342e+07
9.810000e+02 2.632065e+07
9.820000e+02 2.675964e+07
9.830000e+02 2.754607e+07
9.840000e+02 1.095098e+07
9.850000e+02 2.882165e+07
9.860000e+02 2.946994e+07
9.870000e+02 3.016324e+07
9.880000e+02 3.053415e+07
9.890000e+02 2.396562e+07
9.900000e+02 4.107027e+06
9.910000e+02 3.259523e+07
9.920000e+02 2.882587e+07
9.930000e+02 3.236883e+07
9.940000e+02 5.510314e+06
9.950000e+02 9.312072e+06
9.960000e+02 1.221251e+07
9.970000e+02 7.887854e+06
9.980000e+02 3.847633e+07
9.990000e+02 3.843580e+07
1.000000e+03 4.032099e+07
1.001000e+03 4.122790e+07
1.002000e+03 4.211780e+07
1.003000e+03 3.938044e+07
1.004000e+03 4.380122e+07
1.005000e+03 4.019779e+07
1.006000e+03 4.596614e+07
1.007000e+03 4.680638e+07
1.008000e+03 4.790624e+07
1.009000e+03 4.769777e+07
1.010000e+03 5.008813e+07
1.011000e+03 5.117116e+07
1.012000e+03 5.225805e+07
1.013000e+03 5.338078e+07
1.014000e+03 5.289084e+07
1.015000e+03 5.446348e+07
1.016000e+03 5.663002e+07
1.017000e+03 5.662274e+07
1.018000e+03 5.910668e+07
1.019000e+03 5.993590e+07
1.020000e+03 6.155464e+07
1.021000e+03 3.981920e+07
1.022000e+03 5.974510e+07
1.023000e+03 6.334212e+07
1.024000e+03 5.990755e+07
1.025000e+03 4.548769e+07
1.026000e+03 2.057775e+07
1.027000e+03 6.088313e+07
1.028000e+03 2.012628e+07
1.029000e+03 7.165082e+07
1.030000e+03 7.443150e+07
1.031000e+03 7.734578e+07
1.032000e+03 7.874206e+07
1.033000e+03 4.215282e+07
1.034000e+03 8.287356e+07
1.035000e+03 1.865156e+07
1.036000e+03 8.065698e+07
1.037000e+03 1.257457e+07
1.038000e+03 9.017401e+07
1.039000e+03 9.109398e+07
1.040000e+03 9.395909e+07
1.041000e+03 9.514334e+07
1.042000e+03 9.627292e+07
1.043000e+03 9.746386e+07
1.044000e+03 1.016172e+08
1.045000e+03 1.038107e+08
1.046000e+03 1.061781e+08
1.047000e+03 1.081460e+08
1.048000e+03 1.091439e+08
1.049000e+03 1.088103e+08
1.050000e+03 1.149721e+08
1.051000e+03 1.172126e+08
1.052000e+03 1.197231e+08
1.053000e+03 1.204003e+08
1.054000e+03 1.207969e+08
1.055000e+03 1.258048e+08
1.056000e+03 1.295991e+08
1.057000e+03 1.320396e+08
1.058000e+03 1.345999e+08
1.059000e+03 1.367879e+08
1.060000e+03 1.393336e+08
1.061000e+03 1.428601e+08
1.062000e+03 1.455685e+08
1.063000e+03 5.907795e+07
1.064000e+03 3.175949e+07
1.065000e+03 1.525151e+08
1.066000e+03 1.312747e+08
1.067000e+03 1.554265e+08
1.068000e+03 1.650652e+08
1.069000e+03 1.637363e+08
1.070000e+03 1.689869e+08
1.071000e+03 1.749299e+08
1.072000e+03 1.782748e+08
1.073000e+03 1.789960e+08
1.074000e+03 1.850037e+08
1.075000e+03 1.884147e+08
1.076000e+03 1.923294e+08
1.077000e+03 1.952393e+08
1.078000e+03 1.994583e+08
1.079000e+03 2.027165e+08
1.080000e+03 2.071669e+08
1.081000e+03 2.112150e+08
1.082000e+03 2.151199e+08
1.083000e+03 2.188238e+08
1.084000e+03 2.197136e+08
1.085000e+03 1.632645e+08
1.086000e+03 2.318960e+08
1.087000e+03 2.351161e+08
1.088000e+03 2.398426e+08
1.089000e+03 2.449852e+08
1.090000e+03 2.488524e+08
1.091000e+03 2.533740e+08
1.092000e+03 2.588284e+08
1.093000e+03 2.633923e+08
1.094000e+03 2.684010e+08
1.095000e+03 2.731202e+08
1.096000e+03 2.782448e+08
1.097000e+03 2.796295e+08
1.098000e+03 2.837059e+08
1.099000e+03 2.933801e+08
1.100000e+03 2.905450e+08
1.101000e+03 2.775009e+08
1.102000e+03 6.090047e+08
1.103000e+03 1.892236e+09
1.104000e+03 7.788124e+08
1.105000e+03 2.994493e+08
1.106000e+03 4.526803e+09
1.107000e+03 2.956273e+09
1.108000e+03 4.657057e+09
1.109000e+03 2.475405e+09
1.110000e+03 8.386946e+08
1.111000e+03 6.827761e+08
1.112000e+03 4.077951e+09
1.113000e+03 5.098313e+09
1.114000e+03 2.349809e+08
1.115000e+03 4.716246e+09
1.116000e+03 4.758689e+09
1.117000e+03 2.657697e+08
1.118000e+03 3.342649e+09
1.119000e+03 5.402669e+09
1.120000e+03 5.122306e+09
1.121000e+03 4.659672e+09
1.122000e+03 8.742477e+07
1.123000e+03 5.105892e+08
1.124000e+03 5.777517e+09
1.125000e+03 2.368063e+09
1.126000e+03 5.983152e+09
1.127000e+03 5.792780e+09
1.128000e+03 2.606737e+09
1.129000e+03 5.979819e+09
1.130000e+03 4.931173e+09
1.131000e+03 6.402570e+09
1.132000e+03 2.470185e+08
1.133000e+03 4.773546e+09
1.134000e+03 6.247283e+09
1.135000e+03 1.372288e+08
1.136000e+03 6.428605e+09
1.137000e+03 6.897534e+09
1.138000e+03 6.887990e+09
1.139000e+03 6.902357e+09
1.140000e+03 1.601234e+08
1.141000e+03 7.271780e+09
1.142000e+03 7.042506e+09
1.143000e+03 7.422859e+09
1.144000e+03 7.575787e+09
1.145000e+03 5.393083e+09
1.146000e+03 7.751912e+09
1.147000e+03 7.728132e+09
1.148000e+03 7.271622e+09
1.149000e+03 8.041483e+09
1.150000e+03 7.832532e+09
1.151000e+03 8.206300e+09
1.152000e+03 8.284644e+09
1.153000e+03 1.975683e+09
1.154000e+03 4.387942e+08
1.155000e+03 5.814738e+09
1.156000e+03 1.816947e+09
1.157000e+03 8.858657e+09
1.158000e+03 2.318098e+08
1.159000e+03 7.169534e+09
1.160000e+03 8.606780e+09
1.161000e+03 9.364526e+09
1.162000e+03 1.748994e+09
1.163000e+03 9.156048e+09
1.164000e+03 3.833574e+08
1.165000e+03 9.835563e+09
1.166000e+03 9.816060e+09
1.167000e+03 9.589559e+09
1.168000e+03 1.024996e+10
1.169000e+03 1.007098e+10
1.170000e+03 1.051024e+10
1.171000e+03 1.063703e+10
1.172000e+03 1.029150e+10
1.173000e+03 1.090230e+10
1.174000e+03 9.859007e+09
1.175000e+03 4.270520e+08
1.176000e+03 3.359754e+08
1.177000e+03 1.139681e+10
1.178000e+03 1.051057e+10
1.179000e+03 1.172346e+10
1.180000e+03 8.849762e+09
1.181000e+03 1.185979e+10
1.182000e+03 1.213449e+10
1.183000e+03 1.222553e+10
1.184000e+03 1.232804e+10
1.185000e+03 1.204136e+10
1.186000e+03 1.232176e+10
1.187000e+03 1.265931e+10
1.188000e+03 1.230858e+10
1.189000e+03 3.832822e+08
1.190000e+03 1.588215e+09
1.191000e+03 1.261069e+10
1.192000e+03 1.271745e+10
1.193000e+03 3.415081e+08
1.194000e+03 4.394035e+08
1.195000e+03 8.193939e+09
1.196000e+03 1.268832e+10
1.197000e+03 1.560579e+10
1.198000e+03 1.548247e+10
1.199000e+03 1.523502e+10
1.200000e+03 1.345739e+10
1.201000e+03 1.414820e+10
1.202000e+03 1.380302e+10
1.203000e+03 1.509417e+10
1.204000e+03 1.339739e+10
1.205000e+03 1.270401e+10
1.206000e+03 1.066160e+10
1.207000e+03 3.299381e+09
1.208000e+03 8.615420e+09
1.209000e+03 6.545744e+09
1.210000e+03 6.585349e+08
1.211000e+03 3.955926e+09
1.212000e+03 2.576403e+09
1.213000e+03 1.637458e+09
1.214000e+03 9.496091e+08
1.215000e+03 5.871531e+08
1.216000e+03 5.287269e+08
1.217000e+03 8.286531e+08
1.218000e+03 1.471396e+09
1.219000e+03 2.531326e+09
1.220000e+03 3.982725e+09
1.221000e+03 5.773317e+09
1.222000e+03 7.791340e+09
1.223000e+03 9.980900e+09
1.224000e+03 1.227724e+10
1.225000e+03 1.436860e+10
1.226000e+03 1.683688e+10
1.227000e+03 1.908380e+10
1.228000e+03 2.135750e+10
1.229000e+03 2.361756e+10
1.230000e+03 2.564661e+10
1.231000e+03 2.759251e+10
1.232000e+03 3.014997e+10
1.233000e+03 3.211406e+10
1.234000e+03 2.099920e+10
1.235000e+03 3.565452e+10
1.236000e+03 3.641431e+10
1.237000e+03 3.905810e+10
1.238000e+03 4.046867e+10
1.239000e+03 4.202015e+10
1.240000e+03 3.912741e+10
1.241000e+03 7.509395e+10
1.242000e+03 3.780820e+10
1.243000e+03 5.808439e+10
1.244000e+03 2.219481e+10
1.245000e+03 3.420378e+10
1.246000e+03 1.205868e+11
1.247000e+03 1.235756e+11
1.248000e+03 2.397947e+10
1.249000e+03 3.015174e+10
1.250000e+03 1.482336e+11
1.251000e+03 1.552013e+11
1.252000e+03 1.528598e+11
1.253000e+03 1.687240e+11
1.254000e+03 1.675508e+11
1.255000e+03 1.777692e+11
1.256000e+03 1.758266e+11
1.257000e+03 1.893949e+11
1.258000e+03 1.762077e+11
1.259000e+03 1.818196e+11
1.260000e+03 1.509275e+11
1.261000e+03 1.153791e+09
1.262000e+03 1.382474e+10
1.263000e+03 2.094142e+11
1.264000e+03 1.757758e+11
1.265000e+03 1.137684e+09
1.266000e+03 2.174476e+11
1.267000e+03 2.217192e+11
