# wavelength_A flux
5.000000e+02 2.533511e-34
5.010000e+02 3.239747e-34
5.020000e+02 4.138714e-34
5.030000e+02 5.281877e-34
5.040000e+02 6.734141e-34
5.050000e+02 8.581235e-34
5.060000e+02 1.091908e-33
5.070000e+02 1.388028e-33
5.080000e+02 1.762773e-33
5.090000e+02 2.236537e-33
5.100000e+02 2.833854e-33
5.110000e+02 3.590026e-33
5.120000e+02 4.541939e-33
5.130000e+02 5.740960e-33
5.140000e+02 7.249717e-33
5.150000e+02 9.146524e-33
5.160000e+02 1.152901e-32
5.170000e+02 1.451882e-32
5.180000e+02 1.826736e-32
5.190000e+02 2.296298e-32
5.200000e+02 2.883969e-32
5.210000e+02 3.618805e-32
5.220000e+02 4.536836e-32
5.230000e+02 5.682773e-32
5.240000e+02 7.111895e-32
5.250000e+02 8.892655e-32
5.260000e+02 1.110966e-31
5.270000e+02 1.386742e-31
5.280000e+02 1.729490e-31
5.290000e+02 2.155113e-31
5.300000e+02 2.683206e-31
5.310000e+02 3.337889e-31
5.320000e+02 4.148831e-31
5.330000e+02 5.152495e-31
5.340000e+02 6.393660e-31
5.350000e+02 7.927268e-31
5.360000e+02 9.820683e-31
5.370000e+02 1.215530e-30
5.380000e+02 1.503552e-30
5.390000e+02 1.858150e-30
5.400000e+02 2.294538e-30
5.410000e+02 2.831155e-30
5.420000e+02 3.490504e-30
5.430000e+02 4.300018e-30
5.440000e+02 5.293125e-30
5.450000e+02 6.510519e-30
5.460000e+02 8.001703e-30
5.470000e+02 9.826857e-30
5.480000e+02 1.205907e-29
5.490000e+02 1.478707e-29
5.500000e+02 1.811846e-29
5.510000e+02 2.218366e-29
5.520000e+02 2.714059e-29
5.530000e+02 3.318039e-29
5.540000e+02 4.053421e-29
5.550000e+02 4.948135e-29
5.560000e+02 6.035912e-29
5.570000e+02 7.357451e-29
5.580000e+02 8.961831e-29
5.590000e+02 1.090819e-28
5.600000e+02 1.326773e-28
5.610000e+02 1.612615e-28
5.620000e+02 1.958648e-28
5.630000e+02 2.377253e-28
5.640000e+02 2.883296e-28
5.650000e+02 3.494617e-28
5.660000e+02 4.232609e-28
5.670000e+02 5.122906e-28
5.680000e+02 6.196208e-28
5.690000e+02 7.489254e-28
5.700000e+02 9.045979e-28
5.710000e+02 1.091890e-27
5.720000e+02 1.317072e-27
5.730000e+02 1.587630e-27
5.740000e+02 1.912494e-27
5.750000e+02 2.302305e-27
5.760000e+02 2.769743e-27
5.770000e+02 3.329901e-27
5.780000e+02 4.000735e-27
5.790000e+02 4.803596e-27
5.800000e+02 5.763852e-27
5.810000e+02 6.911627e-27
5.820000e+02 8.282670e-27
5.830000e+02 9.919377e-27
5.840000e+02 1.187199e-26
5.850000e+02 1.420006e-26
5.860000e+02 1.697403e-26
5.870000e+02 2.027726e-26
5.880000e+02 2.420831e-26
5.890000e+02 2.888366e-26
5.900000e+02 3.444084e-26
5.910000e+02 4.104219e-26
5.920000e+02 4.887916e-26
5.930000e+02 5.817747e-26
5.940000e+02 6.920303e-26
5.950000e+02 8.226894e-26
5.960000e+02 9.774365e-26
5.970000e+02 1.160605e-25
5.980000e+02 1.377287e-25
5.990000e+02 1.633467e-25
6.000000e+02 1.936170e-25
6.010000e+02 2.293637e-25
6.020000e+02 2.715535e-25
6.030000e+02 3.213195e-25
6.040000e+02 3.799887e-25
6.050000e+02 4.491150e-25
6.060000e+02 5.305167e-25
6.070000e+02 6.263199e-25
6.080000e+02 7.390101e-25
6.090000e+02 8.714905e-25
6.100000e+02 1.027151e-24
6.110000e+02 1.209948e-24
6.120000e+02 1.424494e-24
6.130000e+02 1.676167e-24
6.140000e+02 1.971235e-24
6.150000e+02 2.316992e-24
6.160000e+02 2.721931e-24
6.170000e+02 3.195930e-24
6.180000e+02 3.750473e-24
6.190000e+02 4.398906e-24
6.200000e+02 5.156728e-24
6.210000e+02 6.041931e-24
6.220000e+02 7.075392e-24
6.230000e+02 8.281319e-24
6.240000e+02 9.687770e-24
6.250000e+02 1.132725e-23
6.260000e+02 1.323741e-23
6.270000e+02 1.546179e-23
6.280000e+02 1.805080e-23
6.290000e+02 2.106268e-23
6.300000e+02 2.456476e-23
6.310000e+02 2.863481e-23
6.320000e+02 3.336262e-23
6.330000e+02 3.885176e-23
6.340000e+02 4.522173e-23
6.350000e+02 5.261028e-23
6.360000e+02 6.117613e-23
6.370000e+02 7.110208e-23
6.380000e+02 8.259858e-23
6.390000e+02 9.590777e-23
6.400000e+02 1.113081e-22
6.410000e+02 1.291199e-22
6.420000e+02 1.497108e-22
6.430000e+02 1.735033e-22
6.440000e+02 2.009826e-22
6.450000e+02 2.327051e-22
6.460000e+02 2.693092e-22
6.470000e+02 3.115265e-22
6.480000e+02 3.601957e-22
6.490000e+02 4.162772e-22
6.500000e+02 4.808705e-22
6.510000e+02 5.552340e-22
6.520000e+02 6.408071e-22
6.530000e+02 7.392356e-22
6.540000e+02 8.524002e-22
6.550000e+02 9.824495e-22
6.560000e+02 1.131837e-21
6.570000e+02 1.303363e-21
6.580000e+02 1.500222e-21
6.590000e+02 1.726058e-21
6.600000e+02 1.985023e-21
6.610000e+02 2.281850e-21
6.620000e+02 2.621929e-21
6.630000e+02 3.011395e-21
6.640000e+02 3.457231e-21
6.650000e+02 3.967380e-21
6.660000e+02 4.550875e-21
6.670000e+02 5.217980e-21
6.680000e+02 5.980357e-21
6.690000e+02 6.851252e-21
6.700000e+02 7.845700e-21
6.710000e+02 8.980760e-21
6.720000e+02 1.027579e-20
6.730000e+02 1.175272e-20
6.740000e+02 1.343643e-20
6.750000e+02 1.535509e-20
6.760000e+02 1.754060e-20
6.770000e+02 2.002909e-20
6.780000e+02 2.286142e-20
6.790000e+02 2.608383e-20
6.800000e+02 2.974858e-20
6.810000e+02 3.391477e-20
6.820000e+02 3.864914e-20
6.830000e+02 4.402709e-20
6.840000e+02 5.013373e-20
6.850000e+02 5.706512e-20
6.860000e+02 6.492962e-20
6.870000e+02 7.384943e-20
6.880000e+02 8.396230e-20
6.890000e+02 9.542345e-20
6.900000e+02 1.084077e-19
6.910000e+02 1.231120e-19
6.920000e+02 1.397580e-19
6.930000e+02 1.585949e-19
6.940000e+02 1.799032e-19
6.950000e+02 2.039984e-19
6.960000e+02 2.312347e-19
6.970000e+02 2.620106e-19
6.980000e+02 2.967732e-19
6.990000e+02 3.360247e-19
7.000000e+02 3.803287e-19
7.010000e+02 4.303177e-19
7.020000e+02 4.867008e-19
7.030000e+02 5.502733e-19
7.040000e+02 6.219263e-19
7.050000e+02 7.026584e-19
7.060000e+02 7.935879e-19
7.070000e+02 8.959669e-19
7.080000e+02 1.011197e-18
7.090000e+02 1.140846e-18
7.100000e+02 1.286667e-18
7.110000e+02 1.450622e-18
7.120000e+02 1.634902e-18
7.130000e+02 1.841955e-18
7.140000e+02 2.074518e-18
7.150000e+02 2.335645e-18
7.160000e+02 2.628743e-18
7.170000e+02 2.957618e-18
7.180000e+02 3.326513e-18
7.190000e+02 3.740159e-18
7.200000e+02 4.203833e-18
7.210000e+02 4.723412e-18
7.220000e+02 5.305445e-18
7.230000e+02 5.957225e-18
7.240000e+02 6.686873e-18
7.250000e+02 7.503426e-18
7.260000e+02 8.416938e-18
7.270000e+02 9.438595e-18
7.280000e+02 1.058083e-17
7.290000e+02 1.185747e-17
7.300000e+02 1.328386e-17
7.310000e+02 1.487709e-17
7.320000e+02 1.665609e-17
7.330000e+02 1.864190e-17
7.340000e+02 2.085787e-17
7.350000e+02 2.332991e-17
7.360000e+02 2.608675e-17
7.370000e+02 2.916025e-17
7.380000e+02 3.258572e-17
7.390000e+02 3.640231e-17
7.400000e+02 4.065338e-17
7.410000e+02 4.538694e-17
7.420000e+02 5.065615e-17
7.430000e+02 5.651987e-17
7.440000e+02 6.304323e-17
7.450000e+02 7.029822e-17
7.460000e+02 7.836454e-17
7.470000e+02 8.733022e-17
7.480000e+02 9.729262e-17
7.490000e+02 1.083593e-16
7.500000e+02 1.206490e-16
7.510000e+02 1.342929e-16
7.520000e+02 1.494359e-16
7.530000e+02 1.662378e-16
7.540000e+02 1.848749e-16
7.550000e+02 2.055417e-16
7.560000e+02 2.284529e-16
7.570000e+02 2.538447e-16
7.580000e+02 2.819779e-16
7.590000e+02 3.131396e-16
7.600000e+02 3.476461e-16
7.610000e+02 3.858457e-16
7.620000e+02 4.281218e-16
7.630000e+02 4.748965e-16
7.640000e+02 5.266341e-16
7.650000e+02 5.838454e-16
7.660000e+02 6.470920e-16
7.670000e+02 7.169917e-16
7.680000e+02 7.942230e-16
7.690000e+02 8.795319e-16
7.700000e+02 9.737377e-16
7.710000e+02 1.077740e-15
7.720000e+02 1.192527e-15
7.730000e+02 1.319184e-15
7.740000e+02 1.458899e-15
7.750000e+02 1.612979e-15
7.760000e+02 1.782856e-15
7.770000e+02 1.970101e-15
7.780000e+02 2.176433e-15
7.790000e+02 2.403741e-15
7.800000e+02 2.654090e-15
7.810000e+02 2.929747e-15
7.820000e+02 3.233189e-15
7.830000e+02 3.567133e-15
7.840000e+02 3.934549e-15
7.850000e+02 4.338691e-15
7.860000e+02 4.783115e-15
7.870000e+02 5.271715e-15
7.880000e+02 5.808744e-15
7.890000e+02 6.398854e-15
7.900000e+02 7.047132e-15
7.910000e+02 7.759131e-15
7.920000e+02 8.540922e-15
7.930000e+02 9.399134e-15
7.940000e+02 1.034101e-14
7.950000e+02 1.137444e-14
7.960000e+02 1.250805e-14
7.970000e+02 1.375126e-14
7.980000e+02 1.511432e-14
7.990000e+02 1.660843e-14
8.000000e+02 1.824580e-14
8.010000e+02 2.003974e-14
8.020000e+02 2.200473e-14
8.030000e+02 2.415659e-14
8.040000e+02 2.651251e-14
8.050000e+02 2.909125e-14
8.060000e+02 3.191322e-14
8.070000e+02 3.500062e-14
8.080000e+02 3.837765e-14
8.090000e+02 4.207061e-14
8.100000e+02 4.610811e-14
8.110000e+02 5.052129e-14
8.120000e+02 5.534398e-14
8.130000e+02 6.061300e-14
8.140000e+02 6.636831e-14
8.150000e+02 7.265338e-14
8.160000e+02 7.951541e-14
8.170000e+02 8.700567e-14
8.180000e+02 9.517985e-14
8.190000e+02 1.040984e-13
8.200000e+02 1.138269e-13
8.210000e+02 1.244365e-13
8.220000e+02 1.360046e-13
8.230000e+02 1.486149e-13
8.240000e+02 1.623582e-13
8.250000e+02 1.773332e-13
8.260000e+02 1.936466e-13
8.270000e+02 2.114141e-13
8.280000e+02 2.307612e-13
8.290000e+02 2.518238e-13
8.300000e+02 2.747491e-13
8.310000e+02 2.996963e-13
8.320000e+02 3.268381e-13
8.330000e+02 3.563613e-13
8.340000e+02 3.884678e-13
8.350000e+02 4.233766e-13
8.360000e+02 4.613240e-13
8.370000e+02 5.025659e-13
8.380000e+02 5.473791e-13
8.390000e+02 5.960626e-13
8.400000e+02 6.489398e-13
8.410000e+02 7.063599e-13
8.420000e+02 7.687005e-13
8.430000e+02 8.363692e-13
8.440000e+02 9.098065e-13
8.450000e+02 9.894880e-13
8.460000e+02 1.075927e-12
8.470000e+02 1.169677e-12
8.480000e+02 1.271337e-12
8.490000e+02 1.381552e-12
8.500000e+02 1.501017e-12
8.510000e+02 1.630484e-12
8.520000e+02 1.770761e-12
8.530000e+02 1.922722e-12
8.540000e+02 2.087306e-12
8.550000e+02 2.265528e-12
8.560000e+02 2.458480e-12
8.570000e+02 2.667339e-12
8.580000e+02 2.893371e-12
8.590000e+02 3.137941e-12
8.600000e+02 3.402519e-12
8.610000e+02 3.688687e-12
8.620000e+02 3.998147e-12
8.630000e+02 4.332731e-12
8.640000e+02 4.694409e-12
8.650000e+02 5.085302e-12
8.660000e+02 5.507690e-12
8.670000e+02 5.964023e-12
8.680000e+02 6.456938e-12
8.690000e+02 6.989269e-12
8.700000e+02 7.564058e-12
8.710000e+02 8.184577e-12
8.720000e+02 8.854343e-12
8.730000e+02 9.577126e-12
8.740000e+02 1.035698e-11
8.750000e+02 1.119827e-11
8.760000e+02 1.210565e-11
8.770000e+02 1.308415e-11
8.780000e+02 1.413914e-11
8.790000e+02 1.527640e-11
8.800000e+02 1.650213e-11
8.810000e+02 1.782297e-11
8.820000e+02 1.924605e-11
8.830000e+02 2.077900e-11
8.840000e+02 2.243002e-11
8.850000e+02 2.420789e-11
8.860000e+02 2.612201e-11
8.870000e+02 2.818246e-11
8.880000e+02 3.040005e-11
8.890000e+02 3.278633e-11
8.900000e+02 3.535371e-11
8.910000e+02 3.811543e-11
8.920000e+02 4.108570e-11
8.930000e+02 4.427972e-11
8.940000e+02 4.771375e-11
8.950000e+02 5.140520e-11
8.960000e+02 5.537269e-11
8.970000e+02 5.963614e-11
8.980000e+02 6.421684e-11
8.990000e+02 6.913758e-11
9.000000e+02 7.442270e-11
9.010000e+02 8.009825e-11
9.020000e+02 8.619205e-11
9.030000e+02 9.273383e-11
9.040000e+02 9.975535e-11
9.050000e+02 1.072906e-10
9.060000e+02 1.153757e-10
9.070000e+02 1.240495e-10
9.080000e+02 1.333533e-10
9.090000e+02 1.433312e-10
9.100000e+02 1.540302e-10
9.110000e+02 1.655008e-10
9.120000e+02 1.777965e-10
9.130000e+02 1.909746e-10
9.140000e+02 2.078284e-10
9.150000e+02 4.401362e-08
9.160000e+02 2.617934e-07
9.170000e+02 5.068200e-09
9.180000e+02 5.688905e-08
9.190000e+02 7.294133e-07
9.200000e+02 1.963506e-06
9.210000e+02 3.364141e-10
9.220000e+02 7.995881e-07
9.230000e+02 5.913653e-09
9.240000e+02 7.729341e-09
9.250000e+02 1.060150e-07
9.260000e+02 8.264438e-08
9.270000e+02 7.443411e-09
9.280000e+02 1.076620e-05
9.290000e+02 1.090743e-05
9.300000e+02 2.543171e-06
9.310000e+02 1.064059e-08
9.320000e+02 8.893090e-06
9.330000e+02 7.747794e-07
9.340000e+02 1.787084e-07
9.350000e+02 2.371069e-08
9.360000e+02 2.606712e-08
9.370000e+02 4.748877e-09
9.380000e+02 1.847642e-08
9.390000e+02 8.901977e-08
9.400000e+02 8.062850e-06
9.410000e+02 1.078048e-06
9.420000e+02 3.692802e-05
9.430000e+02 1.377293e-07
9.440000e+02 4.192660e-05
9.450000e+02 3.757998e-05
9.460000e+02 2.629888e-06
9.470000e+02 3.232742e-09
9.480000e+02 1.111830e-05
9.490000e+02 1.416808e-06
9.500000e+02 3.376711e-08
9.510000e+02 2.135956e-06
9.520000e+02 5.441234e-06
9.530000e+02 2.951361e-08
9.540000e+02 4.094314e-09
9.550000e+02 3.360474e-07
9.560000e+02 4.540809e-05
9.570000e+02 1.636554e-07
9.580000e+02 4.091703e-09
9.590000e+02 1.619679e-05
9.600000e+02 6.800133e-08
9.610000e+02 4.071157e-06
9.620000e+02 1.334617e-06
9.630000e+02 1.739245e-07
9.640000e+02 4.429216e-08
9.650000e+02 1.145236e-08
9.660000e+02 3.577916e-07
9.670000e+02 5.638412e-08
9.680000e+02 3.900095e-08
9.690000e+02 2.322424e-06
9.700000e+02 3.801207e-06
9.710000e+02 9.488522e-08
9.720000e+02 3.600110e-08
9.730000e+02 3.405540e-07
9.740000e+02 3.247008e-06
9.750000e+02 8.276848e-07
9.760000e+02 4.052832e-05
9.770000e+02 1.814379e-05
9.780000e+02 6.875043e-06
9.790000e+02 2.204424e-04
9.800000e+02 1.869599e-04
9.810000e+02 3.779234e-06
9.820000e+02 6.213377e-07
9.830000e+02 1.460651e-04
9.840000e+02 7.383709e-06
9.850000e+02 1.578592e-06
9.860000e+02 2.773096e-06
9.870000e+02 1.462469e-04
9.880000e+02 4.225149e-08
9.890000e+02 2.446235e-05
9.900000e+02 8.991441e-05
9.910000e+02 7.086583e-07
9.920000e+02 3.391161e-08
9.930000e+02 4.405459e-04
9.940000e+02 6.104892e-08
9.950000e+02 1.649067e-05
9.960000e+02 1.662556e-07
9.970000e+02 3.205683e-05
9.980000e+02 1.020602e-04
9.990000e+02 1.181792e-06
1.000000e+03 8.004945e-04
1.001000e+03 6.336443e-04
1.002000e+03 4.814209e-04
1.003000e+03 1.172099e-06
1.004000e+03 8.390634e-08
1.005000e+03 4.971982e-06
1.006000e+03 3.427801e-04
1.007000e+03 6.210987e-04
1.008000e+03 1.746076e-04
1.009000e+03 1.851197e-06
1.010000e+03 1.714869e-04
1.011000e+03 2.189396e-04
1.012000e+03 2.602792e-04
1.013000e+03 2.449547e-04
1.014000e+03 1.234293e-07
1.015000e+03 1.649751e-07
1.016000e+03 6.903603e-06
1.017000e+03 1.461303e-07
1.018000e+03 1.785942e-06
1.019000e+03 1.800945e-07
1.020000e+03 4.212738e-04
1.021000e+03 4.327652e-06
1.022000e+03 6.151880e-06
1.023000e+03 3.455207e-07
1.024000e+03 5.743353e-05
1.025000e+03 2.297763e-07
1.026000e+03 3.490496e-07
1.027000e+03 1.636387e-05
1.028000e+03 1.963243e-06
1.029000e+03 2.874731e-07
1.030000e+03 2.489128e-05
1.031000e+03 6.653709e-05
1.032000e+03 9.896931e-04
1.033000e+03 1.734070e-05
1.034000e+03 8.054818e-05
1.035000e+03 1.419045e-06
1.036000e+03 4.251488e-07
1.037000e+03 7.919299e-04
1.038000e+03 5.607782e-03
1.039000e+03 8.734558e-04
1.040000e+03 6.695637e-04
1.041000e+03 5.562463e-03
1.042000e+03 3.358109e-03
1.043000e+03 3.729919e-03
1.044000e+03 1.667865e-02
1.045000e+03 1.165532e-06
1.046000e+03 6.593512e-04
1.047000e+03 2.567768e-04
1.048000e+03 3.778259e-06
1.049000e+03 2.263128e-04
1.050000e+03 5.141774e-05
1.051000e+03 2.709357e-05
1.052000e+03 4.716788e-03
1.053000e+03 8.476181e-03
1.054000e+03 1.117587e-06
1.055000e+03 1.029926e-02
1.056000e+03 1.201874e-02
1.057000e+03 8.455373e-04
1.058000e+03 2.520302e-05
1.059000e+03 2.508564e-05
1.060000e+03 5.961861e-06
1.061000e+03 1.679447e-03
1.062000e+03 1.342103e-05
1.063000e+03 1.110394e-03
1.064000e+03 2.805144e-06
1.065000e+03 1.987908e-06
1.066000e+03 2.533977e-03
1.067000e+03 2.111620e-05
1.068000e+03 2.996803e-02
1.069000e+03 5.061411e-06
1.070000e+03 2.813190e-04
1.071000e+03 6.956529e-03
1.072000e+03 3.111728e-02
1.073000e+03 3.034249e-06
1.074000e+03 9.488030e-04
1.075000e+03 5.093068e-04
1.076000e+03 3.439123e-02
1.077000e+03 2.002367e-05
1.078000e+03 3.824756e-05
1.079000e+03 1.987645e-04
1.080000e+03 1.054945e-03
1.081000e+03 6.992795e-03
1.082000e+03 3.339428e-03
1.083000e+03 1.567408e-03
1.084000e+03 9.246200e-02
1.085000e+03 3.157556e-04
1.086000e+03 5.245863e-02
1.087000e+03 5.795807e-05
1.088000e+03 1.054890e-01
1.089000e+03 1.151420e-01
1.090000e+03 2.453657e-04
1.091000e+03 4.003793e-04
1.092000e+03 9.011417e-02
1.093000e+03 1.235800e-01
1.094000e+03 3.919571e-03
1.095000e+03 1.673622e-01
1.096000e+03 8.274906e-03
1.097000e+03 3.129417e-02
1.098000e+03 1.403863e-01
1.099000e+03 9.773672e-04
1.100000e+03 1.659733e-05
1.101000e+03 4.408571e-05
1.102000e+03 6.858366e-04
1.103000e+03 1.626600e-01
1.104000e+03 2.007211e-01
1.105000e+03 1.925947e-01
1.106000e+03 3.904451e-03
1.107000e+03 3.082305e-05
1.108000e+03 3.693711e-02
1.109000e+03 3.866777e-04
1.110000e+03 2.298482e-01
1.111000e+03 1.240967e-01
1.112000e+03 1.396651e-02
1.113000e+03 1.730546e-01
1.114000e+03 7.294004e-03
1.115000e+03 4.477855e-04
1.116000e+03 1.414474e-04
1.117000e+03 1.526676e-01
1.118000e+03 6.757285e-04
1.119000e+03 1.461116e-02
1.120000e+03 2.334341e-04
1.121000e+03 9.111873e-02
1.122000e+03 4.957128e-01
1.123000e+03 2.283793e-01
1.124000e+03 2.791681e-01
1.125000e+03 1.095430e-01
1.126000e+03 8.032777e-01
1.127000e+03 1.296386e-01
1.128000e+03 3.669016e-01
1.129000e+03 5.249241e-02
1.130000e+03 3.572383e-01
1.131000e+03 3.992207e-01
1.132000e+03 4.369095e-04
1.133000e+03 4.501730e-03
1.134000e+03 7.256296e-02
1.135000e+03 3.813690e-01
1.136000e+03 9.432763e-03
1.137000e+03 2.322919e-01
1.138000e+03 5.389641e-02
1.139000e+03 4.115931e-01
1.140000e+03 3.581038e-01
1.141000e+03 3.898961e-01
1.142000e+03 4.460311e-01
1.143000e+03 6.176403e-02
1.144000e+03 4.427119e-01
1.145000e+03 2.622902e-04
1.146000e+03 4.714298e-01
1.147000e+03 4.170124e-01
1.148000e+03 2.211511e-03
1.149000e+03 2.481154e-01
1.150000e+03 1.885834e-01
1.151000e+03 4.388395e-01
1.152000e+03 2.751464e-01
1.153000e+03 4.097611e-01
1.154000e+03 4.694069e-01
1.155000e+03 2.353522e-01
1.156000e+03 3.528212e-01
1.157000e+03 4.167108e-01
1.158000e+03 7.402557e-02
1.159000e+03 4.145361e-01
1.160000e+03 1.067428e-01
1.161000e+03 3.690806e-01
1.162000e+03 1.060027e-02
1.163000e+03 4.411191e-02
1.164000e+03 1.451910e-03
1.165000e+03 1.840204e-01
1.166000e+03 1.036274e-01
1.167000e+03 8.068885e-02
1.168000e+03 4.462372e-01
1.169000e+03 4.747185e-01
1.170000e+03 6.412228e-02
1.171000e+03 2.188290e-01
1.172000e+03 1.209886e-01
1.173000e+03 1.637592e-01
1.174000e+03 1.670770e-03
1.175000e+03 9.421036e-04
1.176000e+03 4.173890e-04
1.177000e+03 5.991746e-01
1.178000e+03 5.723532e-01
1.179000e+03 5.219602e-01
1.180000e+03 3.014500e-01
1.181000e+03 4.974763e-01
1.182000e+03 4.597243e-01
1.183000e+03 2.844436e-01
1.184000e+03 2.424603e-01
1.185000e+03 2.787181e-01
1.186000e+03 9.051738e-03
1.187000e+03 3.690275e-01
1.188000e+03 1.908539e-01
1.189000e+03 3.965378e-01
1.190000e+03 3.838955e-01
1.191000e+03 3.297634e-01
1.192000e+03 3.290200e-01
1.193000e+03 2.877885e-01
1.194000e+03 3.172480e-01
1.195000e+03 3.018125e-01
1.196000e+03 3.138445e+00
1.197000e+03 4.349905e+00
1.198000e+03 3.090042e-02
1.199000e+03 3.680950e+00
1.200000e+03 1.212097e-01
1.201000e+03 2.759208e+00
1.202000e+03 9.278551e-01
1.203000e+03 1.933155e+00
1.204000e+03 1.355384e-01
1.205000e+03 1.273415e+00
1.206000e+03 1.065835e+00
1.207000e+03 1.811957e-01
1.208000e+03 5.587696e-01
1.209000e+03 4.336360e-01
1.210000e+03 2.019018e-03
1.211000e+03 1.687087e-01
1.212000e+03 7.865591e-02
1.213000e+03 3.865193e-02
1.214000e+03 1.165551e-02
1.215000e+03 2.101148e-03
1.216000e+03 1.804876e-03
1.217000e+03 7.402254e-03
1.218000e+03 3.209158e-02
1.219000e+03 8.512552e-02
1.220000e+03 9.118661e-02
1.221000e+03 3.414080e-01
1.222000e+03 5.189952e-01
1.223000e+03 6.059521e-01
1.224000e+03 1.144588e+00
1.225000e+03 5.674446e-02
1.226000e+03 2.415770e+00
1.227000e+03 3.159200e+00
1.228000e+03 5.387025e-01
1.229000e+03 4.117863e+00
1.230000e+03 3.233868e+00
1.231000e+03 2.740717e-01
1.232000e+03 8.454152e+00
1.233000e+03 9.940487e+00
1.234000e+03 9.880236e+00
1.235000e+03 1.080708e+01
1.236000e+03 9.837193e-01
1.237000e+03 1.497147e+01
1.238000e+03 1.495550e+01
1.239000e+03 6.832497e+00
1.240000e+03 6.368400e+00
1.241000e+03 8.370109e+00
1.242000e+03 1.650274e+01
1.243000e+03 2.303317e+01
1.244000e+03 2.502902e+01
1.245000e+03 2.484669e+01
1.246000e+03 1.589939e+01
1.247000e+03 2.215419e+01
1.248000e+03 2.339685e+01
1.249000e+03 3.265810e+01
1.250000e+03 2.105816e+01
1.251000e+03 3.385198e+01
1.252000e+03 2.762796e+01
1.253000e+03 3.648905e+01
1.254000e+03 3.010215e+01
1.255000e+03 9.093295e+00
1.256000e+03 2.304120e+01
1.257000e+03 2.142039e+01
1.258000e+03 1.350095e+01
1.259000e+03 2.070185e+01
1.260000e+03 4.011937e+01
1.261000e+03 8.877792e-01
1.262000e+03 4.256101e+01
1.263000e+03 3.705360e+01
1.264000e+03 1.726423e+01
1.265000e+03 2.254328e+01
1.266000e+03 4.860749e+01
1.267000e+03 2.932235e+01
