# wavelength_A flux
5.000000e+02 3.724799e-38
5.010000e+02 4.779079e-38
5.020000e+02 6.125843e-38
5.030000e+02 7.844595e-38
5.040000e+02 1.003619e-37
5.050000e+02 3.473352e-37
5.060000e+02 4.409562e-37
5.070000e+02 5.592601e-37
5.080000e+02 7.086751e-37
5.090000e+02 8.972180e-37
5.100000e+02 1.134929e-36
5.110000e+02 1.434258e-36
5.120000e+02 1.811245e-36
5.130000e+02 2.285174e-36
5.140000e+02 2.880886e-36
5.150000e+02 3.628297e-36
5.160000e+02 4.566224e-36
5.170000e+02 5.740352e-36
5.180000e+02 7.213287e-36
5.190000e+02 9.054661e-36
5.200000e+02 1.135655e-35
5.210000e+02 1.423084e-35
5.220000e+02 1.774351e-35
5.230000e+02 2.229326e-35
5.240000e+02 2.787749e-35
5.250000e+02 3.482474e-35
5.260000e+02 4.346733e-35
5.270000e+02 5.421134e-35
5.280000e+02 6.755685e-35
5.290000e+02 8.401997e-35
5.300000e+02 1.043814e-34
5.310000e+02 1.300904e-34
5.320000e+02 1.616752e-34
5.330000e+02 2.006927e-34
5.340000e+02 2.489287e-34
5.350000e+02 3.085231e-34
5.360000e+02 3.820066e-34
5.370000e+02 2.699856e-34
5.380000e+02 5.846183e-34
5.390000e+02 7.223237e-34
5.400000e+02 8.924883e-34
5.410000e+02 1.100989e-33
5.420000e+02 1.357951e-33
5.430000e+02 1.673183e-33
5.440000e+02 2.060096e-33
5.450000e+02 2.534648e-33
5.460000e+02 3.113894e-33
5.470000e+02 3.828665e-33
5.480000e+02 4.700562e-33
5.490000e+02 5.766972e-33
5.500000e+02 7.070348e-33
5.510000e+02 8.662284e-33
5.520000e+02 1.060530e-32
5.530000e+02 1.297545e-32
5.540000e+02 1.586412e-32
5.550000e+02 1.938267e-32
5.560000e+02 2.366556e-32
5.570000e+02 2.887536e-32
5.580000e+02 3.520844e-32
5.590000e+02 4.290189e-32
5.600000e+02 5.224180e-32
5.610000e+02 6.357305e-32
5.620000e+02 7.731166e-32
5.630000e+02 9.395939e-32
5.640000e+02 1.141153e-31
5.650000e+02 1.385054e-31
5.660000e+02 1.680004e-31
5.670000e+02 2.036462e-31
5.680000e+02 2.466983e-31
5.690000e+02 2.986627e-31
5.700000e+02 3.613452e-31
5.710000e+02 4.369098e-31
5.720000e+02 5.279471e-31
5.730000e+02 6.375579e-31
5.740000e+02 7.694669e-31
5.750000e+02 9.286566e-31
5.760000e+02 1.112383e-30
5.770000e+02 1.348471e-30
5.780000e+02 1.623459e-30
5.790000e+02 1.953329e-30
5.800000e+02 2.348795e-30
5.810000e+02 2.822575e-30
5.820000e+02 3.389654e-30
5.830000e+02 4.066705e-30
5.840000e+02 4.824222e-30
5.850000e+02 5.836276e-30
5.860000e+02 7.011024e-30
5.870000e+02 8.395654e-30
5.880000e+02 1.005296e-29
5.890000e+02 1.202478e-29
5.900000e+02 1.437718e-29
5.910000e+02 1.717691e-29
5.920000e+02 2.051416e-29
5.930000e+02 2.448421e-29
5.940000e+02 2.920571e-29
5.950000e+02 3.481816e-29
5.960000e+02 4.148621e-29
5.970000e+02 4.940413e-29
5.980000e+02 5.880104e-29
5.990000e+02 6.994723e-29
6.000000e+02 8.316122e-29
6.010000e+02 9.844907e-29
6.020000e+02 1.173602e-28
6.030000e+02 1.393095e-28
6.040000e+02 1.652733e-28
6.050000e+02 1.959720e-28
6.060000e+02 2.322507e-28
6.070000e+02 2.751012e-28
6.080000e+02 3.256880e-28
6.090000e+02 3.853794e-28
6.100000e+02 4.557729e-28
6.110000e+02 5.387478e-28
6.120000e+02 6.365176e-28
6.130000e+02 7.516302e-28
6.140000e+02 8.871115e-28
6.150000e+02 1.046486e-27
6.160000e+02 1.233873e-27
6.170000e+02 1.454090e-27
6.180000e+02 1.712759e-27
6.190000e+02 2.016437e-27
6.200000e+02 2.372808e-27
6.210000e+02 2.790846e-27
6.220000e+02 3.280856e-27
6.230000e+02 3.855039e-27
6.240000e+02 4.527523e-27
6.250000e+02 5.314744e-27
6.260000e+02 6.235856e-27
6.270000e+02 7.313110e-27
6.280000e+02 8.572423e-27
6.290000e+02 1.004394e-26
6.300000e+02 1.176046e-26
6.310000e+02 1.363503e-26
6.320000e+02 1.608000e-26
6.330000e+02 1.880777e-26
6.340000e+02 2.202103e-26
6.350000e+02 2.572346e-26
6.360000e+02 3.004433e-26
6.370000e+02 3.507497e-26
6.380000e+02 4.092493e-26
6.390000e+02 4.772902e-26
6.400000e+02 5.563931e-26
6.410000e+02 6.483164e-26
6.420000e+02 7.550895e-26
6.430000e+02 8.790574e-26
6.440000e+02 1.022926e-25
6.450000e+02 1.189727e-25
6.460000e+02 1.383331e-25
6.470000e+02 1.607618e-25
6.480000e+02 1.867410e-25
6.490000e+02 2.168372e-25
6.500000e+02 2.516330e-25
6.510000e+02 2.919573e-25
6.520000e+02 3.385767e-25
6.530000e+02 3.924556e-25
6.540000e+02 4.547251e-25
6.550000e+02 5.266479e-25
6.560000e+02 6.096908e-25
6.570000e+02 7.054753e-25
6.580000e+02 8.161029e-25
6.590000e+02 9.436105e-25
6.600000e+02 1.090556e-24
6.610000e+02 1.259947e-24
6.620000e+02 1.455015e-24
6.630000e+02 1.679590e-24
6.640000e+02 1.938042e-24
6.650000e+02 2.235338e-24
6.660000e+02 2.577258e-24
6.670000e+02 2.970239e-24
6.680000e+02 3.421830e-24
6.690000e+02 3.940486e-24
6.700000e+02 4.535963e-24
6.710000e+02 5.219372e-24
6.720000e+02 6.003388e-24
6.730000e+02 6.902487e-24
6.740000e+02 7.933192e-24
6.750000e+02 9.114224e-24
6.760000e+02 1.046704e-23
6.770000e+02 1.201604e-23
6.780000e+02 1.378899e-23
6.790000e+02 1.581730e-23
6.800000e+02 1.813760e-23
6.810000e+02 2.079010e-23
6.820000e+02 2.382153e-23
6.830000e+02 2.728475e-23
6.840000e+02 3.123979e-23
6.850000e+02 3.575376e-23
6.860000e+02 4.090747e-23
6.870000e+02 4.678514e-23
6.880000e+02 5.348767e-23
6.890000e+02 6.112803e-23
6.900000e+02 6.983433e-23
6.910000e+02 7.975167e-23
6.920000e+02 9.104445e-23
6.930000e+02 1.038988e-22
6.940000e+02 1.185256e-22
6.950000e+02 1.351632e-22
6.960000e+02 1.540813e-22
6.970000e+02 1.755785e-22
6.980000e+02 2.000202e-22
6.990000e+02 2.277749e-22
7.000000e+02 2.592894e-22
7.010000e+02 2.950612e-22
7.020000e+02 3.356514e-22
7.030000e+02 3.814606e-22
7.040000e+02 4.339006e-22
7.050000e+02 4.930691e-22
7.060000e+02 5.601260e-22
7.070000e+02 6.360989e-22
7.080000e+02 7.221158e-22
7.090000e+02 8.194666e-22
7.100000e+02 9.296787e-22
7.110000e+02 1.054328e-21
7.120000e+02 1.195289e-21
7.130000e+02 1.354645e-21
7.140000e+02 1.534736e-21
7.150000e+02 1.738175e-21
7.160000e+02 1.967980e-21
7.170000e+02 2.227393e-21
7.180000e+02 2.520170e-21
7.190000e+02 2.850575e-21
7.200000e+02 3.223210e-21
7.210000e+02 3.643382e-21
7.220000e+02 4.116986e-21
7.230000e+02 4.650661e-21
7.240000e+02 5.251834e-21
7.250000e+02 5.928829e-21
7.260000e+02 6.690180e-21
7.270000e+02 7.548690e-21
7.280000e+02 8.513680e-21
7.290000e+02 9.599014e-21
7.300000e+02 1.081938e-20
7.310000e+02 1.219103e-20
7.320000e+02 1.373231e-20
7.330000e+02 1.546368e-20
7.340000e+02 1.740795e-20
7.350000e+02 1.959066e-20
7.360000e+02 2.203982e-20
7.370000e+02 2.478857e-20
7.380000e+02 2.787136e-20
7.390000e+02 3.132788e-20
7.400000e+02 3.520210e-20
7.410000e+02 3.954440e-20
7.420000e+02 4.440797e-20
7.430000e+02 4.985605e-20
7.440000e+02 5.595518e-20
7.450000e+02 6.278189e-20
7.460000e+02 7.042067e-20
7.470000e+02 7.896566e-20
7.480000e+02 8.852157e-20
7.490000e+02 9.920505e-20
7.500000e+02 1.111454e-19
7.510000e+02 1.244868e-19
7.520000e+02 1.393894e-19
7.530000e+02 1.560311e-19
7.540000e+02 1.746095e-19
7.550000e+02 1.953444e-19
7.560000e+02 2.184793e-19
7.570000e+02 2.442608e-19
7.580000e+02 2.730603e-19
7.590000e+02 3.051381e-19
7.600000e+02 3.408940e-19
7.610000e+02 3.807291e-19
7.620000e+02 4.251023e-19
7.630000e+02 4.745142e-19
7.640000e+02 5.295231e-19
7.650000e+02 5.907337e-19
7.660000e+02 6.588665e-19
7.670000e+02 7.346401e-19
7.680000e+02 8.188927e-19
7.690000e+02 9.125877e-19
7.700000e+02 1.016712e-18
7.710000e+02 1.132410e-18
7.720000e+02 1.260935e-18
7.730000e+02 1.403670e-18
7.740000e+02 1.562145e-18
7.750000e+02 1.738049e-18
7.760000e+02 1.932032e-18
7.770000e+02 2.149800e-18
7.780000e+02 2.389981e-18
7.790000e+02 2.656297e-18
7.800000e+02 2.951520e-18
7.810000e+02 3.278695e-18
7.820000e+02 3.641190e-18
7.830000e+02 4.042715e-18
7.840000e+02 4.487359e-18
7.850000e+02 4.979628e-18
7.860000e+02 5.524434e-18
7.870000e+02 6.127718e-18
7.880000e+02 6.794724e-18
7.890000e+02 7.532422e-18
7.900000e+02 8.348099e-18
7.910000e+02 9.249776e-18
7.920000e+02 1.024627e-17
7.930000e+02 1.134727e-17
7.940000e+02 1.256346e-17
7.950000e+02 1.390653e-17
7.960000e+02 1.538936e-17
7.970000e+02 1.702609e-17
7.980000e+02 1.883224e-17
7.990000e+02 2.082475e-17
8.000000e+02 2.302283e-17
8.010000e+02 2.544635e-17
8.020000e+02 2.811849e-17
8.030000e+02 3.106354e-17
8.040000e+02 3.430876e-17
8.050000e+02 3.788391e-17
8.060000e+02 4.182159e-17
8.070000e+02 4.615753e-17
8.080000e+02 5.093090e-17
8.090000e+02 5.618464e-17
8.100000e+02 6.196562e-17
8.110000e+02 6.832531e-17
8.120000e+02 7.531990e-17
8.130000e+02 8.301143e-17
8.140000e+02 9.146688e-17
8.150000e+02 1.007602e-16
8.160000e+02 1.109720e-16
8.170000e+02 1.221883e-16
8.180000e+02 1.345123e-16
8.190000e+02 1.480426e-16
8.200000e+02 1.628967e-16
8.210000e+02 1.792002e-16
8.220000e+02 1.970912e-16
8.230000e+02 2.167190e-16
8.240000e+02 2.382477e-16
8.250000e+02 2.618563e-16
8.260000e+02 2.877398e-16
8.270000e+02 3.161111e-16
8.280000e+02 3.472025e-16
8.290000e+02 3.812673e-16
8.300000e+02 4.185818e-16
8.310000e+02 4.594470e-16
8.320000e+02 5.041909e-16
8.330000e+02 5.531712e-16
8.340000e+02 6.067773e-16
8.350000e+02 6.649418e-16
8.360000e+02 7.296024e-16
8.370000e+02 7.997855e-16
8.380000e+02 8.764212e-16
8.390000e+02 9.604118e-16
8.400000e+02 1.052144e-15
8.410000e+02 1.152365e-15
8.420000e+02 1.261844e-15
8.430000e+02 1.381476e-15
8.440000e+02 1.512106e-15
8.450000e+02 1.654739e-15
8.460000e+02 1.810448e-15
8.470000e+02 1.980393e-15
8.480000e+02 2.165839e-15
8.490000e+02 2.368161e-15
8.500000e+02 2.588844e-15
8.510000e+02 2.829507e-15
8.520000e+02 3.091897e-15
8.530000e+02 3.377946e-15
8.540000e+02 3.689726e-15
8.550000e+02 4.029426e-15
8.560000e+02 4.399467e-15
8.570000e+02 4.802604e-15
8.580000e+02 5.241571e-15
8.590000e+02 5.719524e-15
8.600000e+02 6.239798e-15
8.610000e+02 6.806045e-15
8.620000e+02 7.422191e-15
8.630000e+02 8.092450e-15
8.640000e+02 8.821614e-15
8.650000e+02 9.613912e-15
8.660000e+02 1.047662e-14
8.670000e+02 1.141379e-14
8.680000e+02 1.243236e-14
8.690000e+02 1.353918e-14
8.700000e+02 1.474167e-14
8.710000e+02 1.604788e-14
8.720000e+02 1.746644e-14
8.730000e+02 1.900669e-14
8.740000e+02 2.067890e-14
8.750000e+02 2.249387e-14
8.760000e+02 2.446348e-14
8.770000e+02 2.660016e-14
8.780000e+02 2.891705e-14
8.790000e+02 3.143301e-14
8.800000e+02 3.415949e-14
8.810000e+02 3.711550e-14
8.820000e+02 4.031977e-14
8.830000e+02 4.379250e-14
8.840000e+02 4.755550e-14
8.850000e+02 5.163230e-14
8.860000e+02 5.604809e-14
8.870000e+02 6.083049e-14
8.880000e+02 6.600865e-14
8.890000e+02 7.161500e-14
8.900000e+02 7.768299e-14
8.910000e+02 8.424981e-14
8.920000e+02 9.134012e-14
8.930000e+02 9.904191e-14
8.940000e+02 1.073561e-13
8.950000e+02 1.163473e-13
8.960000e+02 1.260689e-13
8.970000e+02 1.365785e-13
8.980000e+02 1.479379e-13
8.990000e+02 1.602136e-13
9.000000e+02 1.734773e-13
9.010000e+02 1.878060e-13
9.020000e+02 2.032825e-13
9.030000e+02 2.199955e-13
9.040000e+02 2.380416e-13
9.050000e+02 2.575211e-13
9.060000e+02 2.785501e-13
9.070000e+02 3.012392e-13
9.080000e+02 3.257266e-13
9.090000e+02 3.521406e-13
9.100000e+02 3.806312e-13
9.110000e+02 4.113649e-13
9.120000e+02 4.445927e-13
9.130000e+02 4.375707e-13
9.140000e+02 1.364242e-12
9.150000e+02 3.442473e-05
9.160000e+02 3.405462e-04
9.170000e+02 3.565252e-04
9.180000e+02 3.723727e-04
9.190000e+02 3.909441e-04
9.200000e+02 4.075363e-04
9.210000e+02 8.087003e-13
9.220000e+02 4.434643e-04
9.230000e+02 4.592935e-04
9.240000e+02 4.896543e-04
9.250000e+02 4.327591e-04
9.260000e+02 5.227602e-04
9.270000e+02 5.036860e-04
9.280000e+02 5.843926e-04
9.290000e+02 1.595879e-06
9.300000e+02 7.087423e-05
9.310000e+02 6.340570e-04
9.320000e+02 6.991034e-04
9.330000e+02 7.270843e-04
9.340000e+02 6.070159e-04
9.350000e+02 8.280040e-08
9.360000e+02 7.208348e-04
9.370000e+02 9.710675e-09
9.380000e+02 5.935018e-08
9.390000e+02 9.385740e-04
9.400000e+02 9.820558e-04
9.410000e+02 3.089081e-07
9.420000e+02 1.071862e-03
9.430000e+02 4.039290e-04
9.440000e+02 6.995099e-04
9.450000e+02 1.193618e-03
9.460000e+02 1.259371e-03
9.470000e+02 6.104689e-06
9.480000e+02 5.301030e-06
9.490000e+02 1.344282e-03
9.500000e+02 5.413312e-09
9.510000e+02 1.506910e-03
9.520000e+02 1.643184e-03
9.530000e+02 1.287313e-03
9.540000e+02 2.704328e-06
9.550000e+02 1.777695e-03
9.560000e+02 3.463065e-07
9.570000e+02 8.744490e-05
9.580000e+02 4.183545e-04
9.590000e+02 2.352008e-03
9.600000e+02 4.307367e-08
9.610000e+02 2.275056e-03
9.620000e+02 2.539745e-03
9.630000e+02 2.546326e-03
9.640000e+02 9.313226e-10
9.650000e+02 5.439753e-04
9.660000e+02 3.100062e-03
9.670000e+02 2.461616e-03
9.680000e+02 2.587607e-03
9.690000e+02 3.276520e-03
9.700000e+02 3.652951e-03
9.710000e+02 3.056575e-03
9.720000e+02 1.395978e-03
9.730000e+02 1.395573e-03
9.740000e+02 3.531422e-03
9.750000e+02 4.222784e-03
9.760000e+02 4.866566e-03
9.770000e+02 5.177441e-03
9.780000e+02 5.237608e-03
9.790000e+02 5.724765e-03
9.800000e+02 5.958142e-03
9.810000e+02 6.210534e-03
9.820000e+02 6.206161e-03
9.830000e+02 6.651676e-03
9.840000e+02 8.188200e-05
9.850000e+02 2.271135e-03
9.860000e+02 6.780015e-03
9.870000e+02 8.145114e-03
9.880000e+02 2.872424e-03
9.890000e+02 6.878386e-03
9.900000e+02 1.982296e-06
9.910000e+02 6.275005e-03
9.920000e+02 2.896078e-04
9.930000e+02 5.917000e-03
9.940000e+02 1.583248e-08
9.950000e+02 6.872764e-05
9.960000e+02 5.548073e-03
9.970000e+02 7.078052e-08
9.980000e+02 1.307062e-02
9.990000e+02 5.606186e-03
1.000000e+03 1.308841e-02
1.001000e+03 8.386824e-03
1.002000e+03 1.595077e-02
1.003000e+03 1.450562e-02
1.004000e+03 7.322089e-03
1.005000e+03 1.603040e-02
1.006000e+03 1.897698e-02
1.007000e+03 1.910846e-02
1.008000e+03 1.919672e-02
1.009000e+03 1.632504e-02
1.010000e+03 2.246477e-02
1.011000e+03 2.336655e-02
1.012000e+03 2.429827e-02
1.013000e+03 2.541094e-02
1.014000e+03 7.926933e-04
1.015000e+03 6.750762e-03
1.016000e+03 2.453107e-02
1.017000e+03 1.504213e-03
1.018000e+03 2.826110e-02
1.019000e+03 1.235876e-02
1.020000e+03 3.222029e-02
1.021000e+03 2.781115e-05
1.022000e+03 9.091424e-03
1.023000e+03 1.556953e-02
1.024000e+03 7.530302e-05
1.025000e+03 1.044301e-04
1.026000e+03 1.136178e-05
1.027000e+03 5.887412e-04
1.028000e+03 1.570210e-06
1.029000e+03 1.606051e-03
1.030000e+03 1.334430e-02
1.031000e+03 4.199497e-02
1.032000e+03 1.724179e-02
1.033000e+03 8.446723e-05
1.034000e+03 5.684895e-02
1.035000e+03 4.060566e-07
1.036000e+03 1.333695e-03
1.037000e+03 6.743233e-02
1.038000e+03 7.115448e-02
1.039000e+03 6.888681e-02
1.040000e+03 7.730874e-02
1.041000e+03 5.494969e-02
1.042000e+03 8.439774e-02
1.043000e+03 4.414799e-02
1.044000e+03 9.154449e-02
1.045000e+03 9.511117e-02
1.046000e+03 9.943808e-02
1.047000e+03 1.014012e-01
1.048000e+03 6.937106e-02
1.049000e+03 6.795714e-02
1.050000e+03 1.044781e-01
1.051000e+03 1.030625e-01
1.052000e+03 1.259602e-01
1.053000e+03 1.297796e-01
1.054000e+03 2.990484e-03
1.055000e+03 3.351122e-04
1.056000e+03 1.482650e-01
1.057000e+03 1.512525e-01
1.058000e+03 1.528122e-01
1.059000e+03 1.495255e-01
1.060000e+03 9.326268e-02
1.061000e+03 1.808243e-01
1.062000e+03 1.721193e-01
1.063000e+03 2.579356e-06
1.064000e+03 2.533197e-07
1.065000e+03 1.517931e-02
1.066000e+03 8.741021e-05
1.067000e+03 3.904660e-02
1.068000e+03 2.383106e-01
1.069000e+03 5.236178e-02
1.070000e+03 2.528544e-01
1.071000e+03 2.667169e-01
1.072000e+03 2.780742e-01
1.073000e+03 4.932079e-02
1.074000e+03 2.974951e-01
1.075000e+03 2.728633e-01
1.076000e+03 7.802438e-02
1.077000e+03 4.583597e-05
1.078000e+03 3.234907e-01
1.079000e+03 3.533047e-01
1.080000e+03 3.626196e-01
1.081000e+03 3.812254e-01
1.082000e+03 3.541746e-01
1.083000e+03 9.162253e-02
1.084000e+03 3.851038e-01
1.085000e+03 2.566803e-02
1.086000e+03 4.666273e-01
1.087000e+03 3.967822e-01
1.088000e+03 4.405952e-01
1.089000e+03 5.161858e-01
1.090000e+03 5.133666e-01
1.091000e+03 3.367304e-01
1.092000e+03 1.006805e-01
1.093000e+03 5.557948e-01
1.094000e+03 5.884987e-01
1.095000e+03 6.228011e-01
1.096000e+03 6.968656e-02
1.097000e+03 4.677189e-02
1.098000e+03 9.400845e-03
1.099000e+03 6.818689e-01
1.100000e+03 8.986168e-03
1.101000e+03 4.772178e-01
1.102000e+03 1.149053e+00
1.103000e+03 1.735138e+00
1.104000e+03 1.684426e+00
1.105000e+03 6.945438e-01
1.106000e+03 4.460793e+00
1.107000e+03 1.646585e+00
1.108000e+03 2.952672e+00
1.109000e+03 5.211143e-01
1.110000e+03 2.036796e+00
1.111000e+03 1.579549e+00
1.112000e+03 2.751796e+00
1.113000e+03 5.057328e+00
1.114000e+03 6.615138e-01
1.115000e+03 4.095476e+00
1.116000e+03 3.632255e+00
1.117000e+03 1.087188e+00
1.118000e+03 1.566433e+00
1.119000e+03 5.330733e+00
1.120000e+03 4.487402e+00
1.121000e+03 5.041653e+00
1.122000e+03 1.076412e-02
1.123000e+03 1.071279e+00
1.124000e+03 5.675383e+00
1.125000e+03 4.245539e+00
1.126000e+03 5.847241e+00
1.127000e+03 4.621595e+00
1.128000e+03 3.553241e+00
1.129000e+03 5.435054e+00
1.130000e+03 1.259430e+00
1.131000e+03 6.236258e+00
1.132000e+03 2.096796e-02
1.133000e+03 4.871355e+00
1.134000e+03 1.720640e+00
1.135000e+03 8.058548e-05
1.136000e+03 6.195779e+00
1.137000e+03 6.706845e+00
1.138000e+03 6.705990e+00
1.139000e+03 6.786393e+00
1.140000e+03 4.595628e-01
1.141000e+03 7.073375e+00
1.142000e+03 7.157506e+00
1.143000e+03 6.804321e+00
1.144000e+03 7.326715e+00
1.145000e+03 2.980905e+00
1.146000e+03 7.524550e+00
1.147000e+03 7.265811e+00
1.148000e+03 7.036532e+00
1.149000e+03 7.684748e+00
1.150000e+03 7.906011e+00
1.151000e+03 7.911599e+00
1.152000e+03 8.133172e+00
1.153000e+03 3.986589e+00
1.154000e+03 7.651780e+00
1.155000e+03 8.397958e+00
1.156000e+03 1.797676e-03
1.157000e+03 8.497374e+00
1.158000e+03 3.639439e-01
1.159000e+03 3.873986e+00
1.160000e+03 8.712219e+00
1.161000e+03 9.048419e+00
1.162000e+03 9.100180e-01
1.163000e+03 9.048913e+00
1.164000e+03 8.316040e-04
1.165000e+03 9.523389e+00
1.166000e+03 9.720907e+00
1.167000e+03 9.928991e+00
1.168000e+03 9.312167e+00
1.169000e+03 9.575691e-01
1.170000e+03 1.034184e+01
1.171000e+03 1.080832e+01
1.172000e+03 1.100769e+01
1.173000e+03 1.126325e+01
1.174000e+03 8.859447e+00
1.175000e+03 1.013756e-03
1.176000e+03 1.916885e-04
1.177000e+03 1.214512e+01
1.178000e+03 1.233119e+01
1.179000e+03 1.257503e+01
1.180000e+03 1.151302e+01
1.181000e+03 1.298926e+01
1.182000e+03 1.327656e+01
1.183000e+03 1.352960e+01
1.184000e+03 1.318752e+01
1.185000e+03 1.391860e+01
1.186000e+03 5.175103e+00
1.187000e+03 1.425027e+01
1.188000e+03 1.400993e+01
1.189000e+03 1.446947e+00
1.190000e+03 3.747314e+00
1.191000e+03 1.437384e+01
1.192000e+03 1.383939e+01
1.193000e+03 2.313128e-01
1.194000e+03 2.020865e+00
1.195000e+03 1.316600e+01
1.196000e+03 1.382252e+01
1.197000e+03 4.652039e+01
1.198000e+03 4.354089e+01
1.199000e+03 3.711414e+01
1.200000e+03 3.077151e+01
1.201000e+03 3.308240e+01
1.202000e+03 3.099710e+01
1.203000e+03 5.877453e+01
1.204000e+03 4.453499e+01
1.205000e+03 3.526472e+01
1.206000e+03 3.103331e+01
1.207000e+03 6.532478e-02
1.208000e+03 1.245721e+01
1.209000e+03 6.237777e+00
1.210000e+03 1.214266e-03
1.211000e+03 1.432906e+00
1.212000e+03 4.310203e-01
1.213000e+03 1.271635e-01
1.214000e+03 1.994911e-02
1.215000e+03 1.145038e-03
1.216000e+03 1.925467e-04
1.217000e+03 9.537196e-03
1.218000e+03 8.487726e-02
1.219000e+03 3.903010e-01
1.220000e+03 1.308984e+00
1.221000e+03 3.188687e+00
1.222000e+03 7.243374e+00
1.223000e+03 1.188218e+01
1.224000e+03 2.223457e+01
1.225000e+03 3.540624e+01
1.226000e+03 5.411712e+01
1.227000e+03 2.380151e+01
1.228000e+03 1.116171e+02
1.229000e+03 1.434847e+02
1.230000e+03 1.367056e-02
1.231000e+03 1.863679e+02
1.232000e+03 2.605640e+02
1.233000e+03 3.166057e+02
1.234000e+03 1.327172e+02
1.235000e+03 4.189424e+02
1.236000e+03 4.613276e+02
1.237000e+03 5.244931e+02
1.238000e+03 5.755514e+02
1.239000e+03 6.159015e+02
1.240000e+03 7.672873e+01
1.241000e+03 8.079380e+02
1.242000e+03 6.462168e+02
1.243000e+03 8.868312e+02
1.244000e+03 6.561844e+02
1.245000e+03 3.320670e+02
1.246000e+03 1.269851e+03
1.247000e+03 1.248086e+03
1.248000e+03 9.125629e+01
1.249000e+03 8.282193e+02
1.250000e+03 1.332788e+03
1.251000e+03 1.687539e+03
1.252000e+03 1.643096e+03
1.253000e+03 1.846677e+03
1.254000e+03 1.851405e+03
1.255000e+03 1.154785e-01
1.256000e+03 1.243914e+03
1.257000e+03 1.723945e+03
1.258000e+03 1.824327e+03
1.259000e+03 2.203406e+03
1.260000e+03 1.576931e+03
1.261000e+03 2.079607e+00
1.262000e+03 7.119516e+02
1.263000e+03 6.352130e+02
1.264000e+03 1.498518e+03
1.265000e+03 4.510498e-02
1.266000e+03 2.575016e+03
1.267000e+03 2.786395e+03
