# wavelength_A flux
5.000000e+02 1.669549e-04
5.010000e+02 1.861134e-04
5.020000e+02 2.073769e-04
5.030000e+02 2.309664e-04
5.040000e+02 2.571246e-04
5.050000e+02 2.852520e-04
5.060000e+02 3.171981e-04
5.070000e+02 3.525679e-04
5.080000e+02 3.917125e-04
5.090000e+02 4.350919e-04
5.100000e+02 4.829075e-04
5.110000e+02 5.358197e-04
5.120000e+02 5.942954e-04
5.130000e+02 6.588697e-04
5.140000e+02 7.301290e-04
5.150000e+02 8.087945e-04
5.160000e+02 8.955701e-04
5.170000e+02 9.912329e-04
5.180000e+02 1.096696e-03
5.190000e+02 1.212858e-03
5.200000e+02 1.340767e-03
5.210000e+02 1.481605e-03
5.220000e+02 1.636554e-03
5.230000e+02 1.807062e-03
5.240000e+02 1.994509e-03
5.250000e+02 2.200544e-03
5.260000e+02 2.426798e-03
5.270000e+02 2.675402e-03
5.280000e+02 2.948343e-03
5.290000e+02 3.247678e-03
5.300000e+02 3.576417e-03
5.310000e+02 3.936775e-03
5.320000e+02 4.331816e-03
5.330000e+02 4.764716e-03
5.340000e+02 5.238929e-03
5.350000e+02 5.758198e-03
5.360000e+02 6.326523e-03
5.370000e+02 6.972709e-03
5.380000e+02 7.628283e-03
5.390000e+02 8.372237e-03
5.400000e+02 9.185312e-03
5.410000e+02 1.007378e-02
5.420000e+02 1.104429e-02
5.430000e+02 1.210402e-02
5.440000e+02 1.326077e-02
5.450000e+02 1.452299e-02
5.460000e+02 1.589937e-02
5.470000e+02 1.740058e-02
5.480000e+02 1.903624e-02
5.490000e+02 2.081929e-02
5.500000e+02 2.276180e-02
5.510000e+02 2.487713e-02
5.520000e+02 2.717989e-02
5.530000e+02 2.968585e-02
5.540000e+02 3.241210e-02
5.550000e+02 3.537699e-02
5.560000e+02 3.860040e-02
5.570000e+02 4.210308e-02
5.580000e+02 4.590686e-02
5.590000e+02 5.004085e-02
5.600000e+02 5.452955e-02
5.610000e+02 5.940178e-02
5.620000e+02 6.468876e-02
5.630000e+02 7.042404e-02
5.640000e+02 7.664365e-02
5.650000e+02 8.338632e-02
5.660000e+02 9.069397e-02
5.670000e+02 9.861144e-02
5.680000e+02 1.071870e-01
5.690000e+02 1.164662e-01
5.700000e+02 1.265171e-01
5.710000e+02 1.373909e-01
5.720000e+02 1.491579e-01
5.730000e+02 1.618828e-01
5.740000e+02 1.756414e-01
5.750000e+02 1.905112e-01
5.760000e+02 2.065867e-01
5.770000e+02 2.239358e-01
5.780000e+02 2.426679e-01
5.790000e+02 2.629058e-01
5.800000e+02 2.847492e-01
5.810000e+02 3.083184e-01
5.820000e+02 3.337436e-01
5.830000e+02 3.611645e-01
5.840000e+02 3.907860e-01
5.850000e+02 4.225995e-01
5.860000e+02 4.569128e-01
5.870000e+02 4.938921e-01
5.880000e+02 5.336998e-01
5.890000e+02 5.765782e-01
5.900000e+02 6.227261e-01
5.910000e+02 6.723849e-01
5.920000e+02 7.258071e-01
5.930000e+02 7.832448e-01
5.940000e+02 8.450192e-01
5.950000e+02 9.114404e-01
5.960000e+02 9.827629e-01
5.970000e+02 1.059426e+00
5.980000e+02 1.141767e+00
5.990000e+02 1.230186e+00
6.000000e+02 1.325105e+00
6.010000e+02 1.426979e+00
6.020000e+02 1.536285e+00
6.030000e+02 1.653539e+00
6.040000e+02 1.779288e+00
6.050000e+02 1.914111e+00
6.060000e+02 2.058640e+00
6.070000e+02 2.213505e+00
6.080000e+02 2.379430e+00
6.090000e+02 2.557156e+00
6.100000e+02 2.747471e+00
6.110000e+02 2.951223e+00
6.120000e+02 3.169254e+00
6.130000e+02 3.402618e+00
6.140000e+02 3.652196e+00
6.150000e+02 3.919213e+00
6.160000e+02 4.204739e+00
6.170000e+02 4.509987e+00
6.180000e+02 4.836243e+00
6.190000e+02 5.184867e+00
6.200000e+02 5.557307e+00
6.210000e+02 5.955101e+00
6.220000e+02 6.379876e+00
6.230000e+02 6.833353e+00
6.240000e+02 7.317369e+00
6.250000e+02 7.833866e+00
6.260000e+02 8.384891e+00
6.270000e+02 8.972630e+00
6.280000e+02 9.599382e+00
6.290000e+02 1.026742e+01
6.300000e+02 1.097964e+01
6.310000e+02 1.173877e+01
6.320000e+02 1.254748e+01
6.330000e+02 1.340890e+01
6.340000e+02 1.432597e+01
6.350000e+02 1.530276e+01
6.360000e+02 1.637839e+01
6.370000e+02 1.744924e+01
6.380000e+02 1.862682e+01
6.390000e+02 1.987959e+01
6.400000e+02 2.121206e+01
6.410000e+02 2.262901e+01
6.420000e+02 2.413546e+01
6.430000e+02 2.573675e+01
6.440000e+02 2.743849e+01
6.450000e+02 2.924627e+01
6.460000e+02 3.116695e+01
6.470000e+02 3.320719e+01
6.480000e+02 3.537332e+01
6.490000e+02 3.767309e+01
6.500000e+02 4.011417e+01
6.510000e+02 4.270481e+01
6.520000e+02 4.545246e+01
6.530000e+02 4.836829e+01
6.540000e+02 5.146083e+01
6.550000e+02 5.474008e+01
6.560000e+02 5.821679e+01
6.570000e+02 6.190326e+01
6.580000e+02 6.580762e+01
6.590000e+02 6.994573e+01
6.600000e+02 7.432839e+01
6.610000e+02 7.897166e+01
6.620000e+02 8.388877e+01
6.630000e+02 8.909497e+01
6.640000e+02 9.460587e+01
6.650000e+02 1.004388e+02
6.660000e+02 1.066107e+02
6.670000e+02 1.131406e+02
6.680000e+02 1.200476e+02
6.690000e+02 1.273529e+02
6.700000e+02 1.350741e+02
6.710000e+02 1.432420e+02
6.720000e+02 1.534427e+02
6.730000e+02 1.609943e+02
6.740000e+02 1.706333e+02
6.750000e+02 1.808132e+02
6.760000e+02 1.915690e+02
6.770000e+02 2.029279e+02
6.780000e+02 2.149213e+02
6.790000e+02 2.275829e+02
6.800000e+02 2.409478e+02
6.810000e+02 2.550830e+02
6.820000e+02 2.699673e+02
6.830000e+02 2.856696e+02
6.840000e+02 3.022324e+02
6.850000e+02 3.196997e+02
6.860000e+02 3.381085e+02
6.870000e+02 3.575315e+02
6.880000e+02 3.779914e+02
6.890000e+02 3.995561e+02
6.900000e+02 4.222834e+02
6.910000e+02 4.462270e+02
6.920000e+02 4.714505e+02
6.930000e+02 4.980160e+02
6.940000e+02 5.259902e+02
6.950000e+02 5.554447e+02
6.960000e+02 5.864481e+02
6.970000e+02 6.191080e+02
6.980000e+02 6.534188e+02
6.990000e+02 6.895517e+02
7.000000e+02 7.275638e+02
7.010000e+02 7.675464e+02
7.020000e+02 8.095928e+02
7.030000e+02 8.537680e+02
7.040000e+02 9.002513e+02
7.050000e+02 9.491143e+02
7.060000e+02 1.000471e+03
7.070000e+02 1.054437e+03
7.080000e+02 1.111140e+03
7.090000e+02 1.170709e+03
7.100000e+02 1.233277e+03
7.110000e+02 1.298988e+03
7.120000e+02 1.367988e+03
7.130000e+02 1.440431e+03
7.140000e+02 1.516477e+03
7.150000e+02 1.596294e+03
7.160000e+02 1.680023e+03
7.170000e+02 1.767923e+03
7.180000e+02 1.860132e+03
7.190000e+02 1.956775e+03
7.200000e+02 2.058210e+03
7.210000e+02 2.164582e+03
7.220000e+02 2.276114e+03
7.230000e+02 2.393050e+03
7.240000e+02 2.515610e+03
7.250000e+02 2.644061e+03
7.260000e+02 2.778660e+03
7.270000e+02 2.919665e+03
7.280000e+02 3.067405e+03
7.290000e+02 3.222096e+03
7.300000e+02 3.384600e+03
7.310000e+02 3.553882e+03
7.320000e+02 3.731769e+03
7.330000e+02 3.917482e+03
7.340000e+02 4.112192e+03
7.350000e+02 4.315994e+03
7.360000e+02 4.529239e+03
7.370000e+02 4.752340e+03
7.380000e+02 4.985758e+03
7.390000e+02 5.229890e+03
7.400000e+02 5.485264e+03
7.410000e+02 5.752284e+03
7.420000e+02 6.031391e+03
7.430000e+02 6.323282e+03
7.440000e+02 6.628412e+03
7.450000e+02 6.947327e+03
7.460000e+02 7.280608e+03
7.470000e+02 7.628629e+03
7.480000e+02 7.992457e+03
7.490000e+02 8.372524e+03
7.500000e+02 8.769523e+03
7.510000e+02 9.184108e+03
7.520000e+02 9.617047e+03
7.530000e+02 1.006908e+04
7.540000e+02 1.054088e+04
7.550000e+02 1.103350e+04
7.560000e+02 1.154750e+04
7.570000e+02 1.208414e+04
7.580000e+02 1.264384e+04
7.590000e+02 1.322804e+04
7.600000e+02 1.383722e+04
7.610000e+02 1.447226e+04
7.620000e+02 1.513504e+04
7.630000e+02 1.582621e+04
7.640000e+02 1.654687e+04
7.650000e+02 1.729821e+04
7.660000e+02 1.808139e+04
7.670000e+02 1.889773e+04
7.680000e+02 1.974875e+04
7.690000e+02 2.063498e+04
7.700000e+02 2.155865e+04
7.710000e+02 2.252095e+04
7.720000e+02 2.352321e+04
7.730000e+02 2.456727e+04
7.740000e+02 2.565459e+04
7.750000e+02 2.678595e+04
7.760000e+02 2.796645e+04
7.770000e+02 2.919205e+04
7.780000e+02 3.046954e+04
7.790000e+02 3.179922e+04
7.800000e+02 3.318303e+04
7.810000e+02 3.462300e+04
7.820000e+02 3.612127e+04
7.830000e+02 3.767969e+04
7.840000e+02 3.930130e+04
7.850000e+02 4.098781e+04
7.860000e+02 4.274182e+04
7.870000e+02 4.456554e+04
7.880000e+02 4.646127e+04
7.890000e+02 4.843300e+04
7.900000e+02 5.048307e+04
7.910000e+02 5.261325e+04
7.920000e+02 5.482750e+04
7.930000e+02 5.712862e+04
7.940000e+02 5.951979e+04
7.950000e+02 6.200407e+04
7.960000e+02 6.458493e+04
7.970000e+02 6.726587e+04
7.980000e+02 7.005066e+04
7.990000e+02 7.294231e+04
8.000000e+02 7.594534e+04
8.010000e+02 7.906351e+04
8.020000e+02 8.230070e+04
8.030000e+02 8.566107e+04
8.040000e+02 8.914918e+04
8.050000e+02 9.276966e+04
8.060000e+02 9.652693e+04
8.070000e+02 1.004258e+05
8.080000e+02 1.044711e+05
8.090000e+02 1.086670e+05
8.100000e+02 1.130207e+05
8.110000e+02 1.175366e+05
8.120000e+02 1.222210e+05
8.130000e+02 1.270772e+05
8.140000e+02 1.321137e+05
8.150000e+02 1.373371e+05
8.160000e+02 1.427496e+05
8.170000e+02 1.483624e+05
8.180000e+02 1.541790e+05
8.190000e+02 1.602081e+05
8.200000e+02 1.664563e+05
8.210000e+02 1.729307e+05
8.220000e+02 1.796391e+05
8.230000e+02 1.865898e+05
8.240000e+02 1.937889e+05
8.250000e+02 2.012466e+05
8.260000e+02 2.089707e+05
8.270000e+02 2.169700e+05
8.280000e+02 2.252535e+05
8.290000e+02 2.338305e+05
8.300000e+02 2.427115e+05
8.310000e+02 2.519045e+05
8.320000e+02 2.614190e+05
8.330000e+02 2.712669e+05
8.340000e+02 2.814600e+05
8.350000e+02 2.920948e+05
8.360000e+02 3.029353e+05
8.370000e+02 3.142186e+05
8.380000e+02 3.259019e+05
8.390000e+02 3.379888e+05
8.400000e+02 3.504912e+05
8.410000e+02 3.634237e+05
8.420000e+02 3.768523e+05
8.430000e+02 3.906249e+05
8.440000e+02 4.049244e+05
8.450000e+02 4.197087e+05
8.460000e+02 4.349944e+05
8.470000e+02 4.507937e+05
8.480000e+02 4.671252e+05
8.490000e+02 4.840047e+05
8.500000e+02 5.014489e+05
8.510000e+02 5.194752e+05
8.520000e+02 5.381034e+05
8.530000e+02 5.573488e+05
8.540000e+02 5.772251e+05
8.550000e+02 5.977626e+05
8.560000e+02 6.189769e+05
8.570000e+02 6.408812e+05
8.580000e+02 6.635096e+05
8.590000e+02 6.868709e+05
8.600000e+02 7.109981e+05
8.610000e+02 7.359092e+05
8.620000e+02 7.616274e+05
8.630000e+02 7.881770e+05
8.640000e+02 8.155814e+05
8.650000e+02 8.438802e+05
8.660000e+02 8.730715e+05
8.670000e+02 9.032001e+05
8.680000e+02 9.342866e+05
8.690000e+02 9.663631e+05
8.700000e+02 9.994770e+05
8.710000e+02 1.033595e+06
8.720000e+02 1.068811e+06
8.730000e+02 1.105136e+06
8.740000e+02 1.142600e+06
8.750000e+02 1.181237e+06
8.760000e+02 1.221081e+06
8.770000e+02 1.262165e+06
8.780000e+02 1.304523e+06
8.790000e+02 1.348182e+06
8.800000e+02 1.393204e+06
8.810000e+02 1.439611e+06
8.820000e+02 1.487446e+06
8.830000e+02 1.536745e+06
8.840000e+02 1.587555e+06
8.850000e+02 1.639904e+06
8.860000e+02 1.693852e+06
8.870000e+02 1.749434e+06
8.880000e+02 1.806701e+06
8.890000e+02 1.865696e+06
8.900000e+02 1.926465e+06
8.910000e+02 1.989060e+06
8.920000e+02 2.076126e+06
8.930000e+02 2.119924e+06
8.940000e+02 2.188296e+06
8.950000e+02 2.258709e+06
8.960000e+02 2.331190e+06
8.970000e+02 2.405823e+06
8.980000e+02 2.482663e+06
8.990000e+02 2.561760e+06
9.000000e+02 2.643174e+06
9.010000e+02 2.726943e+06
9.020000e+02 2.813182e+06
9.030000e+02 2.901930e+06
9.040000e+02 2.993522e+06
9.050000e+02 3.087229e+06
9.060000e+02 3.183911e+06
9.070000e+02 3.283570e+06
9.080000e+02 3.385711e+06
9.090000e+02 3.490949e+06
9.100000e+02 3.599221e+06
9.110000e+02 3.710571e+06
9.120000e+02 3.825058e+06
9.130000e+02 3.991864e+06
9.140000e+02 4.061647e+06
9.150000e+02 1.377032e+07
9.160000e+02 8.199600e+07
9.170000e+02 2.712784e+08
9.180000e+02 1.964936e+08
9.190000e+02 4.734120e+08
9.200000e+02 6.050238e+08
9.210000e+02 5.462117e+06
9.220000e+02 6.820122e+08
9.230000e+02 2.608504e+08
9.240000e+02 2.436690e+08
9.250000e+02 7.003743e+08
9.260000e+02 4.096476e+08
9.270000e+02 7.491685e+08
9.280000e+02 8.115139e+08
9.290000e+02 3.124792e+08
9.300000e+02 7.582853e+08
9.310000e+02 4.895573e+08
9.320000e+02 8.809658e+08
9.330000e+02 8.926767e+08
9.340000e+02 9.358044e+08
9.350000e+02 3.438573e+08
9.360000e+02 9.517666e+08
9.370000e+02 2.160171e+08
9.380000e+02 2.692129e+08
9.390000e+02 1.006576e+09
9.400000e+02 1.053057e+09
9.410000e+02 7.994799e+08
9.420000e+02 1.096044e+09
9.430000e+02 1.115981e+09
9.440000e+02 2.821348e+08
9.450000e+02 1.149654e+09
9.460000e+02 1.183806e+09
9.470000e+02 3.873111e+08
9.480000e+02 1.215590e+09
9.490000e+02 1.109916e+09
9.500000e+02 1.310099e+08
9.510000e+02 9.132271e+08
9.520000e+02 1.327220e+09
9.530000e+02 1.344252e+09
9.540000e+02 6.418275e+08
9.550000e+02 1.418640e+09
9.560000e+02 1.458144e+09
9.570000e+02 1.274417e+09
9.580000e+02 1.433864e+09
9.590000e+02 1.544091e+09
9.600000e+02 3.318077e+08
9.610000e+02 1.619523e+09
9.620000e+02 1.579731e+09
9.630000e+02 1.680764e+09
9.640000e+02 1.769178e+07
9.650000e+02 1.127751e+09
9.660000e+02 1.774461e+09
9.670000e+02 1.794296e+09
9.680000e+02 1.721251e+09
9.690000e+02 1.819818e+09
9.700000e+02 1.866931e+09
9.710000e+02 1.809517e+09
9.720000e+02 1.116215e+09
9.730000e+02 1.020480e+09
9.740000e+02 1.864954e+09
9.750000e+02 2.041626e+09
9.760000e+02 2.117928e+09
9.770000e+02 2.157486e+09
9.780000e+02 2.198488e+09
9.790000e+02 2.254183e+09
9.800000e+02 2.299809e+09
9.810000e+02 2.344778e+09
9.820000e+02 2.237407e+09
9.830000e+02 2.424840e+09
9.840000e+02 1.869332e+08
9.850000e+02 2.519942e+09
9.860000e+02 2.563602e+09
9.870000e+02 2.591461e+09
9.880000e+02 2.528047e+09
9.890000e+02 5.572041e+08
9.900000e+02 4.177591e+07
9.910000e+02 2.691272e+09
9.920000e+02 2.379289e+09
9.930000e+02 2.444789e+09
9.940000e+02 2.070723e+08
9.950000e+02 9.755642e+07
9.960000e+02 1.312727e+08
9.970000e+02 1.535150e+08
9.980000e+02 3.108478e+09
9.990000e+02 2.969705e+09
1.000000e+03 3.282329e+09
1.001000e+03 3.340945e+09
1.002000e+03 3.385601e+09
1.003000e+03 1.619095e+09
1.004000e+03 3.515806e+09
1.005000e+03 2.015768e+09
1.006000e+03 3.634271e+09
1.007000e+03 3.697052e+09
1.008000e+03 3.743706e+09
1.009000e+03 2.791362e+09
1.010000e+03 3.878685e+09
1.011000e+03 3.941880e+09
1.012000e+03 3.992743e+09
1.013000e+03 4.065905e+09
1.014000e+03 4.131951e+09
1.015000e+03 3.665477e+09
1.016000e+03 4.211112e+09
1.017000e+03 4.302789e+09
1.018000e+03 4.353576e+09
1.019000e+03 4.395538e+09
1.020000e+03 4.410386e+09
1.021000e+03 3.927932e+09
1.022000e+03 4.324857e+09
1.023000e+03 4.128757e+09
1.024000e+03 3.285006e+09
1.025000e+03 1.159494e+09
1.026000e+03 2.440143e+08
1.027000e+03 2.642822e+09
1.028000e+03 1.257823e+09
1.029000e+03 4.833309e+09
1.030000e+03 4.698704e+09
1.031000e+03 5.406898e+09
1.032000e+03 5.163638e+09
1.033000e+03 3.446629e+09
1.034000e+03 5.848646e+09
1.035000e+03 9.083069e+08
1.036000e+03 5.840588e+09
1.037000e+03 1.181353e+08
1.038000e+03 6.277290e+09
1.039000e+03 6.065265e+09
1.040000e+03 6.541693e+09
1.041000e+03 6.605693e+09
1.042000e+03 5.072339e+09
1.043000e+03 6.816314e+09
1.044000e+03 6.770857e+09
1.045000e+03 7.050900e+09
1.046000e+03 7.198954e+09
1.047000e+03 7.328066e+09
1.048000e+03 6.901850e+09
1.049000e+03 7.385291e+09
1.050000e+03 7.710005e+09
1.051000e+03 7.832904e+09
1.052000e+03 7.954341e+09
1.053000e+03 6.738220e+09
1.054000e+03 8.199346e+09
1.055000e+03 8.328681e+09
1.056000e+03 8.466153e+09
1.057000e+03 8.562302e+09
1.058000e+03 8.713382e+09
1.059000e+03 8.859785e+09
1.060000e+03 8.999831e+09
1.061000e+03 9.138980e+09
1.062000e+03 9.275758e+09
1.063000e+03 6.623343e+09
1.064000e+03 1.033923e+09
1.065000e+03 1.073970e+10
1.066000e+03 1.084287e+10
1.067000e+03 7.346721e+09
1.068000e+03 1.126366e+10
1.069000e+03 1.143661e+10
1.070000e+03 9.753506e+09
1.071000e+03 1.186294e+10
1.072000e+03 1.202188e+10
1.073000e+03 1.222112e+10
1.074000e+03 1.238503e+10
1.075000e+03 1.248307e+10
1.076000e+03 1.276644e+10
1.077000e+03 1.292131e+10
1.078000e+03 1.313403e+10
1.079000e+03 1.295900e+10
1.080000e+03 1.335835e+10
1.081000e+03 1.373376e+10
1.082000e+03 1.388532e+10
1.083000e+03 1.411927e+10
1.084000e+03 1.998676e+09
1.085000e+03 8.600662e+09
1.086000e+03 1.476354e+10
1.087000e+03 1.492977e+10
1.088000e+03 1.490102e+10
1.089000e+03 1.533822e+10
1.090000e+03 1.548244e+10
1.091000e+03 1.582774e+10
1.092000e+03 1.606730e+10
1.093000e+03 1.621913e+10
1.094000e+03 1.654386e+10
1.095000e+03 1.650612e+10
1.096000e+03 1.699689e+10
1.097000e+03 1.655322e+10
1.098000e+03 1.583690e+10
1.099000e+03 1.757738e+10
1.100000e+03 1.673644e+10
1.101000e+03 1.647154e+10
1.102000e+03 3.607678e+10
1.103000e+03 1.005302e+11
1.104000e+03 3.751766e+10
1.105000e+03 1.755616e+10
1.106000e+03 1.973848e+11
1.107000e+03 1.801596e+11
1.108000e+03 2.025121e+11
1.109000e+03 5.926439e+10
1.110000e+03 8.684569e+09
1.111000e+03 3.921904e+10
1.112000e+03 1.743605e+11
1.113000e+03 2.122766e+11
1.114000e+03 1.230420e+10
1.115000e+03 1.926536e+11
1.116000e+03 2.096625e+11
1.117000e+03 1.241525e+10
1.118000e+03 1.509320e+11
1.119000e+03 2.130249e+11
1.120000e+03 2.193920e+11
1.121000e+03 7.527073e+10
1.122000e+03 8.738898e+08
1.123000e+03 3.480659e+10
1.124000e+03 2.196936e+11
1.125000e+03 3.519796e+10
1.126000e+03 2.281912e+11
1.127000e+03 1.992781e+11
1.128000e+03 1.187589e+11
1.129000e+03 2.324279e+11
1.130000e+03 8.131192e+10
1.131000e+03 2.451546e+11
1.132000e+03 2.255503e+09
1.133000e+03 2.124454e+11
1.134000e+03 2.235003e+11
1.135000e+03 1.443430e+09
1.136000e+03 2.245398e+11
1.137000e+03 2.577936e+11
1.138000e+03 2.681177e+11
1.139000e+03 2.637566e+11
1.140000e+03 2.792440e+09
1.141000e+03 2.762576e+11
1.142000e+03 1.800202e+11
1.143000e+03 2.743616e+11
1.144000e+03 2.792393e+11
1.145000e+03 1.483872e+11
1.146000e+03 2.760994e+11
1.147000e+03 2.684348e+11
1.148000e+03 2.745995e+11
1.149000e+03 2.900191e+11
1.150000e+03 2.186696e+11
1.151000e+03 2.859933e+11
1.152000e+03 2.754707e+11
1.153000e+03 2.685714e+10
1.154000e+03 3.207692e+09
1.155000e+03 1.852828e+11
1.156000e+03 1.157863e+11
1.157000e+03 3.079411e+11
1.158000e+03 5.756289e+09
1.159000e+03 2.562961e+11
1.160000e+03 3.011480e+11
1.161000e+03 3.224960e+11
1.162000e+03 1.089002e+10
1.163000e+03 2.528958e+11
1.164000e+03 1.523685e+10
1.165000e+03 3.293548e+11
1.166000e+03 2.969812e+11
1.167000e+03 2.030329e+11
1.168000e+03 3.332202e+11
1.169000e+03 3.181084e+11
1.170000e+03 3.375325e+11
1.171000e+03 3.386073e+11
1.172000e+03 2.410198e+11
1.173000e+03 3.346036e+11
1.174000e+03 2.978181e+11
1.175000e+03 1.441454e+10
1.176000e+03 6.730449e+09
1.177000e+03 3.084360e+11
1.178000e+03 2.227223e+11
1.179000e+03 3.342380e+11
1.180000e+03 1.924190e+11
1.181000e+03 2.920703e+11
1.182000e+03 3.332163e+11
1.183000e+03 3.292276e+11
1.184000e+03 3.287050e+11
1.185000e+03 2.671184e+11
1.186000e+03 3.211789e+11
1.187000e+03 3.176685e+11
1.188000e+03 2.532942e+11
1.189000e+03 5.230715e+09
1.190000e+03 8.784114e+10
1.191000e+03 2.741589e+11
1.192000e+03 2.755980e+11
1.193000e+03 2.786329e+09
1.194000e+03 6.313345e+09
1.195000e+03 6.509328e+10
1.196000e+03 2.429919e+11
1.197000e+03 2.208886e+11
1.198000e+03 2.269948e+11
1.199000e+03 2.120166e+11
1.200000e+03 1.728112e+11
1.201000e+03 1.822144e+11
1.202000e+03 1.755371e+11
1.203000e+03 1.619729e+11
1.204000e+03 1.404331e+11
1.205000e+03 1.267934e+11
1.206000e+03 8.321086e+10
1.207000e+03 7.818528e+10
1.208000e+03 7.472376e+10
1.209000e+03 5.389119e+10
1.210000e+03 1.210794e+10
1.211000e+03 3.086377e+10
1.212000e+03 2.010605e+10
1.213000e+03 1.209067e+10
1.214000e+03 6.831733e+09
1.215000e+03 4.019903e+09
1.216000e+03 3.497402e+09
1.217000e+03 5.864447e+09
1.218000e+03 1.069486e+10
1.219000e+03 1.878113e+10
1.220000e+03 3.034567e+10
1.221000e+03 4.523021e+10
1.222000e+03 6.309095e+10
1.223000e+03 8.353702e+10
1.224000e+03 1.061314e+11
1.225000e+03 1.305174e+11
1.226000e+03 1.537776e+11
1.227000e+03 1.825684e+11
1.228000e+03 2.119611e+11
1.229000e+03 2.387757e+11
1.230000e+03 2.670051e+11
1.231000e+03 2.995870e+11
1.232000e+03 3.300454e+11
1.233000e+03 3.603067e+11
1.234000e+03 1.975191e+11
1.235000e+03 4.173758e+11
1.236000e+03 4.500699e+11
1.237000e+03 4.763759e+11
1.238000e+03 5.077696e+11
1.239000e+03 5.375735e+11
1.240000e+03 5.356186e+11
1.241000e+03 7.239998e+11
1.242000e+03 5.549741e+11
1.243000e+03 7.076674e+11
1.244000e+03 3.553253e+11
1.245000e+03 5.637736e+11
1.246000e+03 9.592227e+11
1.247000e+03 1.098644e+12
1.248000e+03 4.627083e+11
1.249000e+03 5.608108e+11
1.250000e+03 1.277099e+12
1.251000e+03 1.275967e+12
1.252000e+03 1.245794e+12
1.253000e+03 1.465586e+12
1.254000e+03 1.490389e+12
1.255000e+03 1.513519e+12
1.256000e+03 1.570657e+12
1.257000e+03 1.711311e+12
1.258000e+03 1.696930e+12
1.259000e+03 1.551567e+12
1.260000e+03 1.215779e+12
1.261000e+03 9.466184e+09
1.262000e+03 3.123143e+11
1.263000e+03 1.952029e+12
1.264000e+03 1.573982e+12
1.265000e+03 6.998327e+09
1.266000e+03 2.024814e+12
1.267000e+03 2.310625e+12
