# wavelength_A flux
5.000000e+02 1.906548e-30
5.010000e+02 2.394963e-30
5.020000e+02 3.005708e-30
5.030000e+02 3.768720e-30
5.040000e+02 4.721093e-30
5.050000e+02 5.911946e-30
5.060000e+02 7.392329e-30
5.070000e+02 9.235008e-30
5.080000e+02 1.152682e-29
5.090000e+02 1.437450e-29
5.100000e+02 1.790166e-29
5.110000e+02 2.229511e-29
5.120000e+02 2.772964e-29
5.130000e+02 3.445942e-29
5.140000e+02 4.278519e-29
5.150000e+02 5.307693e-29
5.160000e+02 6.578810e-29
5.170000e+02 8.147433e-29
5.180000e+02 1.008156e-28
5.190000e+02 1.246437e-28
5.200000e+02 1.539751e-28
5.210000e+02 1.900511e-28
5.220000e+02 2.343855e-28
5.230000e+02 2.888273e-28
5.240000e+02 3.556234e-28
5.250000e+02 4.375126e-28
5.260000e+02 5.378247e-28
5.270000e+02 6.606070e-28
5.280000e+02 8.107736e-28
5.290000e+02 9.942876e-28
5.300000e+02 1.218381e-27
5.310000e+02 1.491810e-27
5.320000e+02 1.825180e-27
5.330000e+02 2.231320e-27
5.340000e+02 2.725736e-27
5.350000e+02 3.327156e-27
5.360000e+02 4.058187e-27
5.370000e+02 4.945497e-27
5.380000e+02 6.023730e-27
5.390000e+02 7.330674e-27
5.400000e+02 8.914542e-27
5.410000e+02 1.083260e-26
5.420000e+02 1.315367e-26
5.430000e+02 1.596038e-26
5.440000e+02 1.935189e-26
5.450000e+02 2.344711e-26
5.460000e+02 2.838850e-26
5.470000e+02 3.434669e-26
5.480000e+02 4.152581e-26
5.490000e+02 5.016998e-26
5.500000e+02 6.057089e-26
5.510000e+02 7.307686e-26
5.520000e+02 8.810354e-26
5.530000e+02 1.061466e-25
5.540000e+02 1.277967e-25
5.550000e+02 1.537573e-25
5.560000e+02 1.848655e-25
5.570000e+02 2.221170e-25
5.580000e+02 2.666951e-25
5.590000e+02 3.200053e-25
5.600000e+02 3.837158e-25
5.610000e+02 4.598056e-25
5.620000e+02 5.506205e-25
5.630000e+02 6.589397e-25
5.640000e+02 7.880531e-25
5.650000e+02 9.418538e-25
5.660000e+02 1.124945e-24
5.670000e+02 1.342765e-24
5.680000e+02 1.601737e-24
5.690000e+02 1.909444e-24
5.700000e+02 2.274824e-24
5.710000e+02 2.708420e-24
5.720000e+02 3.222645e-24
5.730000e+02 3.832118e-24
5.740000e+02 4.554038e-24
5.750000e+02 5.408627e-24
5.760000e+02 6.419653e-24
5.770000e+02 7.615032e-24
5.780000e+02 9.027525e-24
5.790000e+02 1.069557e-23
5.800000e+02 1.266423e-23
5.810000e+02 1.498631e-23
5.820000e+02 1.772364e-23
5.830000e+02 2.094859e-23
5.840000e+02 2.474579e-23
5.850000e+02 2.921426e-23
5.860000e+02 3.446956e-23
5.870000e+02 4.064672e-23
5.880000e+02 4.790331e-23
5.890000e+02 5.642311e-23
5.900000e+02 6.642037e-23
5.910000e+02 7.814471e-23
5.920000e+02 9.188681e-23
5.930000e+02 1.079850e-22
5.940000e+02 1.268327e-22
5.950000e+02 1.488875e-22
5.960000e+02 1.746809e-22
5.970000e+02 2.048302e-22
5.980000e+02 2.400520e-22
5.990000e+02 2.811774e-22
6.000000e+02 3.291703e-22
6.010000e+02 3.851474e-22
6.020000e+02 4.504026e-22
6.030000e+02 5.264332e-22
6.040000e+02 6.149721e-22
6.050000e+02 7.180231e-22
6.060000e+02 8.379024e-22
6.070000e+02 9.772859e-22
6.080000e+02 1.139263e-21
6.090000e+02 1.327401e-21
6.100000e+02 1.545811e-21
6.110000e+02 1.799238e-21
6.120000e+02 2.093145e-21
6.130000e+02 2.433829e-21
6.140000e+02 2.828535e-21
6.150000e+02 3.285603e-21
6.160000e+02 3.814623e-21
6.170000e+02 4.426621e-21
6.180000e+02 5.134265e-21
6.190000e+02 5.952102e-21
6.200000e+02 6.896834e-21
6.210000e+02 7.987621e-21
6.220000e+02 9.246439e-21
6.230000e+02 1.069848e-20
6.240000e+02 1.237259e-20
6.250000e+02 1.430184e-20
6.260000e+02 1.652405e-20
6.270000e+02 1.908251e-20
6.280000e+02 2.202672e-20
6.290000e+02 2.541326e-20
6.300000e+02 2.930681e-20
6.310000e+02 3.378118e-20
6.320000e+02 3.892069e-20
6.330000e+02 4.482151e-20
6.340000e+02 5.159333e-20
6.350000e+02 5.936121e-20
6.360000e+02 6.826767e-20
6.370000e+02 7.847502e-20
6.380000e+02 9.016806e-20
6.390000e+02 1.035571e-19
6.400000e+02 1.188814e-19
6.410000e+02 1.364129e-19
6.420000e+02 1.564609e-19
6.430000e+02 1.793765e-19
6.440000e+02 2.055587e-19
6.450000e+02 2.354601e-19
6.460000e+02 2.695945e-19
6.470000e+02 3.085445e-19
6.480000e+02 3.529706e-19
6.490000e+02 4.036212e-19
6.500000e+02 4.613443e-19
6.510000e+02 5.270998e-19
6.520000e+02 6.019743e-19
6.530000e+02 6.871969e-19
6.540000e+02 7.841580e-19
6.550000e+02 8.944288e-19
6.560000e+02 1.019785e-18
6.570000e+02 1.162233e-18
6.580000e+02 1.324038e-18
6.590000e+02 1.507754e-18
6.600000e+02 1.716266e-18
6.610000e+02 1.952826e-18
6.620000e+02 2.221100e-18
6.630000e+02 2.525219e-18
6.640000e+02 2.869837e-18
6.650000e+02 3.260193e-18
6.660000e+02 3.702187e-18
6.670000e+02 4.202452e-18
6.680000e+02 4.768454e-18
6.690000e+02 5.408583e-18
6.700000e+02 6.132270e-18
6.710000e+02 6.950109e-18
6.720000e+02 7.873998e-18
6.730000e+02 8.917297e-18
6.740000e+02 1.009499e-17
6.750000e+02 1.142390e-17
6.760000e+02 1.292287e-17
6.770000e+02 1.461304e-17
6.780000e+02 1.651810e-17
6.790000e+02 1.866458e-17
6.800000e+02 2.108218e-17
6.810000e+02 2.380416e-17
6.820000e+02 2.686772e-17
6.830000e+02 3.031448e-17
6.840000e+02 3.419097e-17
6.850000e+02 3.854922e-17
6.860000e+02 4.344735e-17
6.870000e+02 4.895027e-17
6.880000e+02 5.513047e-17
6.890000e+02 6.206887e-17
6.900000e+02 6.985577e-17
6.910000e+02 7.859186e-17
6.920000e+02 8.838944e-17
6.930000e+02 9.937369e-17
6.940000e+02 1.116841e-16
6.950000e+02 1.254760e-16
6.960000e+02 1.409226e-16
6.970000e+02 1.582162e-16
6.980000e+02 1.775714e-16
6.990000e+02 1.992265e-16
7.000000e+02 2.234468e-16
7.010000e+02 2.505269e-16
7.020000e+02 2.807947e-16
7.030000e+02 3.146139e-16
7.040000e+02 3.523889e-16
7.050000e+02 3.945686e-16
7.060000e+02 4.416512e-16
7.070000e+02 4.941894e-16
7.080000e+02 5.527963e-16
7.090000e+02 6.181520e-16
7.100000e+02 6.910101e-16
7.110000e+02 7.722059e-16
7.120000e+02 8.626647e-16
7.130000e+02 9.634111e-16
7.140000e+02 1.075580e-15
7.150000e+02 1.200427e-15
7.160000e+02 1.339341e-15
7.170000e+02 1.493860e-15
7.180000e+02 1.665682e-15
7.190000e+02 1.856687e-15
7.200000e+02 2.068951e-15
7.210000e+02 2.304767e-15
7.220000e+02 2.566669e-15
7.230000e+02 2.857454e-15
7.240000e+02 3.180210e-15
7.250000e+02 3.538342e-15
7.260000e+02 3.935611e-15
7.270000e+02 4.376161e-15
7.280000e+02 4.864561e-15
7.290000e+02 5.405849e-15
7.300000e+02 6.005574e-15
7.310000e+02 6.669849e-15
7.320000e+02 7.405408e-15
7.330000e+02 8.219663e-15
7.340000e+02 9.120769e-15
7.350000e+02 1.011771e-14
7.360000e+02 1.122034e-14
7.370000e+02 1.243954e-14
7.380000e+02 1.378723e-14
7.390000e+02 1.527654e-14
7.400000e+02 1.692188e-14
7.410000e+02 1.873908e-14
7.420000e+02 2.074553e-14
7.430000e+02 2.296032e-14
7.440000e+02 2.540441e-14
7.450000e+02 2.810078e-14
7.460000e+02 3.107465e-14
7.470000e+02 3.435369e-14
7.480000e+02 3.796820e-14
7.490000e+02 4.195143e-14
7.500000e+02 4.633980e-14
7.510000e+02 5.117320e-14
7.520000e+02 5.649534e-14
7.530000e+02 6.235405e-14
7.540000e+02 6.880171e-14
7.550000e+02 7.589563e-14
7.560000e+02 8.369852e-14
7.570000e+02 9.227895e-14
7.580000e+02 1.017119e-13
7.590000e+02 1.120795e-13
7.600000e+02 1.234712e-13
7.610000e+02 1.359849e-13
7.620000e+02 1.497277e-13
7.630000e+02 1.648163e-13
7.640000e+02 1.813783e-13
7.650000e+02 1.995530e-13
7.660000e+02 2.194921e-13
7.670000e+02 2.413616e-13
7.680000e+02 2.653422e-13
7.690000e+02 2.916310e-13
7.700000e+02 3.204431e-13
7.710000e+02 3.520127e-13
7.720000e+02 3.865952e-13
7.730000e+02 4.244686e-13
7.740000e+02 4.659358e-13
7.750000e+02 5.113269e-13
7.760000e+02 5.610008e-13
7.770000e+02 6.153485e-13
7.780000e+02 6.747951e-13
7.790000e+02 7.398033e-13
7.800000e+02 8.108764e-13
7.810000e+02 8.885614e-13
7.820000e+02 9.734532e-13
7.830000e+02 1.066198e-12
7.840000e+02 1.167499e-12
7.850000e+02 1.278118e-12
7.860000e+02 1.398885e-12
7.870000e+02 1.530699e-12
7.880000e+02 1.674537e-12
7.890000e+02 1.831461e-12
7.900000e+02 2.002619e-12
7.910000e+02 2.189260e-12
7.920000e+02 2.392739e-12
7.930000e+02 2.614524e-12
7.940000e+02 2.856204e-12
7.950000e+02 3.119507e-12
7.960000e+02 3.406301e-12
7.970000e+02 3.718611e-12
7.980000e+02 4.058632e-12
7.990000e+02 4.428739e-12
8.000000e+02 4.831503e-12
8.010000e+02 5.269710e-12
8.020000e+02 5.746371e-12
8.030000e+02 6.264749e-12
8.040000e+02 6.828369e-12
8.050000e+02 7.441046e-12
8.060000e+02 8.106904e-12
8.070000e+02 8.830403e-12
8.080000e+02 9.616362e-12
8.090000e+02 1.046999e-11
8.100000e+02 1.139691e-11
8.110000e+02 1.240320e-11
8.120000e+02 1.349543e-11
8.130000e+02 1.468068e-11
8.140000e+02 1.596660e-11
8.150000e+02 1.736145e-11
8.160000e+02 1.887414e-11
8.170000e+02 2.051428e-11
8.180000e+02 2.229224e-11
8.190000e+02 2.421919e-11
8.200000e+02 2.630719e-11
8.210000e+02 2.856924e-11
8.220000e+02 3.101934e-11
8.230000e+02 3.367257e-11
8.240000e+02 3.654520e-11
8.250000e+02 3.965473e-11
8.260000e+02 4.302002e-11
8.270000e+02 4.666137e-11
8.280000e+02 5.060063e-11
8.290000e+02 5.486133e-11
8.300000e+02 5.946878e-11
8.310000e+02 6.445019e-11
8.320000e+02 6.983486e-11
8.330000e+02 7.565429e-11
8.340000e+02 8.194233e-11
8.350000e+02 8.873541e-11
8.360000e+02 9.607264e-11
8.370000e+02 1.039961e-10
8.380000e+02 1.125509e-10
8.390000e+02 1.217856e-10
8.400000e+02 1.317523e-10
8.410000e+02 1.425071e-10
8.420000e+02 1.541099e-10
8.430000e+02 1.666253e-10
8.440000e+02 1.801225e-10
8.450000e+02 1.946757e-10
8.460000e+02 2.103647e-10
8.470000e+02 2.272749e-10
8.480000e+02 2.454979e-10
8.490000e+02 2.651320e-10
8.500000e+02 2.862826e-10
8.510000e+02 3.090625e-10
8.520000e+02 3.335928e-10
8.530000e+02 3.600032e-10
8.540000e+02 3.884325e-10
8.550000e+02 4.190294e-10
8.560000e+02 4.519533e-10
8.570000e+02 4.873746e-10
8.580000e+02 5.254762e-10
8.590000e+02 5.664533e-10
8.600000e+02 6.105150e-10
8.610000e+02 6.578851e-10
8.620000e+02 7.088031e-10
8.630000e+02 7.635249e-10
8.640000e+02 8.223243e-10
8.650000e+02 8.854940e-10
8.660000e+02 9.533470e-10
8.670000e+02 1.026218e-09
8.680000e+02 1.104464e-09
8.690000e+02 1.188467e-09
8.700000e+02 1.278635e-09
8.710000e+02 1.375404e-09
8.720000e+02 1.479240e-09
8.730000e+02 1.590639e-09
8.740000e+02 1.710131e-09
8.750000e+02 1.838284e-09
8.760000e+02 1.975702e-09
8.770000e+02 2.123029e-09
8.780000e+02 2.280953e-09
8.790000e+02 2.450209e-09
8.800000e+02 2.631580e-09
8.810000e+02 2.825900e-09
8.820000e+02 3.034058e-09
8.830000e+02 3.257005e-09
8.840000e+02 3.495751e-09
8.850000e+02 3.751373e-09
8.860000e+02 4.025021e-09
8.870000e+02 4.317918e-09
8.880000e+02 4.631365e-09
8.890000e+02 4.966752e-09
8.900000e+02 5.325557e-09
8.910000e+02 5.709352e-09
8.920000e+02 6.119812e-09
8.930000e+02 6.558720e-09
8.940000e+02 7.027974e-09
8.950000e+02 7.529590e-09
8.960000e+02 8.065718e-09
8.970000e+02 8.638641e-09
8.980000e+02 9.250789e-09
8.990000e+02 9.904744e-09
9.000000e+02 1.060325e-08
9.010000e+02 1.134924e-08
9.020000e+02 1.214580e-08
9.030000e+02 1.299623e-08
9.040000e+02 1.390405e-08
9.050000e+02 1.487296e-08
9.060000e+02 1.590694e-08
9.070000e+02 1.701017e-08
9.080000e+02 1.818712e-08
9.090000e+02 1.944252e-08
9.100000e+02 2.078141e-08
9.110000e+02 2.220911e-08
9.120000e+02 2.373130e-08
9.130000e+02 2.535399e-08
9.140000e+02 2.715933e-08
9.150000e+02 5.062224e-06
9.160000e+02 3.807030e-05
9.170000e+02 7.951611e-06
9.180000e+02 6.527081e-06
9.190000e+02 1.116725e-04
9.200000e+02 3.360387e-04
9.210000e+02 4.280609e-08
9.220000e+02 3.748770e-04
9.230000e+02 2.490731e-06
9.240000e+02 2.689354e-05
9.250000e+02 1.852117e-04
9.260000e+02 9.292078e-06
9.270000e+02 1.990409e-05
9.280000e+02 2.033356e-03
9.290000e+02 1.922626e-03
9.300000e+02 3.906603e-04
9.310000e+02 5.491170e-06
9.320000e+02 1.488868e-03
9.330000e+02 1.321622e-03
9.340000e+02 5.123727e-04
9.350000e+02 3.631853e-06
9.360000e+02 5.939636e-05
9.370000e+02 1.199494e-06
9.380000e+02 1.986075e-06
9.390000e+02 1.264877e-04
9.400000e+02 3.300195e-03
9.410000e+02 1.275759e-04
9.420000e+02 5.879178e-03
9.430000e+02 2.721259e-04
9.440000e+02 6.380727e-03
9.450000e+02 6.458921e-03
9.460000e+02 3.293620e-03
9.470000e+02 7.328694e-06
9.480000e+02 1.816795e-03
9.490000e+02 1.627892e-04
9.500000e+02 1.841026e-06
9.510000e+02 8.168303e-04
9.520000e+02 3.054859e-03
9.530000e+02 4.801262e-05
9.540000e+02 8.197385e-06
9.550000e+02 7.446585e-04
9.560000e+02 8.397589e-03
9.570000e+02 1.724935e-04
9.580000e+02 2.659624e-06
9.590000e+02 1.249622e-02
9.600000e+02 5.612615e-06
9.610000e+02 6.015672e-03
9.620000e+02 2.450445e-03
9.630000e+02 4.720557e-04
9.640000e+02 4.529953e-06
9.650000e+02 2.254173e-05
9.660000e+02 7.992787e-04
9.670000e+02 1.200242e-04
9.680000e+02 7.318147e-05
9.690000e+02 3.466595e-03
9.700000e+02 2.625600e-03
9.710000e+02 1.253042e-04
9.720000e+02 2.360592e-05
9.730000e+02 2.752393e-05
9.740000e+02 1.091565e-03
9.750000e+02 1.128747e-03
9.760000e+02 1.190752e-02
9.770000e+02 1.266793e-02
9.780000e+02 7.181201e-03
9.790000e+02 2.876172e-02
9.800000e+02 3.166872e-02
9.810000e+02 6.528430e-03
9.820000e+02 1.001773e-03
9.830000e+02 3.636730e-02
9.840000e+02 8.143300e-04
9.850000e+02 2.973576e-03
9.860000e+02 3.761261e-03
9.870000e+02 4.437277e-02
9.880000e+02 5.766004e-05
9.890000e+02 2.364318e-02
9.900000e+02 2.562839e-03
9.910000e+02 7.541853e-04
9.920000e+02 1.321936e-05
9.930000e+02 4.857126e-02
9.940000e+02 4.927628e-06
9.950000e+02 2.379600e-03
9.960000e+02 2.149791e-04
9.970000e+02 3.851318e-04
9.980000e+02 4.688688e-02
9.990000e+02 1.199980e-03
1.000000e+03 7.684138e-02
1.001000e+03 7.405349e-02
1.002000e+03 8.698047e-02
1.003000e+03 1.718471e-03
1.004000e+03 9.693205e-05
1.005000e+03 6.238051e-03
1.006000e+03 9.159109e-02
1.007000e+03 1.024270e-01
1.008000e+03 7.994027e-02
1.009000e+03 2.353795e-03
1.010000e+03 8.377960e-02
1.011000e+03 1.019408e-01
1.012000e+03 9.317408e-02
1.013000e+03 8.922378e-02
1.014000e+03 3.848225e-05
1.015000e+03 1.499355e-04
1.016000e+03 5.750433e-03
1.017000e+03 3.231317e-05
1.018000e+03 2.490416e-03
1.019000e+03 1.420900e-04
1.020000e+03 7.527643e-02
1.021000e+03 2.181627e-03
1.022000e+03 4.238609e-03
1.023000e+03 3.201365e-04
1.024000e+03 4.238933e-03
1.025000e+03 3.071679e-05
1.026000e+03 2.615060e-05
1.027000e+03 1.831464e-03
1.028000e+03 1.379233e-04
1.029000e+03 6.695464e-05
1.030000e+03 2.707339e-02
1.031000e+03 4.288942e-02
1.032000e+03 1.759117e-01
1.033000e+03 1.721889e-03
1.034000e+03 7.920859e-02
1.035000e+03 7.948279e-05
1.036000e+03 1.360476e-04
1.037000e+03 4.152946e-01
1.038000e+03 7.251435e-01
1.039000e+03 4.860832e-01
1.040000e+03 5.532249e-01
1.041000e+03 8.905356e-01
1.042000e+03 8.647081e-01
1.043000e+03 6.090178e-01
1.044000e+03 1.124921e+00
1.045000e+03 1.077770e-04
1.046000e+03 6.516520e-01
1.047000e+03 1.983988e-01
1.048000e+03 3.297150e-03
1.049000e+03 2.453348e-01
1.050000e+03 6.239200e-02
1.051000e+03 2.811384e-02
1.052000e+03 1.191941e+00
1.053000e+03 1.556715e+00
1.054000e+03 2.338886e-04
1.055000e+03 1.479710e+00
1.056000e+03 1.635011e+00
1.057000e+03 4.850627e-01
1.058000e+03 3.416814e-02
1.059000e+03 7.588863e-03
1.060000e+03 4.676461e-03
1.061000e+03 8.796582e-01
1.062000e+03 1.593517e-02
1.063000e+03 2.763885e-02
1.064000e+03 1.952648e-04
1.065000e+03 3.991127e-04
1.066000e+03 7.922162e-01
1.067000e+03 1.500139e-02
1.068000e+03 2.605538e+00
1.069000e+03 3.482779e-03
1.070000e+03 3.700116e-01
1.071000e+03 2.421951e+00
1.072000e+03 2.834009e+00
1.073000e+03 9.493828e-04
1.074000e+03 5.966275e-01
1.075000e+03 3.358130e-01
1.076000e+03 2.517127e+00
1.077000e+03 4.882574e-03
1.078000e+03 3.983045e-02
1.079000e+03 2.315322e-01
1.080000e+03 6.907172e-01
1.081000e+03 2.377262e+00
1.082000e+03 1.724075e+00
1.083000e+03 1.030539e+00
1.084000e+03 4.330844e+00
1.085000e+03 2.259192e-01
1.086000e+03 4.665899e+00
1.087000e+03 3.690004e-02
1.088000e+03 5.002861e+00
1.089000e+03 5.156828e+00
1.090000e+03 1.753597e-01
1.091000e+03 2.510176e-01
1.092000e+03 5.343366e+00
1.093000e+03 5.666877e+00
1.094000e+03 2.304114e+00
1.095000e+03 6.224279e+00
1.096000e+03 2.912045e-01
1.097000e+03 4.920050e+00
1.098000e+03 6.454199e+00
1.099000e+03 7.278953e-01
1.100000e+03 1.058403e-02
1.101000e+03 3.005441e-02
1.102000e+03 4.005797e-01
1.103000e+03 7.670523e+00
1.104000e+03 8.174294e+00
1.105000e+03 8.242020e+00
1.106000e+03 2.115635e+00
1.107000e+03 1.657391e-02
1.108000e+03 6.971251e+00
1.109000e+03 2.031736e-01
1.110000e+03 9.096478e+00
1.111000e+03 8.685249e+00
1.112000e+03 5.101643e+00
1.113000e+03 7.898650e+00
1.114000e+03 3.256086e+00
1.115000e+03 2.545828e-01
1.116000e+03 1.184204e-01
1.117000e+03 1.056695e+01
1.118000e+03 3.368688e-01
1.119000e+03 6.387312e+00
1.120000e+03 1.523104e-01
1.121000e+03 1.102886e+01
1.122000e+03 7.951222e+00
1.123000e+03 1.510455e+01
1.124000e+03 1.705607e+01
1.125000e+03 1.350575e+01
1.126000e+03 1.732615e+01
1.127000e+03 1.457454e+01
1.128000e+03 1.117068e+01
1.129000e+03 1.017575e+01
1.130000e+03 1.472239e+01
1.131000e+03 1.303836e+01
1.132000e+03 2.585607e-01
1.133000e+03 1.590417e+00
1.134000e+03 1.043148e+01
1.135000e+03 3.631206e+00
1.136000e+03 3.277961e+00
1.137000e+03 1.225157e+01
1.138000e+03 9.210952e+00
1.139000e+03 1.404790e+01
1.140000e+03 1.323597e+01
1.141000e+03 1.358558e+01
1.142000e+03 1.404576e+01
1.143000e+03 1.045260e+01
1.144000e+03 1.384946e+01
1.145000e+03 1.236877e-01
1.146000e+03 1.475691e+01
1.147000e+03 1.469783e+01
1.148000e+03 9.445229e-01
1.149000e+03 1.400458e+01
1.150000e+03 1.336114e+01
1.151000e+03 1.479314e+01
1.152000e+03 1.424400e+01
1.153000e+03 1.423140e+01
1.154000e+03 1.440269e+01
1.155000e+03 1.333489e+01
1.156000e+03 1.180044e+01
1.157000e+03 1.362474e+01
1.158000e+03 1.087766e+01
1.159000e+03 1.412724e+01
1.160000e+03 1.119644e+01
1.161000e+03 1.336466e+01
1.162000e+03 3.150805e+00
1.163000e+03 7.063417e+00
1.164000e+03 5.372906e-02
1.165000e+03 8.797547e+00
1.166000e+03 5.215183e+00
1.167000e+03 3.678610e+00
1.168000e+03 1.499217e+01
1.169000e+03 1.520820e+01
1.170000e+03 3.771280e+00
1.171000e+03 8.303014e+00
1.172000e+03 6.603025e+00
1.173000e+03 6.147005e+00
1.174000e+03 7.116241e-01
1.175000e+03 4.647827e-02
1.176000e+03 1.987171e-02
1.177000e+03 1.859296e+01
1.178000e+03 1.788568e+01
1.179000e+03 1.719084e+01
1.180000e+03 1.502660e+01
1.181000e+03 1.608418e+01
1.182000e+03 1.562926e+01
1.183000e+03 1.438684e+01
1.184000e+03 1.380287e+01
1.185000e+03 1.382607e+01
1.186000e+03 3.070247e+00
1.187000e+03 1.359888e+01
1.188000e+03 1.186634e+01
1.189000e+03 1.318034e+01
1.190000e+03 1.299504e+01
1.191000e+03 1.228408e+01
1.192000e+03 1.142078e+01
1.193000e+03 1.020517e+01
1.194000e+03 1.098732e+01
1.195000e+03 1.061617e+01
1.196000e+03 7.818436e+01
1.197000e+03 7.777748e+01
1.198000e+03 1.227048e+01
1.199000e+03 7.134546e+01
1.200000e+03 2.714033e+01
1.201000e+03 6.222920e+01
1.202000e+03 5.042736e+01
1.203000e+03 5.135162e+01
1.204000e+03 2.151955e+01
1.205000e+03 3.866548e+01
1.206000e+03 3.236311e+01
1.207000e+03 5.976383e+00
1.208000e+03 1.791836e+01
1.209000e+03 1.389105e+01
1.210000e+03 8.635998e-02
1.211000e+03 5.616299e+00
1.212000e+03 2.889855e+00
1.213000e+03 1.263578e+00
1.214000e+03 3.770988e-01
1.215000e+03 8.029638e-02
1.216000e+03 7.089471e-02
1.217000e+03 2.420283e-01
1.218000e+03 1.028361e+00
1.219000e+03 2.771255e+00
1.220000e+03 5.345982e+00
1.221000e+03 1.077736e+01
1.222000e+03 1.766104e+01
1.223000e+03 2.556520e+01
1.224000e+03 3.411339e+01
1.225000e+03 1.331001e+01
1.226000e+03 6.137141e+01
1.227000e+03 7.656165e+01
1.228000e+03 6.155826e+01
1.229000e+03 1.048756e+02
1.230000e+03 9.837498e+01
1.231000e+03 5.379228e+01
1.232000e+03 1.499218e+02
1.233000e+03 1.656540e+02
1.234000e+03 1.381192e+02
1.235000e+03 1.919839e+02
1.236000e+03 1.239851e+02
1.237000e+03 2.191911e+02
1.238000e+03 2.310463e+02
1.239000e+03 2.303661e+02
1.240000e+03 7.499966e+01
1.241000e+03 2.393618e+02
1.242000e+03 2.758142e+02
1.243000e+03 2.905613e+02
1.244000e+03 3.027433e+02
1.245000e+03 3.127093e+02
1.246000e+03 3.145745e+02
1.247000e+03 3.306658e+02
1.248000e+03 2.678576e+02
1.249000e+03 3.576736e+02
1.250000e+03 2.983915e+02
1.251000e+03 3.805585e+02
1.252000e+03 3.746697e+02
1.253000e+03 3.983299e+02
1.254000e+03 3.972449e+02
1.255000e+03 1.765102e+02
1.256000e+03 3.757188e+02
1.257000e+03 3.235893e+02
1.258000e+03 3.982314e+02
1.259000e+03 4.063346e+02
1.260000e+03 4.568301e+02
1.261000e+03 2.707376e+01
1.262000e+03 4.748714e+02
1.263000e+03 4.597157e+02
1.264000e+03 4.503213e+02
1.265000e+03 1.851865e+01
1.266000e+03 5.374620e+02
1.267000e+03 5.404842e+02
