# wavelength_A flux
5.000000e+02 0.000000e+00
5.010000e+02 0.000000e+00
5.020000e+02 0.000000e+00
5.030000e+02 0.000000e+00
5.040000e+02 0.000000e+00
5.050000e+02 1.401298e-45
5.060000e+02 1.401298e-45
5.070000e+02 1.401298e-45
5.080000e+02 1.401298e-45
5.090000e+02 2.802597e-45
5.100000e+02 2.802597e-45
5.110000e+02 4.203895e-45
5.120000e+02 5.605194e-45
5.130000e+02 8.407791e-45
5.140000e+02 9.809089e-45
5.150000e+02 1.401298e-44
5.160000e+02 1.821688e-44
5.170000e+02 2.382207e-44
5.180000e+02 3.222986e-44
5.190000e+02 4.203895e-44
5.200000e+02 5.605194e-44
5.210000e+02 7.426882e-44
5.220000e+02 9.809089e-44
5.230000e+02 1.289195e-43
5.240000e+02 1.709584e-43
5.250000e+02 2.242078e-43
5.260000e+02 2.956740e-43
5.270000e+02 3.867584e-43
5.280000e+02 5.086713e-43
5.290000e+02 6.656168e-43
5.300000e+02 8.716076e-43
5.310000e+02 1.139256e-42
5.320000e+02 1.488179e-42
5.330000e+02 1.942200e-42
5.340000e+02 2.532146e-42
5.350000e+02 3.298657e-42
5.360000e+02 4.290776e-42
5.370000e+02 5.575767e-42
5.380000e+02 7.240509e-42
5.390000e+02 9.391502e-42
5.400000e+02 1.217028e-41
5.410000e+02 1.575620e-41
5.420000e+02 2.037768e-41
5.430000e+02 2.632900e-41
5.440000e+02 3.398709e-41
5.450000e+02 4.382981e-41
5.460000e+02 5.646953e-41
5.470000e+02 7.268675e-41
5.480000e+02 9.347221e-41
5.490000e+02 1.200913e-40
5.500000e+02 1.541456e-40
5.510000e+02 1.976770e-40
5.520000e+02 2.532665e-40
5.530000e+02 3.241946e-40
5.540000e+02 4.146092e-40
5.550000e+02 5.297609e-40
5.560000e+02 6.762877e-40
5.570000e+02 8.625707e-40
5.580000e+02 1.099188e-39
5.590000e+02 1.399478e-39
5.600000e+02 1.780242e-39
5.610000e+02 2.262621e-39
5.620000e+02 2.873210e-39
5.630000e+02 3.645421e-39
5.640000e+02 4.621195e-39
5.650000e+02 5.853148e-39
5.660000e+02 7.407222e-39
5.670000e+02 9.365990e-39
5.680000e+02 1.183277e-38
5.690000e+02 1.493674e-38
5.700000e+02 1.883923e-38
5.710000e+02 2.374166e-38
5.720000e+02 2.989516e-38
5.730000e+02 3.761273e-38
5.740000e+02 4.728406e-38
5.750000e+02 5.939397e-38
5.760000e+02 7.454518e-38
5.770000e+02 9.348635e-38
5.780000e+02 1.171467e-37
5.790000e+02 1.466787e-37
5.800000e+02 1.835105e-37
5.810000e+02 2.294105e-37
5.820000e+02 2.865671e-37
5.830000e+02 3.576855e-37
5.840000e+02 4.461082e-37
5.850000e+02 5.559617e-37
5.860000e+02 6.923359e-37
5.870000e+02 8.615052e-37
5.880000e+02 1.071198e-36
5.890000e+02 1.330927e-36
5.900000e+02 1.652390e-36
5.910000e+02 2.049967e-36
5.920000e+02 2.541315e-36
5.930000e+02 3.148106e-36
5.940000e+02 3.896916e-36
5.950000e+02 4.820310e-36
5.960000e+02 5.958169e-36
5.970000e+02 7.359296e-36
5.980000e+02 9.083369e-36
5.990000e+02 1.120331e-35
6.000000e+02 1.380816e-35
6.010000e+02 1.700660e-35
6.020000e+02 2.093111e-35
6.030000e+02 2.574317e-35
6.040000e+02 3.163941e-35
6.050000e+02 3.885909e-35
6.060000e+02 4.769319e-35
6.070000e+02 5.849531e-35
6.080000e+02 7.169489e-35
6.090000e+02 8.781310e-35
6.100000e+02 1.074820e-34
6.110000e+02 1.314677e-34
6.120000e+02 1.606981e-34
6.130000e+02 1.962963e-34
6.140000e+02 2.396209e-34
6.150000e+02 2.923141e-34
6.160000e+02 3.563600e-34
6.170000e+02 4.341536e-34
6.180000e+02 5.285849e-34
6.190000e+02 6.431380e-34
6.200000e+02 7.820116e-34
6.210000e+02 9.502614e-34
6.220000e+02 1.153972e-33
6.230000e+02 1.400461e-33
6.240000e+02 1.698524e-33
6.250000e+02 2.058726e-33
6.260000e+02 2.493752e-33
6.270000e+02 3.018816e-33
6.280000e+02 3.652164e-33
6.290000e+02 4.415659e-33
6.300000e+02 5.335479e-33
6.310000e+02 6.442960e-33
6.320000e+02 7.775581e-33
6.330000e+02 9.378142e-33
6.340000e+02 1.130417e-32
6.350000e+02 1.361757e-32
6.360000e+02 1.639460e-32
6.370000e+02 1.972621e-32
6.380000e+02 2.372080e-32
6.390000e+02 2.850749e-32
6.400000e+02 3.424001e-32
6.410000e+02 4.110127e-32
6.420000e+02 4.930877e-32
6.430000e+02 5.912101e-32
6.440000e+02 7.084506e-32
6.450000e+02 8.484542e-32
6.460000e+02 1.015546e-31
6.470000e+02 1.214854e-31
6.480000e+02 1.452458e-31
6.490000e+02 1.735556e-31
6.500000e+02 2.072672e-31
6.510000e+02 2.473890e-31
6.520000e+02 2.951138e-31
6.530000e+02 3.518511e-31
6.540000e+02 4.192660e-31
6.550000e+02 4.993245e-31
6.560000e+02 5.943464e-31
6.570000e+02 7.070678e-31
6.580000e+02 8.407138e-31
6.590000e+02 9.990844e-31
6.600000e+02 1.186654e-30
6.610000e+02 1.408688e-30
6.620000e+02 1.671381e-30
6.630000e+02 1.982017e-30
6.640000e+02 2.349153e-30
6.650000e+02 2.782840e-30
6.660000e+02 3.294878e-30
6.670000e+02 3.899112e-30
6.680000e+02 4.611776e-30
6.690000e+02 5.451900e-30
6.700000e+02 6.441778e-30
6.710000e+02 7.607516e-30
6.720000e+02 8.979666e-30
6.730000e+02 1.059397e-29
6.740000e+02 1.249221e-29
6.750000e+02 1.472323e-29
6.760000e+02 1.734406e-29
6.770000e+02 2.042132e-29
6.780000e+02 2.403271e-29
6.790000e+02 2.826889e-29
6.800000e+02 3.323553e-29
6.810000e+02 3.905578e-29
6.820000e+02 4.587308e-29
6.830000e+02 5.385440e-29
6.840000e+02 6.319404e-29
6.850000e+02 7.411799e-29
6.860000e+02 8.688897e-29
6.870000e+02 1.018123e-28
6.880000e+02 1.192424e-28
6.890000e+02 1.395911e-28
6.900000e+02 1.633359e-28
6.910000e+02 1.910309e-28
6.920000e+02 2.233184e-28
6.930000e+02 2.609427e-28
6.940000e+02 3.047658e-28
6.950000e+02 3.557861e-28
6.960000e+02 4.151586e-28
6.970000e+02 4.842194e-28
6.980000e+02 5.645137e-28
6.990000e+02 6.578269e-28
7.000000e+02 7.662219e-28
7.010000e+02 8.920805e-28
7.020000e+02 1.038152e-27
7.030000e+02 1.207608e-27
7.040000e+02 1.404107e-27
7.050000e+02 1.631866e-27
7.060000e+02 1.895742e-27
7.070000e+02 2.201332e-27
7.080000e+02 2.555078e-27
7.090000e+02 2.964393e-27
7.100000e+02 3.437807e-27
7.110000e+02 3.985123e-27
7.120000e+02 4.617613e-27
7.130000e+02 5.348225e-27
7.140000e+02 6.191826e-27
7.150000e+02 7.165486e-27
7.160000e+02 8.288792e-27
7.170000e+02 9.584205e-27
7.180000e+02 1.107748e-26
7.190000e+02 1.279814e-26
7.200000e+02 1.478000e-26
7.210000e+02 1.706178e-26
7.220000e+02 1.968780e-26
7.230000e+02 2.270879e-26
7.240000e+02 2.618276e-26
7.250000e+02 3.017604e-26
7.260000e+02 3.476442e-26
7.270000e+02 4.003452e-26
7.280000e+02 4.608521e-26
7.290000e+02 5.302942e-26
7.300000e+02 6.099596e-26
7.310000e+02 7.013178e-26
7.320000e+02 8.060445e-26
7.330000e+02 9.260494e-26
7.340000e+02 1.063509e-25
7.350000e+02 1.220901e-25
7.360000e+02 1.401047e-25
7.370000e+02 1.607159e-25
7.380000e+02 1.842891e-25
7.390000e+02 2.112397e-25
7.400000e+02 2.420400e-25
7.410000e+02 2.772268e-25
7.420000e+02 3.174100e-25
7.430000e+02 3.632819e-25
7.440000e+02 4.156285e-25
7.450000e+02 4.753419e-25
7.460000e+02 5.434338e-25
7.470000e+02 6.210515e-25
7.480000e+02 7.094955e-25
7.490000e+02 8.102396e-25
7.500000e+02 9.249529e-25
7.510000e+02 1.055526e-24
7.520000e+02 1.204097e-24
7.530000e+02 1.373089e-24
7.540000e+02 1.565239e-24
7.550000e+02 1.783643e-24
7.560000e+02 2.031803e-24
7.570000e+02 2.313672e-24
7.580000e+02 2.633719e-24
7.590000e+02 2.996988e-24
7.600000e+02 3.409175e-24
7.610000e+02 3.876703e-24
7.620000e+02 4.406824e-24
7.630000e+02 5.007710e-24
7.640000e+02 5.688576e-24
7.650000e+02 6.459806e-24
7.660000e+02 7.333100e-24
7.670000e+02 8.321629e-24
7.680000e+02 9.440227e-24
7.690000e+02 1.070558e-23
7.700000e+02 1.213648e-23
7.710000e+02 1.375404e-23
7.720000e+02 1.558200e-23
7.730000e+02 1.764706e-23
7.740000e+02 1.997920e-23
7.750000e+02 2.261212e-23
7.760000e+02 2.558363e-23
7.770000e+02 2.893619e-23
7.780000e+02 3.271747e-23
7.790000e+02 3.698089e-23
7.800000e+02 4.178641e-23
7.810000e+02 4.720124e-23
7.820000e+02 5.330069e-23
7.830000e+02 6.016915e-23
7.840000e+02 6.790114e-23
7.850000e+02 7.660251e-23
7.860000e+02 8.639172e-23
7.870000e+02 9.740137e-23
7.880000e+02 1.097798e-22
7.890000e+02 1.236927e-22
7.900000e+02 1.393258e-22
7.910000e+02 1.568862e-22
7.920000e+02 1.766055e-22
7.930000e+02 1.987424e-22
7.940000e+02 2.235859e-22
7.950000e+02 2.514583e-22
7.960000e+02 2.827196e-22
7.970000e+02 3.177714e-22
7.980000e+02 3.570615e-22
7.990000e+02 4.010893e-22
8.000000e+02 4.504116e-22
8.010000e+02 5.056486e-22
8.020000e+02 5.674916e-22
8.030000e+02 6.367104e-22
8.040000e+02 7.141619e-22
8.050000e+02 8.008002e-22
8.060000e+02 8.976871e-22
8.070000e+02 1.006004e-21
8.080000e+02 1.127063e-21
8.090000e+02 1.262326e-21
8.100000e+02 1.413417e-21
8.110000e+02 1.582138e-21
8.120000e+02 1.770495e-21
8.130000e+02 1.980712e-21
8.140000e+02 2.215263e-21
8.150000e+02 2.476889e-21
8.160000e+02 2.768634e-21
8.170000e+02 3.093877e-21
8.180000e+02 3.456364e-21
8.190000e+02 3.860246e-21
8.200000e+02 4.310129e-21
8.210000e+02 4.811115e-21
8.220000e+02 5.368856e-21
8.230000e+02 5.989613e-21
8.240000e+02 6.680320e-21
8.250000e+02 7.448652e-21
8.260000e+02 8.303103e-21
8.270000e+02 9.253073e-21
8.280000e+02 1.030896e-20
8.290000e+02 1.148225e-20
8.300000e+02 1.278567e-20
8.310000e+02 1.423325e-20
8.320000e+02 1.584054e-20
8.330000e+02 1.762467e-20
8.340000e+02 1.960458e-20
8.350000e+02 2.180121e-20
8.360000e+02 2.423762e-20
8.370000e+02 2.693930e-20
8.380000e+02 2.993437e-20
8.390000e+02 3.325382e-20
8.400000e+02 3.693187e-20
8.410000e+02 4.100620e-20
8.420000e+02 4.551838e-20
8.430000e+02 5.051420e-20
8.440000e+02 5.604410e-20
8.450000e+02 6.216364e-20
8.460000e+02 6.893402e-20
8.470000e+02 7.642258e-20
8.480000e+02 8.470346e-20
8.490000e+02 9.385822e-20
8.500000e+02 1.039766e-19
8.510000e+02 1.151573e-19
8.520000e+02 1.275088e-19
8.530000e+02 1.411504e-19
8.540000e+02 1.562132e-19
8.550000e+02 1.728412e-19
8.560000e+02 1.911927e-19
8.570000e+02 2.114414e-19
8.580000e+02 2.337781e-19
8.590000e+02 2.584124e-19
8.600000e+02 2.855739e-19
8.610000e+02 3.155151e-19
8.620000e+02 3.485124e-19
8.630000e+02 3.848694e-19
8.640000e+02 4.249186e-19
8.650000e+02 4.690250e-19
8.660000e+02 5.175879e-19
8.670000e+02 5.710455e-19
8.680000e+02 6.298774e-19
8.690000e+02 6.946091e-19
8.700000e+02 7.658159e-19
8.710000e+02 8.441276e-19
8.720000e+02 9.302335e-19
8.730000e+02 1.024888e-18
8.740000e+02 1.128916e-18
8.750000e+02 1.243220e-18
8.760000e+02 1.368787e-18
8.770000e+02 1.506697e-18
8.780000e+02 1.658127e-18
8.790000e+02 1.824368e-18
8.800000e+02 2.006827e-18
8.810000e+02 2.207043e-18
8.820000e+02 2.426694e-18
8.830000e+02 2.667615e-18
8.840000e+02 2.931808e-18
8.850000e+02 3.221458e-18
8.860000e+02 3.538948e-18
8.870000e+02 3.886881e-18
8.880000e+02 4.268091e-18
8.890000e+02 4.685673e-18
8.900000e+02 5.143000e-18
8.910000e+02 5.643746e-18
8.920000e+02 6.191918e-18
8.930000e+02 6.791881e-18
8.940000e+02 7.448389e-18
8.950000e+02 8.166621e-18
8.960000e+02 8.952214e-18
8.970000e+02 9.811308e-18
8.980000e+02 1.075058e-17
8.990000e+02 1.177731e-17
9.000000e+02 1.289940e-17
9.010000e+02 1.412546e-17
9.020000e+02 1.546484e-17
9.030000e+02 1.692772e-17
9.040000e+02 1.852516e-17
9.050000e+02 2.026918e-17
9.060000e+02 2.217286e-17
9.070000e+02 2.425038e-17
9.080000e+02 2.651716e-17
9.090000e+02 2.898996e-17
9.100000e+02 3.168694e-17
9.110000e+02 3.462786e-17
9.120000e+02 3.783414e-17
9.130000e+02 4.132903e-17
9.140000e+02 4.564682e-17
9.150000e+02 1.621837e-15
9.160000e+02 1.329526e-14
9.170000e+02 5.565940e-15
9.180000e+02 2.220552e-15
9.190000e+02 4.429917e-14
9.200000e+02 1.487539e-13
9.210000e+02 8.320197e-17
9.220000e+02 2.382990e-13
9.230000e+02 1.097976e-15
9.240000e+02 1.858829e-14
9.250000e+02 2.172099e-13
9.260000e+02 3.803644e-15
9.270000e+02 2.044818e-14
9.280000e+02 1.344972e-12
9.290000e+02 1.062674e-12
9.300000e+02 2.150233e-13
9.310000e+02 3.524446e-15
9.320000e+02 9.923371e-13
9.330000e+02 2.340557e-12
9.340000e+02 1.799362e-12
9.350000e+02 4.256154e-15
9.360000e+02 1.724201e-13
9.370000e+02 1.100045e-15
9.380000e+02 1.085325e-15
9.390000e+02 2.900265e-13
9.400000e+02 3.178967e-12
9.410000e+02 3.174133e-14
9.420000e+02 6.101457e-12
9.430000e+02 1.311122e-12
9.440000e+02 7.200181e-12
9.450000e+02 7.156111e-12
9.460000e+02 5.705878e-12
9.470000e+02 5.836911e-15
9.480000e+02 4.244935e-13
9.490000e+02 1.196225e-13
9.500000e+02 1.518999e-15
9.510000e+02 9.368263e-13
9.520000e+02 4.687877e-12
9.530000e+02 3.527898e-13
9.540000e+02 9.293483e-15
9.550000e+02 2.382938e-12
9.560000e+02 5.376056e-13
9.570000e+02 5.701429e-13
9.580000e+02 3.694094e-15
9.590000e+02 2.146797e-11
9.600000e+02 8.900866e-15
9.610000e+02 2.458907e-11
9.620000e+02 2.000813e-11
9.630000e+02 8.814789e-13
9.640000e+02 2.687763e-13
9.650000e+02 2.779374e-14
9.660000e+02 6.271190e-12
9.670000e+02 5.360243e-13
9.680000e+02 3.765564e-13
9.690000e+02 9.212794e-12
9.700000e+02 8.506772e-12
9.710000e+02 4.941007e-13
9.720000e+02 2.729180e-14
9.730000e+02 3.060402e-14
9.740000e+02 1.875059e-12
9.750000e+02 6.816399e-12
9.760000e+02 2.806187e-11
9.770000e+02 4.256128e-11
9.780000e+02 4.789211e-11
9.790000e+02 7.471960e-11
9.800000e+02 8.724648e-11
9.810000e+02 6.345849e-11
9.820000e+02 1.965596e-11
9.830000e+02 1.171604e-10
9.840000e+02 3.092563e-12
9.850000e+02 2.849092e-11
9.860000e+02 1.871917e-11
9.870000e+02 1.551432e-10
9.880000e+02 1.177738e-13
9.890000e+02 1.625960e-10
9.900000e+02 1.463062e-10
9.910000e+02 2.285098e-11
9.920000e+02 4.495189e-14
9.930000e+02 1.409862e-10
9.940000e+02 3.829576e-14
9.950000e+02 7.045530e-12
9.960000e+02 7.729928e-13
9.970000e+02 9.044588e-14
9.980000e+02 2.920554e-10
9.990000e+02 2.941298e-11
1.000000e+03 3.775433e-10
1.001000e+03 3.279131e-10
1.002000e+03 4.330803e-10
1.003000e+03 2.931952e-11
1.004000e+03 2.364497e-13
1.005000e+03 1.724782e-10
1.006000e+03 5.287900e-10
1.007000e+03 5.646653e-10
1.008000e+03 5.628867e-10
1.009000e+03 1.238809e-11
1.010000e+03 5.930236e-10
1.011000e+03 5.993628e-10
1.012000e+03 6.693899e-10
1.013000e+03 6.847787e-10
1.014000e+03 2.160494e-13
1.015000e+03 5.510592e-13
1.016000e+03 1.123086e-10
1.017000e+03 2.761680e-13
1.018000e+03 4.417811e-11
1.019000e+03 7.140399e-13
1.020000e+03 4.191014e-10
1.021000e+03 8.106987e-12
1.022000e+03 5.797346e-11
1.023000e+03 3.672264e-12
1.024000e+03 1.139672e-11
1.025000e+03 4.511267e-13
1.026000e+03 3.425507e-13
1.027000e+03 6.403243e-12
1.028000e+03 8.048666e-13
1.029000e+03 6.283862e-13
1.030000e+03 4.115404e-10
1.031000e+03 1.351583e-09
1.032000e+03 1.623896e-09
1.033000e+03 1.498490e-11
1.034000e+03 2.100364e-09
1.035000e+03 7.789325e-13
1.036000e+03 1.097789e-12
1.037000e+03 1.101141e-08
1.038000e+03 1.393459e-08
1.039000e+03 1.496586e-08
1.040000e+03 1.396941e-08
1.041000e+03 1.403291e-08
1.042000e+03 2.242405e-08
1.043000e+03 1.070661e-08
1.044000e+03 2.779788e-08
1.045000e+03 1.560034e-12
1.046000e+03 2.034015e-08
1.047000e+03 1.625045e-08
1.048000e+03 1.487894e-10
1.049000e+03 1.756439e-08
1.050000e+03 1.566097e-09
1.051000e+03 4.284040e-10
1.052000e+03 4.621114e-08
1.053000e+03 5.236531e-08
1.054000e+03 3.204548e-12
1.055000e+03 1.125040e-08
1.056000e+03 5.833044e-08
1.057000e+03 2.906099e-08
1.058000e+03 1.292888e-09
1.059000e+03 3.477112e-10
1.060000e+03 9.792700e-11
1.061000e+03 7.669215e-08
1.062000e+03 5.870271e-10
1.063000e+03 1.045674e-11
1.064000e+03 4.369838e-12
1.065000e+03 6.551204e-12
1.066000e+03 6.524630e-10
1.067000e+03 1.133029e-09
1.068000e+03 1.241710e-07
1.069000e+03 1.669932e-10
1.070000e+03 2.316651e-08
1.071000e+03 1.345979e-07
1.072000e+03 1.528968e-07
1.073000e+03 1.388401e-11
1.074000e+03 1.085404e-07
1.075000e+03 9.631023e-08
1.076000e+03 1.990186e-08
1.077000e+03 8.080292e-11
1.078000e+03 2.298648e-09
1.079000e+03 2.583622e-08
1.080000e+03 5.669060e-08
1.081000e+03 2.382215e-07
1.082000e+03 2.061423e-07
1.083000e+03 1.627297e-07
1.084000e+03 2.074444e-07
1.085000e+03 3.443989e-08
1.086000e+03 3.270480e-07
1.087000e+03 3.815217e-09
1.088000e+03 3.548545e-07
1.089000e+03 3.685614e-07
1.090000e+03 3.913444e-08
1.091000e+03 8.923734e-08
1.092000e+03 1.089477e-07
1.093000e+03 3.549200e-07
1.094000e+03 1.832523e-07
1.095000e+03 5.098360e-07
1.096000e+03 6.771415e-09
1.097000e+03 5.372420e-07
1.098000e+03 2.375515e-07
1.099000e+03 7.963882e-08
1.100000e+03 3.458611e-10
1.101000e+03 1.197449e-09
1.102000e+03 1.385470e-07
1.103000e+03 7.380238e-07
1.104000e+03 7.948275e-07
1.105000e+03 8.315948e-07
1.106000e+03 3.325868e-07
1.107000e+03 1.713886e-09
1.108000e+03 9.375764e-07
1.109000e+03 6.666414e-08
1.110000e+03 8.775881e-07
1.111000e+03 9.510712e-07
1.112000e+03 1.006450e-06
1.113000e+03 8.191461e-07
1.114000e+03 2.962037e-07
1.115000e+03 3.547723e-08
1.116000e+03 4.909876e-09
1.117000e+03 1.460731e-06
1.118000e+03 1.207746e-07
1.119000e+03 1.195534e-06
1.120000e+03 2.073728e-08
1.121000e+03 1.687793e-06
1.122000e+03 1.051121e-06
1.123000e+03 2.902946e-06
1.124000e+03 3.878084e-06
1.125000e+03 3.106319e-06
1.126000e+03 2.424685e-06
1.127000e+03 2.419963e-06
1.128000e+03 2.166677e-06
1.129000e+03 1.868409e-06
1.130000e+03 2.031165e-06
1.131000e+03 1.573306e-06
1.132000e+03 2.483216e-08
1.133000e+03 8.178849e-07
1.134000e+03 1.616322e-06
1.135000e+03 6.406751e-07
1.136000e+03 7.875869e-07
1.137000e+03 1.160001e-06
1.138000e+03 1.432305e-06
1.139000e+03 1.508766e-06
1.140000e+03 1.456701e-06
1.141000e+03 1.211605e-06
1.142000e+03 1.462344e-06
1.143000e+03 1.158999e-06
1.144000e+03 1.354394e-06
1.145000e+03 1.601381e-08
1.146000e+03 1.511642e-06
1.147000e+03 1.531042e-06
1.148000e+03 3.935298e-07
1.149000e+03 1.498091e-06
1.150000e+03 1.460015e-06
1.151000e+03 1.467873e-06
1.152000e+03 1.430365e-06
1.153000e+03 1.405154e-06
1.154000e+03 1.333361e-06
1.155000e+03 1.340050e-06
1.156000e+03 5.441171e-07
1.157000e+03 1.285279e-06
1.158000e+03 1.260843e-06
1.159000e+03 1.295513e-06
1.160000e+03 1.266191e-06
1.161000e+03 1.181833e-06
1.162000e+03 6.084261e-07
1.163000e+03 9.300456e-07
1.164000e+03 2.998092e-09
1.165000e+03 6.294769e-07
1.166000e+03 3.049210e-07
1.167000e+03 1.904473e-07
1.168000e+03 1.383063e-06
1.169000e+03 1.389833e-06
1.170000e+03 2.076511e-07
1.171000e+03 5.721905e-07
1.172000e+03 4.538998e-07
1.173000e+03 3.767094e-07
1.174000e+03 1.320540e-07
1.175000e+03 4.234948e-09
1.176000e+03 3.041237e-09
1.177000e+03 1.917667e-06
1.178000e+03 1.792942e-06
1.179000e+03 1.699344e-06
1.180000e+03 1.567854e-06
1.181000e+03 1.517425e-06
1.182000e+03 1.469009e-06
1.183000e+03 1.396266e-06
1.184000e+03 1.334591e-06
1.185000e+03 1.294457e-06
1.186000e+03 5.515354e-07
1.187000e+03 1.210307e-06
1.188000e+03 1.173679e-06
1.189000e+03 1.154555e-06
1.190000e+03 1.121783e-06
1.191000e+03 1.058973e-06
1.192000e+03 9.472054e-07
1.193000e+03 9.469642e-07
1.194000e+03 9.108140e-07
1.195000e+03 8.700509e-07
1.196000e+03 2.734268e-05
1.197000e+03 2.492156e-05
1.198000e+03 6.926107e-06
1.199000e+03 1.969847e-05
1.200000e+03 1.135567e-05
1.201000e+03 1.457383e-05
1.202000e+03 1.163134e-05
1.203000e+03 9.911640e-06
1.204000e+03 6.610524e-06
1.205000e+03 6.024267e-06
1.206000e+03 4.452532e-06
1.207000e+03 3.450332e-07
1.208000e+03 1.894100e-06
1.209000e+03 1.334164e-06
1.210000e+03 1.782689e-08
1.211000e+03 4.324477e-07
1.212000e+03 2.082591e-07
1.213000e+03 8.539850e-08
1.214000e+03 2.944810e-08
1.215000e+03 1.887765e-08
1.216000e+03 1.797865e-08
1.217000e+03 2.700703e-08
1.218000e+03 7.337795e-08
1.219000e+03 2.140108e-07
1.220000e+03 5.024792e-07
1.221000e+03 1.009782e-06
1.222000e+03 1.947297e-06
1.223000e+03 3.252341e-06
1.224000e+03 5.016131e-06
1.225000e+03 5.033143e-06
1.226000e+03 1.175482e-05
1.227000e+03 1.676142e-05
1.228000e+03 2.240926e-05
1.229000e+03 3.059292e-05
1.230000e+03 1.418111e-06
1.231000e+03 3.033280e-05
1.232000e+03 5.899812e-05
1.233000e+03 7.183391e-05
1.234000e+03 7.171107e-05
1.235000e+03 9.918582e-05
1.236000e+03 1.054707e-04
1.237000e+03 1.293090e-04
1.238000e+03 1.456770e-04
1.239000e+03 1.549862e-04
1.240000e+03 1.110595e-05
1.241000e+03 1.718745e-04
1.242000e+03 2.139339e-04
1.243000e+03 2.327582e-04
1.244000e+03 2.538568e-04
1.245000e+03 2.113608e-04
1.246000e+03 2.844685e-04
1.247000e+03 2.953712e-04
1.248000e+03 6.557655e-05
1.249000e+03 3.222402e-04
1.250000e+03 3.323871e-04
1.251000e+03 3.884981e-04
1.252000e+03 3.577523e-04
1.253000e+03 4.144060e-04
1.254000e+03 4.050603e-04
1.255000e+03 3.316555e-05
1.256000e+03 3.725703e-04
1.257000e+03 2.504863e-04
1.258000e+03 3.508552e-04
1.259000e+03 4.715338e-04
1.260000e+03 4.923673e-04
1.261000e+03 8.346047e-06
1.262000e+03 5.126437e-04
1.263000e+03 3.005730e-04
1.264000e+03 4.748520e-04
1.265000e+03 5.119060e-04
1.266000e+03 6.516661e-04
1.267000e+03 7.150537e-04
