# wavelength_A flux
5.000000e+02 2.123786e-04
5.010000e+02 2.366149e-04
5.020000e+02 2.634985e-04
5.030000e+02 2.933053e-04
5.040000e+02 3.263391e-04
5.050000e+02 3.731459e-04
5.060000e+02 4.147328e-04
5.070000e+02 4.607544e-04
5.080000e+02 5.116597e-04
5.090000e+02 5.679784e-04
5.100000e+02 6.301933e-04
5.110000e+02 6.989021e-04
5.120000e+02 7.748020e-04
5.130000e+02 8.585844e-04
5.140000e+02 9.510301e-04
5.150000e+02 1.052983e-03
5.160000e+02 1.165408e-03
5.170000e+02 1.289212e-03
5.180000e+02 1.425748e-03
5.190000e+02 1.576031e-03
5.200000e+02 1.741454e-03
5.210000e+02 1.923465e-03
5.220000e+02 2.123393e-03
5.230000e+02 2.343753e-03
5.240000e+02 2.585614e-03
5.250000e+02 2.851415e-03
5.260000e+02 3.143262e-03
5.270000e+02 3.463640e-03
5.280000e+02 3.815208e-03
5.290000e+02 4.199609e-03
5.300000e+02 4.623560e-03
5.310000e+02 5.087066e-03
5.320000e+02 5.594959e-03
5.330000e+02 6.151231e-03
5.340000e+02 6.760304e-03
5.350000e+02 7.426936e-03
5.360000e+02 8.156249e-03
5.370000e+02 8.825237e-03
5.380000e+02 9.825957e-03
5.390000e+02 1.077952e-02
5.400000e+02 1.182106e-02
5.410000e+02 1.295754e-02
5.420000e+02 1.420038e-02
5.430000e+02 1.555593e-02
5.440000e+02 1.703482e-02
5.450000e+02 1.864782e-02
5.460000e+02 2.040260e-02
5.470000e+02 2.232325e-02
5.480000e+02 2.441073e-02
5.490000e+02 2.668544e-02
5.500000e+02 2.916217e-02
5.510000e+02 3.185801e-02
5.520000e+02 3.479121e-02
5.530000e+02 3.798201e-02
5.540000e+02 4.145168e-02
5.550000e+02 4.522335e-02
5.560000e+02 4.932204e-02
5.570000e+02 5.377462e-02
5.580000e+02 5.860904e-02
5.590000e+02 6.385867e-02
5.600000e+02 6.955615e-02
5.610000e+02 7.573778e-02
5.620000e+02 8.244260e-02
5.630000e+02 8.971260e-02
5.640000e+02 9.758897e-02
5.650000e+02 1.061281e-01
5.660000e+02 1.153780e-01
5.670000e+02 1.253959e-01
5.680000e+02 1.362417e-01
5.690000e+02 1.479803e-01
5.700000e+02 1.606811e-01
5.710000e+02 1.744201e-01
5.720000e+02 1.892762e-01
5.730000e+02 2.053361e-01
5.740000e+02 2.226923e-01
5.750000e+02 2.414482e-01
5.760000e+02 2.616752e-01
5.770000e+02 2.835704e-01
5.780000e+02 3.071761e-01
5.790000e+02 3.326522e-01
5.800000e+02 3.601215e-01
5.810000e+02 3.897640e-01
5.820000e+02 4.217250e-01
5.830000e+02 4.561720e-01
5.840000e+02 4.931420e-01
5.850000e+02 5.332663e-01
5.860000e+02 5.763878e-01
5.870000e+02 6.227825e-01
5.880000e+02 6.727230e-01
5.890000e+02 7.264601e-01
5.900000e+02 7.842854e-01
5.910000e+02 8.464771e-01
5.920000e+02 9.133536e-01
5.930000e+02 9.852269e-01
5.940000e+02 1.062493e+00
5.950000e+02 1.145402e+00
5.960000e+02 1.234636e+00
5.970000e+02 1.330402e+00
5.980000e+02 1.433220e+00
5.990000e+02 1.543579e+00
6.000000e+02 1.662003e+00
6.010000e+02 1.789045e+00
6.020000e+02 1.925311e+00
6.030000e+02 2.071420e+00
6.040000e+02 2.228048e+00
6.050000e+02 2.395912e+00
6.060000e+02 2.575748e+00
6.070000e+02 2.768424e+00
6.080000e+02 2.974757e+00
6.090000e+02 3.195673e+00
6.100000e+02 3.431982e+00
6.110000e+02 3.685035e+00
6.120000e+02 3.955776e+00
6.130000e+02 4.245373e+00
6.140000e+02 4.555062e+00
6.150000e+02 4.886170e+00
6.160000e+02 5.240083e+00
6.170000e+02 5.618287e+00
6.180000e+02 6.022354e+00
6.190000e+02 6.453954e+00
6.200000e+02 6.914857e+00
6.210000e+02 7.406938e+00
6.220000e+02 7.932186e+00
6.230000e+02 8.492709e+00
6.240000e+02 9.090294e+00
6.250000e+02 9.728176e+00
6.260000e+02 1.040820e+01
6.270000e+02 1.113348e+01
6.280000e+02 1.190661e+01
6.290000e+02 1.273054e+01
6.300000e+02 1.360831e+01
6.310000e+02 1.454343e+01
6.320000e+02 1.553951e+01
6.330000e+02 1.660005e+01
6.340000e+02 1.772898e+01
6.350000e+02 1.893063e+01
6.360000e+02 2.017641e+01
6.370000e+02 2.156918e+01
6.380000e+02 2.301615e+01
6.390000e+02 2.455491e+01
6.400000e+02 2.619095e+01
6.410000e+02 2.793004e+01
6.420000e+02 2.977829e+01
6.430000e+02 3.174219e+01
6.440000e+02 3.382850e+01
6.450000e+02 3.604419e+01
6.460000e+02 3.839732e+01
6.470000e+02 4.089538e+01
6.480000e+02 4.354726e+01
6.490000e+02 4.636156e+01
6.500000e+02 4.934761e+01
6.510000e+02 5.251530e+01
6.520000e+02 5.587506e+01
6.530000e+02 5.943779e+01
6.540000e+02 6.321506e+01
6.550000e+02 6.721732e+01
6.560000e+02 7.146058e+01
6.570000e+02 7.595568e+01
6.580000e+02 8.071987e+01
6.590000e+02 8.576450e+01
6.600000e+02 9.110709e+01
6.610000e+02 9.676382e+01
6.620000e+02 1.027519e+02
6.630000e+02 1.090895e+02
6.640000e+02 1.157961e+02
6.650000e+02 1.228915e+02
6.660000e+02 1.303971e+02
6.670000e+02 1.383349e+02
6.680000e+02 1.467284e+02
6.690000e+02 1.556021e+02
6.700000e+02 1.649817e+02
6.710000e+02 1.748946e+02
6.720000e+02 1.854005e+02
6.730000e+02 1.964343e+02
6.740000e+02 2.081223e+02
6.750000e+02 2.204656e+02
6.760000e+02 2.334988e+02
6.770000e+02 2.472580e+02
6.780000e+02 2.617810e+02
6.790000e+02 2.771075e+02
6.800000e+02 2.932793e+02
6.810000e+02 3.103399e+02
6.820000e+02 3.283351e+02
6.830000e+02 3.473038e+02
6.840000e+02 3.673118e+02
6.850000e+02 3.884072e+02
6.860000e+02 4.106433e+02
6.870000e+02 4.340738e+02
6.880000e+02 4.587704e+02
6.890000e+02 4.847840e+02
6.900000e+02 5.121877e+02
6.910000e+02 5.410488e+02
6.920000e+02 5.714392e+02
6.930000e+02 6.034354e+02
6.940000e+02 6.371168e+02
6.950000e+02 6.725657e+02
6.960000e+02 7.098710e+02
6.970000e+02 7.490969e+02
6.980000e+02 7.904026e+02
6.990000e+02 8.338327e+02
7.000000e+02 8.795061e+02
7.010000e+02 9.275311e+02
7.020000e+02 9.780208e+02
7.030000e+02 1.031093e+03
7.040000e+02 1.086872e+03
7.050000e+02 1.145486e+03
7.060000e+02 1.207069e+03
7.070000e+02 1.271750e+03
7.080000e+02 1.339662e+03
7.090000e+02 1.411020e+03
7.100000e+02 1.485949e+03
7.110000e+02 1.564613e+03
7.120000e+02 1.647188e+03
7.130000e+02 1.733854e+03
7.140000e+02 1.824800e+03
7.150000e+02 1.920225e+03
7.160000e+02 2.020332e+03
7.170000e+02 2.125332e+03
7.180000e+02 2.235432e+03
7.190000e+02 2.350945e+03
7.200000e+02 2.472023e+03
7.210000e+02 2.598951e+03
7.220000e+02 2.731992e+03
7.230000e+02 2.871421e+03
7.240000e+02 3.017522e+03
7.250000e+02 3.170594e+03
7.260000e+02 3.330947e+03
7.270000e+02 3.498903e+03
7.280000e+02 3.674772e+03
7.290000e+02 3.858954e+03
7.300000e+02 4.051792e+03
7.310000e+02 4.253650e+03
7.320000e+02 4.464808e+03
7.330000e+02 4.685917e+03
7.340000e+02 4.917292e+03
7.350000e+02 5.159368e+03
7.360000e+02 5.412598e+03
7.370000e+02 5.677484e+03
7.380000e+02 5.954501e+03
7.390000e+02 6.244175e+03
7.400000e+02 6.547038e+03
7.410000e+02 6.863644e+03
7.420000e+02 7.194592e+03
7.430000e+02 7.540484e+03
7.440000e+02 7.901936e+03
7.450000e+02 8.279602e+03
7.460000e+02 8.674155e+03
7.470000e+02 9.086302e+03
7.480000e+02 9.516767e+03
7.490000e+02 9.966241e+03
7.500000e+02 1.043564e+04
7.510000e+02 1.092571e+04
7.520000e+02 1.143731e+04
7.530000e+02 1.197130e+04
7.540000e+02 1.252844e+04
7.550000e+02 1.310957e+04
7.560000e+02 1.371634e+04
7.570000e+02 1.434930e+04
7.580000e+02 1.500967e+04
7.590000e+02 1.569834e+04
7.600000e+02 1.641653e+04
7.610000e+02 1.716547e+04
7.620000e+02 1.794632e+04
7.630000e+02 1.876034e+04
7.640000e+02 1.960885e+04
7.650000e+02 2.049319e+04
7.660000e+02 2.141478e+04
7.670000e+02 2.237505e+04
7.680000e+02 2.337544e+04
7.690000e+02 2.441760e+04
7.700000e+02 2.550320e+04
7.710000e+02 2.663384e+04
7.720000e+02 2.781126e+04
7.730000e+02 2.903724e+04
7.740000e+02 3.031364e+04
7.750000e+02 3.164238e+04
7.760000e+02 3.302487e+04
7.770000e+02 3.446373e+04
7.780000e+02 3.596166e+04
7.790000e+02 3.752029e+04
7.800000e+02 3.914190e+04
7.810000e+02 4.082884e+04
7.820000e+02 4.258356e+04
7.830000e+02 4.440857e+04
7.840000e+02 4.630682e+04
7.850000e+02 4.828032e+04
7.860000e+02 5.033219e+04
7.870000e+02 5.246544e+04
7.880000e+02 5.468237e+04
7.890000e+02 5.698696e+04
7.900000e+02 5.938193e+04
7.910000e+02 6.187082e+04
7.920000e+02 6.445676e+04
7.930000e+02 6.714333e+04
7.940000e+02 6.993412e+04
7.950000e+02 7.283292e+04
7.960000e+02 7.584355e+04
7.970000e+02 7.897000e+04
7.980000e+02 8.221344e+04
7.990000e+02 8.558393e+04
8.000000e+02 8.908294e+04
8.010000e+02 9.271501e+04
8.020000e+02 9.648486e+04
8.030000e+02 1.003958e+05
8.040000e+02 1.044557e+05
8.050000e+02 1.086682e+05
8.060000e+02 1.130379e+05
8.070000e+02 1.175717e+05
8.080000e+02 1.222740e+05
8.090000e+02 1.271514e+05
8.100000e+02 1.322100e+05
8.110000e+02 1.374555e+05
8.120000e+02 1.428943e+05
8.130000e+02 1.485334e+05
8.140000e+02 1.543790e+05
8.150000e+02 1.604380e+05
8.160000e+02 1.667185e+05
8.170000e+02 1.732268e+05
8.180000e+02 1.799647e+05
8.190000e+02 1.869527e+05
8.200000e+02 1.941926e+05
8.210000e+02 2.016927e+05
8.220000e+02 2.094617e+05
8.230000e+02 2.175083e+05
8.240000e+02 2.258410e+05
8.250000e+02 2.344708e+05
8.260000e+02 2.434064e+05
8.270000e+02 2.526580e+05
8.280000e+02 2.622357e+05
8.290000e+02 2.721502e+05
8.300000e+02 2.824121e+05
8.310000e+02 2.930329e+05
8.320000e+02 3.040241e+05
8.330000e+02 3.153974e+05
8.340000e+02 3.271650e+05
8.350000e+02 3.393068e+05
8.360000e+02 3.519319e+05
8.370000e+02 3.649475e+05
8.380000e+02 3.784215e+05
8.390000e+02 3.923564e+05
8.400000e+02 4.067665e+05
8.410000e+02 4.216665e+05
8.420000e+02 4.370633e+05
8.430000e+02 4.529994e+05
8.440000e+02 4.694637e+05
8.450000e+02 4.864819e+05
8.460000e+02 5.040711e+05
8.470000e+02 5.222492e+05
8.480000e+02 5.410253e+05
8.490000e+02 5.604349e+05
8.500000e+02 5.804888e+05
8.510000e+02 6.012031e+05
8.520000e+02 6.226042e+05
8.530000e+02 6.447104e+05
8.540000e+02 6.675457e+05
8.550000e+02 6.911120e+05
8.560000e+02 7.154618e+05
8.570000e+02 7.406048e+05
8.580000e+02 7.665644e+05
8.590000e+02 7.933654e+05
8.600000e+02 8.210322e+05
8.610000e+02 8.495908e+05
8.620000e+02 8.790618e+05
8.630000e+02 9.094821e+05
8.640000e+02 9.408763e+05
8.650000e+02 9.732705e+05
8.660000e+02 1.006695e+06
8.670000e+02 1.041180e+06
8.680000e+02 1.076755e+06
8.690000e+02 1.113453e+06
8.700000e+02 1.151302e+06
8.710000e+02 1.190346e+06
8.720000e+02 1.230607e+06
8.730000e+02 1.272126e+06
8.740000e+02 1.314937e+06
8.750000e+02 1.359078e+06
8.760000e+02 1.404585e+06
8.770000e+02 1.451496e+06
8.780000e+02 1.499856e+06
8.790000e+02 1.549700e+06
8.800000e+02 1.601072e+06
8.810000e+02 1.654013e+06
8.820000e+02 1.708568e+06
8.830000e+02 1.764783e+06
8.840000e+02 1.822701e+06
8.850000e+02 1.882371e+06
8.860000e+02 1.943842e+06
8.870000e+02 2.007162e+06
8.880000e+02 2.072382e+06
8.890000e+02 2.139518e+06
8.900000e+02 2.208695e+06
8.910000e+02 2.279917e+06
8.920000e+02 2.350550e+06
8.930000e+02 2.428794e+06
8.940000e+02 2.506550e+06
8.950000e+02 2.586596e+06
8.960000e+02 2.668998e+06
8.970000e+02 2.753814e+06
8.980000e+02 2.841110e+06
8.990000e+02 2.930953e+06
9.000000e+02 3.023409e+06
9.010000e+02 3.118548e+06
9.020000e+02 3.216440e+06
9.030000e+02 3.317159e+06
9.040000e+02 3.420748e+06
9.050000e+02 3.527372e+06
9.060000e+02 3.637020e+06
9.070000e+02 3.749776e+06
9.080000e+02 3.865796e+06
9.090000e+02 3.985090e+06
9.100000e+02 4.107765e+06
9.110000e+02 4.233926e+06
9.120000e+02 4.363719e+06
9.130000e+02 4.449881e+06
9.140000e+02 4.682425e+06
9.150000e+02 1.324425e+07
9.160000e+02 6.819557e+07
9.170000e+02 8.033883e+07
9.180000e+02 6.197862e+07
9.190000e+02 1.269616e+08
9.200000e+02 1.526453e+08
9.210000e+02 5.607800e+06
9.220000e+02 1.683872e+08
9.230000e+02 8.049950e+07
9.240000e+02 1.175942e+08
9.250000e+02 1.796009e+08
9.260000e+02 1.186987e+08
9.270000e+02 1.872705e+08
9.280000e+02 1.988540e+08
9.290000e+02 1.403979e+08
9.300000e+02 1.963467e+08
9.310000e+02 1.417302e+08
9.320000e+02 2.164817e+08
9.330000e+02 2.222316e+08
9.340000e+02 2.288744e+08
9.350000e+02 7.028544e+07
9.360000e+02 2.367274e+08
9.370000e+02 4.605614e+07
9.380000e+02 1.126456e+08
9.390000e+02 2.510165e+08
9.400000e+02 2.600856e+08
9.410000e+02 1.773929e+08
9.420000e+02 2.719539e+08
9.430000e+02 2.777011e+08
9.440000e+02 1.517506e+08
9.450000e+02 2.889938e+08
9.460000e+02 2.956840e+08
9.470000e+02 1.957677e+08
9.480000e+02 3.004095e+08
9.490000e+02 2.952123e+08
9.500000e+02 6.467518e+07
9.510000e+02 2.906559e+08
9.520000e+02 3.346757e+08
9.530000e+02 3.406181e+08
9.540000e+02 2.593528e+08
9.550000e+02 3.577037e+08
9.560000e+02 3.624310e+08
9.570000e+02 2.986580e+08
9.580000e+02 3.744811e+08
9.590000e+02 3.904617e+08
9.600000e+02 7.999462e+07
9.610000e+02 4.079473e+08
9.620000e+02 4.120746e+08
9.630000e+02 4.248043e+08
9.640000e+02 2.041616e+07
9.650000e+02 3.781682e+08
9.660000e+02 4.510924e+08
9.670000e+02 4.587376e+08
9.680000e+02 4.598850e+08
9.690000e+02 4.731492e+08
9.700000e+02 4.846660e+08
9.710000e+02 4.845589e+08
9.720000e+02 3.948897e+08
9.730000e+02 3.785806e+08
9.740000e+02 5.102823e+08
9.750000e+02 5.350607e+08
9.760000e+02 5.494447e+08
9.770000e+02 5.607380e+08
9.780000e+02 5.714611e+08
9.790000e+02 5.847373e+08
9.800000e+02 5.965688e+08
9.810000e+02 6.086471e+08
9.820000e+02 6.096417e+08
9.830000e+02 6.324022e+08
9.840000e+02 1.408912e+08
9.850000e+02 6.579016e+08
9.860000e+02 6.705866e+08
9.870000e+02 6.827306e+08
9.880000e+02 6.875221e+08
9.890000e+02 3.619222e+08
9.900000e+02 4.701370e+07
9.910000e+02 7.274718e+08
9.920000e+02 7.002274e+08
9.930000e+02 7.125863e+08
9.940000e+02 8.853350e+07
9.950000e+02 1.010873e+08
9.960000e+02 1.345213e+08
9.970000e+02 1.361574e+08
9.980000e+02 8.384290e+08
9.990000e+02 8.348961e+08
1.000000e+03 8.761375e+08
1.001000e+03 8.928634e+08
1.002000e+03 9.087091e+08
1.003000e+03 7.146575e+08
1.004000e+03 9.429713e+08
1.005000e+03 7.867362e+08
1.006000e+03 9.795176e+08
1.007000e+03 9.977683e+08
1.008000e+03 1.014886e+09
1.009000e+03 9.433035e+08
1.010000e+03 1.053492e+09
1.011000e+03 1.072729e+09
1.012000e+03 1.091354e+09
1.013000e+03 1.111701e+09
1.014000e+03 1.122916e+09
1.015000e+03 1.104580e+09
1.016000e+03 1.167719e+09
1.017000e+03 1.184019e+09
1.018000e+03 1.210743e+09
1.019000e+03 1.228063e+09
1.020000e+03 1.247498e+09
1.021000e+03 1.037717e+09
1.022000e+03 1.232842e+09
1.023000e+03 1.259424e+09
1.024000e+03 1.172860e+09
1.025000e+03 7.140081e+08
1.026000e+03 2.419981e+08
1.027000e+03 1.107747e+09
1.028000e+03 3.729846e+08
1.029000e+03 1.425835e+09
1.030000e+03 1.443866e+09
1.031000e+03 1.524533e+09
1.032000e+03 1.528961e+09
1.033000e+03 8.596007e+08
1.034000e+03 1.624149e+09
1.035000e+03 3.088252e+08
1.036000e+03 1.648949e+09
1.037000e+03 1.339649e+08
1.038000e+03 1.746344e+09
1.039000e+03 1.751521e+09
1.040000e+03 1.811575e+09
1.041000e+03 1.838137e+09
1.042000e+03 1.740488e+09
1.043000e+03 1.883146e+09
1.044000e+03 1.927803e+09
1.045000e+03 1.972145e+09
1.046000e+03 2.010187e+09
1.047000e+03 2.044984e+09
1.048000e+03 2.038882e+09
1.049000e+03 2.097735e+09
1.050000e+03 2.154546e+09
1.051000e+03 2.190858e+09
1.052000e+03 2.229137e+09
1.053000e+03 2.160746e+09
1.054000e+03 2.287144e+09
1.055000e+03 2.344253e+09
1.056000e+03 2.384720e+09
1.057000e+03 2.422107e+09
1.058000e+03 2.463939e+09
1.059000e+03 2.502902e+09
1.060000e+03 2.544795e+09
1.061000e+03 2.591384e+09
1.062000e+03 2.634085e+09
1.063000e+03 1.844972e+09
1.064000e+03 4.493074e+08
1.065000e+03 2.821521e+09
1.066000e+03 2.836780e+09
1.067000e+03 2.625776e+09
1.068000e+03 2.982236e+09
1.069000e+03 3.013800e+09
1.070000e+03 2.956860e+09
1.071000e+03 3.137134e+09
1.072000e+03 3.187143e+09
1.073000e+03 3.226594e+09
1.074000e+03 3.290673e+09
1.075000e+03 3.338886e+09
1.076000e+03 3.400232e+09
1.077000e+03 3.445401e+09
1.078000e+03 3.509279e+09
1.079000e+03 3.540307e+09
1.080000e+03 3.614181e+09
1.081000e+03 3.682380e+09
1.082000e+03 3.737974e+09
1.083000e+03 3.799782e+09
1.084000e+03 3.016968e+09
1.085000e+03 3.229755e+09
1.086000e+03 3.985896e+09
1.087000e+03 4.040100e+09
1.088000e+03 4.089629e+09
1.089000e+03 4.173110e+09
1.090000e+03 4.231109e+09
1.091000e+03 4.305976e+09
1.092000e+03 4.375124e+09
1.093000e+03 4.437656e+09
1.094000e+03 4.513570e+09
1.095000e+03 4.567234e+09
1.096000e+03 4.652717e+09
1.097000e+03 4.672049e+09
1.098000e+03 4.689865e+09
1.099000e+03 4.863206e+09
1.100000e+03 4.840827e+09
1.101000e+03 4.557915e+09
1.102000e+03 1.031189e+10
1.103000e+03 3.195250e+10
1.104000e+03 1.182587e+10
1.105000e+03 4.908872e+09
1.106000e+03 6.958006e+10
1.107000e+03 5.765546e+10
1.108000e+03 7.163992e+10
1.109000e+03 3.730872e+10
1.110000e+03 7.945938e+09
1.111000e+03 1.100376e+10
1.112000e+03 6.564033e+10
1.113000e+03 7.598250e+10
1.114000e+03 3.678671e+09
1.115000e+03 7.300837e+10
1.116000e+03 7.494432e+10
1.117000e+03 3.708584e+09
1.118000e+03 6.618239e+10
1.119000e+03 7.936327e+10
1.120000e+03 7.919032e+10
1.121000e+03 4.913789e+10
1.122000e+03 8.094802e+08
1.123000e+03 1.022356e+10
1.124000e+03 8.349296e+10
1.125000e+03 2.697705e+10
1.126000e+03 8.617483e+10
1.127000e+03 8.212500e+10
1.128000e+03 3.705315e+10
1.129000e+03 8.692470e+10
1.130000e+03 5.432494e+10
1.131000e+03 9.167291e+10
1.132000e+03 2.397880e+09
1.133000e+03 8.361859e+10
1.134000e+03 8.961876e+10
1.135000e+03 1.497305e+09
1.136000e+03 9.147903e+10
1.137000e+03 9.748398e+10
1.138000e+03 9.887921e+10
1.139000e+03 9.778377e+10
1.140000e+03 1.668448e+09
1.141000e+03 1.027141e+11
1.142000e+03 8.910291e+10
1.143000e+03 1.041401e+11
1.144000e+03 1.057948e+11
1.145000e+03 7.631639e+10
1.146000e+03 1.073225e+11
1.147000e+03 1.063707e+11
1.148000e+03 1.053811e+11
1.149000e+03 1.111802e+11
1.150000e+03 1.010394e+11
1.151000e+03 1.122802e+11
1.152000e+03 1.118561e+11
1.153000e+03 2.245204e+10
1.154000e+03 3.465052e+09
1.155000e+03 9.451467e+10
1.156000e+03 3.840461e+10
1.157000e+03 1.201337e+11
1.158000e+03 2.860809e+09
1.159000e+03 1.029972e+11
1.160000e+03 1.210963e+11
1.161000e+03 1.261095e+11
1.162000e+03 1.114701e+10
1.163000e+03 1.174720e+11
1.164000e+03 5.197300e+09
1.165000e+03 1.309179e+11
1.166000e+03 1.272776e+11
1.167000e+03 1.102336e+11
1.168000e+03 1.347978e+11
1.169000e+03 1.308658e+11
1.170000e+03 1.374777e+11
1.171000e+03 1.386432e+11
1.172000e+03 1.227548e+11
1.173000e+03 1.405241e+11
1.174000e+03 1.321412e+11
1.175000e+03 5.042627e+09
1.176000e+03 3.398468e+09
1.177000e+03 1.409762e+11
1.178000e+03 1.217108e+11
1.179000e+03 1.468634e+11
1.180000e+03 1.020355e+11
1.181000e+03 1.415671e+11
1.182000e+03 1.497439e+11
1.183000e+03 1.500160e+11
1.184000e+03 1.507740e+11
1.185000e+03 1.395654e+11
1.186000e+03 1.506316e+11
1.187000e+03 1.515443e+11
1.188000e+03 1.384473e+11
1.189000e+03 3.522871e+09
1.190000e+03 3.105235e+10
1.191000e+03 1.444537e+11
1.192000e+03 1.451175e+11
1.193000e+03 2.729419e+09
1.194000e+03 4.038705e+09
1.195000e+03 5.704032e+10
1.196000e+03 1.389115e+11
1.197000e+03 1.454507e+11
1.198000e+03 1.475133e+11
1.199000e+03 1.416770e+11
1.200000e+03 1.228001e+11
1.201000e+03 1.282014e+11
1.202000e+03 1.248846e+11
1.203000e+03 1.235659e+11
1.204000e+03 1.102010e+11
1.205000e+03 1.019829e+11
1.206000e+03 7.374328e+10
1.207000e+03 4.629447e+10
1.208000e+03 6.609817e+10
1.209000e+03 4.964197e+10
1.210000e+03 6.424502e+09
1.211000e+03 3.002743e+10
1.212000e+03 2.017965e+10
1.213000e+03 1.248345e+10
1.214000e+03 7.215202e+09
1.215000e+03 4.372824e+09
1.216000e+03 3.885865e+09
1.217000e+03 6.241388e+09
1.218000e+03 1.113270e+10
1.219000e+03 1.905187e+10
1.220000e+03 2.985181e+10
1.221000e+03 4.308822e+10
1.222000e+03 5.819750e+10
1.223000e+03 7.469812e+10
1.224000e+03 9.211861e+10
1.225000e+03 1.098381e+11
1.226000e+03 1.267090e+11
1.227000e+03 1.454570e+11
1.228000e+03 1.647711e+11
1.229000e+03 1.816791e+11
1.230000e+03 1.985837e+11
1.231000e+03 2.166784e+11
1.232000e+03 2.340828e+11
1.233000e+03 2.501284e+11
1.234000e+03 1.581410e+11
1.235000e+03 2.791373e+11
1.236000e+03 2.928638e+11
1.237000e+03 3.071097e+11
1.238000e+03 3.205925e+11
1.239000e+03 3.336530e+11
1.240000e+03 3.138917e+11
1.241000e+03 5.531267e+11
1.242000e+03 3.008345e+11
1.243000e+03 4.559046e+11
1.244000e+03 1.861564e+11
1.245000e+03 2.803610e+11
1.246000e+03 8.382959e+11
1.247000e+03 9.241953e+11
1.248000e+03 2.013023e+11
1.249000e+03 2.576312e+11
1.250000e+03 1.068192e+12
1.251000e+03 1.089736e+12
1.252000e+03 1.066455e+12
1.253000e+03 1.215964e+12
1.254000e+03 1.230292e+12
1.255000e+03 1.263177e+12
1.256000e+03 1.280730e+12
1.257000e+03 1.381865e+12
1.258000e+03 1.353158e+12
1.259000e+03 1.289639e+12
1.260000e+03 1.054989e+12
1.261000e+03 8.480559e+09
1.262000e+03 1.191927e+11
1.263000e+03 1.544373e+12
1.264000e+03 1.304768e+12
1.265000e+03 7.615889e+09
1.266000e+03 1.602525e+12
1.267000e+03 1.726062e+12
