# wavelength_A flux
5.000000e+02 1.232929e-33
5.010000e+02 1.551251e-33
5.020000e+02 1.949998e-33
5.030000e+02 2.449051e-33
5.040000e+02 3.073143e-33
5.050000e+02 9.533336e-33
5.060000e+02 1.188266e-32
5.070000e+02 1.479859e-32
5.080000e+02 1.841480e-32
5.090000e+02 2.289579e-32
5.100000e+02 2.844348e-32
5.110000e+02 3.530749e-32
5.120000e+02 4.379190e-32
5.130000e+02 5.427139e-32
5.140000e+02 6.720477e-32
5.150000e+02 8.315158e-32
5.160000e+02 1.028121e-31
5.170000e+02 1.269815e-31
5.180000e+02 1.567820e-31
5.190000e+02 1.933804e-31
5.200000e+02 2.383374e-31
5.210000e+02 2.934975e-31
5.220000e+02 3.597528e-31
5.230000e+02 4.440537e-31
5.240000e+02 5.457539e-31
5.250000e+02 6.701466e-31
5.260000e+02 8.222070e-31
5.270000e+02 1.008015e-30
5.280000e+02 1.234899e-30
5.290000e+02 1.509277e-30
5.300000e+02 1.849226e-30
5.310000e+02 2.260502e-30
5.320000e+02 2.761264e-30
5.330000e+02 3.370464e-30
5.340000e+02 4.111087e-30
5.350000e+02 5.010921e-30
5.360000e+02 6.101680e-30
5.370000e+02 4.724600e-30
5.380000e+02 9.032462e-30
5.390000e+02 1.098214e-29
5.400000e+02 1.334155e-29
5.410000e+02 1.617660e-29
5.420000e+02 1.964270e-29
5.430000e+02 2.381150e-29
5.440000e+02 2.884394e-29
5.450000e+02 3.491641e-29
5.460000e+02 4.218391e-29
5.470000e+02 5.106356e-29
5.480000e+02 6.169052e-29
5.490000e+02 7.448044e-29
5.500000e+02 8.986418e-29
5.510000e+02 1.083535e-28
5.520000e+02 1.305623e-28
5.530000e+02 1.572220e-28
5.540000e+02 1.892042e-28
5.550000e+02 2.275473e-28
5.560000e+02 2.734878e-28
5.570000e+02 3.284963e-28
5.580000e+02 3.943221e-28
5.590000e+02 4.730435e-28
5.600000e+02 5.671291e-28
5.610000e+02 6.795088e-28
5.620000e+02 8.136579e-28
5.630000e+02 9.736967e-28
5.640000e+02 1.164507e-27
5.650000e+02 1.391870e-27
5.660000e+02 1.662645e-27
5.670000e+02 1.984877e-27
5.680000e+02 2.368170e-27
5.690000e+02 2.823810e-27
5.700000e+02 3.365120e-27
5.710000e+02 4.007860e-27
5.720000e+02 4.770581e-27
5.730000e+02 5.675166e-27
5.740000e+02 6.747386e-27
5.750000e+02 8.022242e-27
5.760000e+02 9.485052e-27
5.770000e+02 1.130742e-26
5.780000e+02 1.341306e-26
5.790000e+02 1.590204e-26
5.800000e+02 1.884189e-26
5.810000e+02 2.231231e-26
5.820000e+02 2.640544e-26
5.830000e+02 3.122105e-26
5.840000e+02 3.652627e-26
5.850000e+02 4.352603e-26
5.860000e+02 5.152618e-26
5.870000e+02 6.083480e-26
5.880000e+02 7.177727e-26
5.890000e+02 8.462913e-26
5.900000e+02 9.974476e-26
5.910000e+02 1.174853e-25
5.920000e+02 1.383137e-25
5.930000e+02 1.627445e-25
5.940000e+02 1.913908e-25
5.950000e+02 2.249627e-25
5.960000e+02 2.642872e-25
5.970000e+02 3.103266e-25
5.980000e+02 3.642003e-25
5.990000e+02 4.272098e-25
6.000000e+02 5.008676e-25
6.010000e+02 5.862397e-25
6.020000e+02 6.874363e-25
6.030000e+02 8.047518e-25
6.040000e+02 9.416393e-25
6.050000e+02 1.101248e-24
6.060000e+02 1.287278e-24
6.070000e+02 1.504003e-24
6.080000e+02 1.756361e-24
6.090000e+02 2.050070e-24
6.100000e+02 2.391730e-24
6.110000e+02 2.789040e-24
6.120000e+02 3.250773e-24
6.130000e+02 3.787146e-24
6.140000e+02 4.409938e-24
6.150000e+02 5.132738e-24
6.160000e+02 5.971212e-24
6.170000e+02 6.943543e-24
6.180000e+02 8.070329e-24
6.190000e+02 9.375618e-24
6.200000e+02 1.088710e-23
6.210000e+02 1.263645e-23
6.220000e+02 1.466023e-23
6.230000e+02 1.700041e-23
6.240000e+02 1.970532e-23
6.250000e+02 2.283035e-23
6.260000e+02 2.643918e-23
6.270000e+02 3.060483e-23
6.280000e+02 3.541156e-23
6.290000e+02 4.095496e-23
6.300000e+02 4.734408e-23
6.310000e+02 5.382064e-23
6.320000e+02 6.318998e-23
6.330000e+02 7.288340e-23
6.340000e+02 8.419204e-23
6.350000e+02 9.708093e-23
6.360000e+02 1.119766e-22
6.370000e+02 1.290665e-22
6.380000e+02 1.486941e-22
6.390000e+02 1.712344e-22
6.400000e+02 1.971093e-22
6.410000e+02 2.267996e-22
6.420000e+02 2.608542e-22
6.430000e+02 2.998982e-22
6.440000e+02 3.446445e-22
6.450000e+02 3.959047e-22
6.460000e+02 4.546076e-22
6.470000e+02 5.217998e-22
6.480000e+02 5.986817e-22
6.490000e+02 6.866154e-22
6.500000e+02 7.870819e-22
6.510000e+02 9.020434e-22
6.520000e+02 1.033303e-21
6.530000e+02 1.183192e-21
6.540000e+02 1.354292e-21
6.550000e+02 1.549528e-21
6.560000e+02 1.772220e-21
6.570000e+02 2.025855e-21
6.580000e+02 2.315524e-21
6.590000e+02 2.645238e-21
6.600000e+02 3.020677e-21
6.610000e+02 3.448236e-21
6.620000e+02 3.934736e-21
6.630000e+02 4.488181e-21
6.640000e+02 5.117566e-21
6.650000e+02 5.832946e-21
6.660000e+02 6.645975e-21
6.670000e+02 7.569452e-21
6.680000e+02 8.618072e-21
6.690000e+02 9.808357e-21
6.700000e+02 1.115893e-20
6.710000e+02 1.269085e-20
6.720000e+02 1.442781e-20
6.730000e+02 1.639658e-20
6.740000e+02 1.862729e-20
6.750000e+02 2.115388e-20
6.760000e+02 2.401459e-20
6.770000e+02 2.725246e-20
6.780000e+02 3.091594e-20
6.790000e+02 3.505950e-20
6.800000e+02 3.974462e-20
6.810000e+02 4.503986e-20
6.820000e+02 5.102277e-20
6.830000e+02 5.778044e-20
6.840000e+02 6.541042e-20
6.850000e+02 7.402139e-20
6.860000e+02 8.373968e-20
6.870000e+02 9.470017e-20
6.880000e+02 1.070588e-19
6.890000e+02 1.209894e-19
6.900000e+02 1.366865e-19
6.910000e+02 1.543683e-19
6.920000e+02 1.742791e-19
6.930000e+02 1.966925e-19
6.940000e+02 2.219151e-19
6.950000e+02 2.502890e-19
6.960000e+02 2.821991e-19
6.970000e+02 3.180557e-19
6.980000e+02 3.583877e-19
6.990000e+02 4.036823e-19
7.000000e+02 4.545542e-19
7.010000e+02 5.116720e-19
7.020000e+02 5.757819e-19
7.030000e+02 6.477163e-19
7.040000e+02 7.284078e-19
7.050000e+02 8.188905e-19
7.060000e+02 9.203163e-19
7.070000e+02 1.033991e-18
7.080000e+02 1.161336e-18
7.090000e+02 1.303928e-18
7.100000e+02 1.463637e-18
7.110000e+02 1.642369e-18
7.120000e+02 1.842351e-18
7.130000e+02 2.066047e-18
7.140000e+02 2.316195e-18
7.150000e+02 2.595830e-18
7.160000e+02 2.908359e-18
7.170000e+02 3.257481e-18
7.180000e+02 3.647333e-18
7.190000e+02 4.082949e-18
7.200000e+02 4.569017e-18
7.210000e+02 5.111429e-18
7.220000e+02 5.716534e-18
7.230000e+02 6.391381e-18
7.240000e+02 7.143791e-18
7.250000e+02 7.982466e-18
7.260000e+02 8.916904e-18
7.270000e+02 9.957942e-18
7.280000e+02 1.111723e-17
7.290000e+02 1.240789e-17
7.300000e+02 1.384441e-17
7.310000e+02 1.544282e-17
7.320000e+02 1.722084e-17
7.330000e+02 1.919811e-17
7.340000e+02 2.139635e-17
7.350000e+02 2.383954e-17
7.360000e+02 2.655363e-17
7.370000e+02 2.956982e-17
7.380000e+02 3.291864e-17
7.390000e+02 3.663660e-17
7.400000e+02 4.076257e-17
7.410000e+02 4.534189e-17
7.420000e+02 5.042038e-17
7.430000e+02 5.605387e-17
7.440000e+02 6.229890e-17
7.450000e+02 6.922091e-17
7.460000e+02 7.689116e-17
7.470000e+02 8.538827e-17
7.480000e+02 9.479888e-17
7.490000e+02 1.052184e-16
7.500000e+02 1.167520e-16
7.510000e+02 1.295155e-16
7.520000e+02 1.436361e-16
7.530000e+02 1.592542e-16
7.540000e+02 1.765241e-16
7.550000e+02 1.956156e-16
7.560000e+02 2.167152e-16
7.570000e+02 2.400032e-16
7.580000e+02 2.657800e-16
7.590000e+02 2.942137e-16
7.600000e+02 3.256157e-16
7.610000e+02 3.602727e-16
7.620000e+02 3.985167e-16
7.630000e+02 4.407070e-16
7.640000e+02 4.872403e-16
7.650000e+02 5.385495e-16
7.660000e+02 5.951143e-16
7.670000e+02 6.574537e-16
7.680000e+02 7.261219e-16
7.690000e+02 7.941532e-16
7.700000e+02 8.851386e-16
7.710000e+02 9.768866e-16
7.720000e+02 1.077880e-15
7.730000e+02 1.189022e-15
7.740000e+02 1.311302e-15
7.750000e+02 1.445806e-15
7.760000e+02 1.592728e-15
7.770000e+02 1.756339e-15
7.780000e+02 1.935087e-15
7.790000e+02 2.131514e-15
7.800000e+02 2.347316e-15
7.810000e+02 2.584352e-15
7.820000e+02 2.844650e-15
7.830000e+02 3.130421e-15
7.840000e+02 3.444086e-15
7.850000e+02 3.788289e-15
7.860000e+02 4.165896e-15
7.870000e+02 4.580398e-15
7.880000e+02 5.034636e-15
7.890000e+02 5.532634e-15
7.900000e+02 6.078486e-15
7.910000e+02 6.676655e-15
7.920000e+02 7.332004e-15
7.930000e+02 8.049839e-15
7.940000e+02 8.835934e-15
7.950000e+02 9.696592e-15
7.960000e+02 1.063867e-14
7.970000e+02 1.166965e-14
7.980000e+02 1.279766e-14
7.990000e+02 1.403157e-14
8.000000e+02 1.538101e-14
8.010000e+02 1.685639e-14
8.020000e+02 1.846941e-14
8.030000e+02 2.023218e-14
8.040000e+02 2.215832e-14
8.050000e+02 2.426251e-14
8.060000e+02 2.656072e-14
8.070000e+02 2.907028e-14
8.080000e+02 3.181004e-14
8.090000e+02 3.480049e-14
8.100000e+02 3.806385e-14
8.110000e+02 4.162429e-14
8.120000e+02 4.550799e-14
8.130000e+02 4.974348e-14
8.140000e+02 5.436157e-14
8.150000e+02 5.939581e-14
8.160000e+02 6.488254e-14
8.170000e+02 7.086106e-14
8.180000e+02 7.737453e-14
8.190000e+02 8.446886e-14
8.200000e+02 9.219452e-14
8.210000e+02 1.006058e-13
8.220000e+02 1.097617e-13
8.230000e+02 1.197262e-13
8.240000e+02 1.305684e-13
8.250000e+02 1.423634e-13
8.260000e+02 1.551921e-13
8.270000e+02 1.691423e-13
8.280000e+02 1.843092e-13
8.290000e+02 2.007954e-13
8.300000e+02 2.187123e-13
8.310000e+02 2.381800e-13
8.320000e+02 2.593286e-13
8.330000e+02 2.822987e-13
8.340000e+02 3.072422e-13
8.350000e+02 3.337707e-13
8.360000e+02 3.637134e-13
8.370000e+02 3.956232e-13
8.380000e+02 4.302157e-13
8.390000e+02 4.677954e-13
8.400000e+02 5.085290e-13
8.410000e+02 5.527020e-13
8.420000e+02 6.005678e-13
8.430000e+02 6.525138e-13
8.440000e+02 7.087833e-13
8.450000e+02 7.697577e-13
8.460000e+02 8.358179e-13
8.470000e+02 9.073742e-13
8.480000e+02 9.848695e-13
8.490000e+02 1.068781e-12
8.500000e+02 1.159623e-12
8.510000e+02 1.257950e-12
8.520000e+02 1.364351e-12
8.530000e+02 1.479491e-12
8.540000e+02 1.604068e-12
8.550000e+02 1.738782e-12
8.560000e+02 1.884462e-12
8.570000e+02 2.041970e-12
8.580000e+02 2.203314e-12
8.590000e+02 2.396259e-12
8.600000e+02 2.595116e-12
8.610000e+02 2.808524e-12
8.620000e+02 3.042048e-12
8.630000e+02 3.292692e-12
8.640000e+02 3.563368e-12
8.650000e+02 3.855389e-12
8.660000e+02 4.171034e-12
8.670000e+02 4.511476e-12
8.680000e+02 4.878837e-12
8.690000e+02 5.275175e-12
8.700000e+02 5.702700e-12
8.710000e+02 6.163789e-12
8.720000e+02 6.660990e-12
8.730000e+02 7.197036e-12
8.740000e+02 7.774861e-12
8.750000e+02 8.397614e-12
8.760000e+02 9.068676e-12
8.770000e+02 9.791593e-12
8.780000e+02 1.057046e-11
8.790000e+02 1.140927e-11
8.800000e+02 1.231252e-11
8.810000e+02 1.328500e-11
8.820000e+02 1.433186e-11
8.830000e+02 1.545857e-11
8.840000e+02 1.667106e-11
8.850000e+02 1.797561e-11
8.860000e+02 1.937898e-11
8.870000e+02 2.088842e-11
8.880000e+02 2.251166e-11
8.890000e+02 2.425700e-11
8.900000e+02 2.613334e-11
8.910000e+02 2.815014e-11
8.920000e+02 3.029883e-11
8.930000e+02 3.264656e-11
8.940000e+02 3.514865e-11
8.950000e+02 3.783635e-11
8.960000e+02 4.072293e-11
8.970000e+02 4.382259e-11
8.980000e+02 4.715057e-11
8.990000e+02 5.072310e-11
9.000000e+02 5.455751e-11
9.010000e+02 5.867239e-11
9.020000e+02 6.308748e-11
9.030000e+02 6.782316e-11
9.040000e+02 7.290459e-11
9.050000e+02 7.834364e-11
9.060000e+02 8.419612e-11
9.070000e+02 9.045822e-11
9.080000e+02 9.717514e-11
9.090000e+02 1.043722e-10
9.100000e+02 1.120847e-10
9.110000e+02 1.203515e-10
9.120000e+02 1.292416e-10
9.130000e+02 1.214154e-10
9.140000e+02 8.149073e-10
9.150000e+02 3.961786e-03
9.160000e+02 6.476372e-03
9.170000e+02 3.260158e-03
9.180000e+02 6.984305e-03
9.190000e+02 7.511330e-03
9.200000e+02 7.857753e-03
9.210000e+02 2.221157e-10
9.220000e+02 8.251196e-03
9.230000e+02 8.589337e-03
9.240000e+02 8.571088e-03
9.250000e+02 7.577292e-03
9.260000e+02 9.840719e-03
9.270000e+02 3.833226e-03
9.280000e+02 1.100340e-02
9.290000e+02 1.089664e-02
9.300000e+02 1.142332e-02
9.310000e+02 5.096821e-03
9.320000e+02 1.302386e-02
9.330000e+02 1.355140e-02
9.340000e+02 1.408716e-02
9.350000e+02 1.354609e-06
9.360000e+02 4.640500e-03
9.370000e+02 3.517816e-07
9.380000e+02 3.283728e-04
9.390000e+02 9.667268e-03
9.400000e+02 1.783516e-02
9.410000e+02 1.679579e-05
9.420000e+02 1.936711e-02
9.430000e+02 1.583603e-02
9.440000e+02 1.257262e-02
9.450000e+02 2.171328e-02
9.460000e+02 2.175083e-02
9.470000e+02 2.340525e-04
9.480000e+02 1.824017e-03
9.490000e+02 2.374639e-02
9.500000e+02 6.295741e-07
9.510000e+02 2.523685e-02
9.520000e+02 2.793123e-02
9.530000e+02 4.122460e-03
9.540000e+02 3.914260e-04
9.550000e+02 2.338273e-02
9.560000e+02 1.212204e-03
9.570000e+02 5.423278e-04
9.580000e+02 4.088879e-05
9.590000e+02 4.016243e-02
9.600000e+02 1.396984e-06
9.610000e+02 4.119595e-02
9.620000e+02 3.921568e-02
9.630000e+02 2.703135e-02
9.640000e+02 1.676381e-07
9.650000e+02 1.084672e-03
9.660000e+02 3.667999e-02
9.670000e+02 1.234217e-02
9.680000e+02 6.054498e-03
9.690000e+02 5.210442e-02
9.700000e+02 5.426794e-02
9.710000e+02 1.458749e-02
9.720000e+02 7.147450e-03
9.730000e+02 2.793360e-02
9.740000e+02 5.841930e-02
9.750000e+02 4.836367e-02
9.760000e+02 7.930426e-02
9.770000e+02 8.207945e-02
9.780000e+02 7.786710e-02
9.790000e+02 9.258594e-02
9.800000e+02 9.613365e-02
9.810000e+02 8.889433e-02
9.820000e+02 5.757785e-02
9.830000e+02 1.090734e-01
9.840000e+02 6.473771e-04
9.850000e+02 7.102140e-02
9.860000e+02 8.624660e-02
9.870000e+02 1.296369e-01
9.880000e+02 1.677014e-03
9.890000e+02 9.895212e-02
9.900000e+02 7.845014e-05
9.910000e+02 2.536917e-02
9.920000e+02 1.124265e-04
9.930000e+02 9.383208e-02
9.940000e+02 9.238720e-07
9.950000e+02 1.025433e-03
9.960000e+02 9.208560e-03
9.970000e+02 1.284853e-05
9.980000e+02 1.842216e-01
9.990000e+02 1.236664e-02
1.000000e+03 1.788051e-01
1.001000e+03 2.402306e-01
1.002000e+03 2.501806e-01
1.003000e+03 1.048111e-01
1.004000e+03 2.930000e-03
1.005000e+03 1.739727e-01
1.006000e+03 2.956634e-01
1.007000e+03 3.080796e-01
1.008000e+03 3.122955e-01
1.009000e+03 1.270036e-01
1.010000e+03 3.450426e-01
1.011000e+03 3.632272e-01
1.012000e+03 3.746037e-01
1.013000e+03 3.888130e-01
1.014000e+03 2.786517e-04
1.015000e+03 2.703130e-03
1.016000e+03 2.162256e-01
1.017000e+03 2.386570e-04
1.018000e+03 1.898871e-01
1.019000e+03 2.967030e-03
1.020000e+03 4.967101e-01
1.021000e+03 1.399934e-03
1.022000e+03 7.944566e-02
1.023000e+03 9.478986e-03
1.024000e+03 1.166765e-01
1.025000e+03 1.704947e-04
1.026000e+03 5.230380e-04
1.027000e+03 1.198096e-01
1.028000e+03 4.315376e-05
1.029000e+03 4.689693e-04
1.030000e+03 5.332804e-01
1.031000e+03 6.256168e-01
1.032000e+03 4.879619e-01
1.033000e+03 8.061528e-04
1.034000e+03 7.498127e-01
1.035000e+03 1.847744e-05
1.036000e+03 1.114488e-03
1.037000e+03 9.975418e-01
1.038000e+03 1.055872e+00
1.039000e+03 1.022941e+00
1.040000e+03 1.144026e+00
1.041000e+03 1.004191e+00
1.042000e+03 1.243928e+00
1.043000e+03 7.208472e-01
1.044000e+03 1.352244e+00
1.045000e+03 1.360859e+00
1.046000e+03 1.428660e+00
1.047000e+03 1.315206e+00
1.048000e+03 1.128758e-01
1.049000e+03 1.226809e+00
1.050000e+03 1.188859e+00
1.051000e+03 9.028922e-01
1.052000e+03 1.817546e+00
1.053000e+03 1.900234e+00
1.054000e+03 1.555800e-03
1.055000e+03 1.460809e+00
1.056000e+03 2.122791e+00
1.057000e+03 2.040097e+00
1.058000e+03 1.355531e+00
1.059000e+03 8.263738e-01
1.060000e+03 1.404827e-01
1.061000e+03 2.490051e+00
1.062000e+03 9.676488e-01
1.063000e+03 6.079711e-04
1.064000e+03 3.242493e-05
1.065000e+03 2.820253e-03
1.066000e+03 8.544397e-02
1.067000e+03 3.694744e-01
1.068000e+03 3.351213e+00
1.069000e+03 6.871571e-02
1.070000e+03 3.137681e+00
1.071000e+03 3.725669e+00
1.072000e+03 3.872566e+00
1.073000e+03 8.751392e-03
1.074000e+03 3.724435e+00
1.075000e+03 3.585608e+00
1.076000e+03 4.261617e+00
1.077000e+03 2.365112e-03
1.078000e+03 2.034260e+00
1.079000e+03 3.897406e+00
1.080000e+03 3.996434e+00
1.081000e+03 5.231561e+00
1.082000e+03 5.271237e+00
1.083000e+03 5.156026e+00
1.084000e+03 5.354998e+00
1.085000e+03 9.006610e-01
1.086000e+03 6.307489e+00
1.087000e+03 1.397173e+00
1.088000e+03 6.601390e+00
1.089000e+03 6.868707e+00
1.090000e+03 4.461742e+00
1.091000e+03 4.921909e+00
1.092000e+03 5.718905e+00
1.093000e+03 7.711402e+00
1.094000e+03 7.578213e+00
1.095000e+03 8.325155e+00
1.096000e+03 1.930652e-01
1.097000e+03 7.766135e+00
1.098000e+03 7.863813e+00
1.099000e+03 7.526439e+00
1.100000e+03 2.107151e-01
1.101000e+03 9.455812e-01
1.102000e+03 8.055791e+00
1.103000e+03 1.548482e+01
1.104000e+03 1.358367e+01
1.105000e+03 1.096265e+01
1.106000e+03 1.604215e+01
1.107000e+03 2.936077e-01
1.108000e+03 1.841426e+01
1.109000e+03 6.240067e+00
1.110000e+03 1.173611e+01
1.111000e+03 1.540108e+01
1.112000e+03 1.925815e+01
1.113000e+03 1.704276e+01
1.114000e+03 9.942155e+00
1.115000e+03 7.969166e+00
1.116000e+03 5.191272e+00
1.117000e+03 1.237347e+01
1.118000e+03 8.264141e+00
1.119000e+03 2.198414e+01
1.120000e+03 6.096889e+00
1.121000e+03 2.333382e+01
1.122000e+03 1.001526e+00
1.123000e+03 1.787132e+01
1.124000e+03 2.484294e+01
1.125000e+03 2.075532e+01
1.126000e+03 2.587854e+01
1.127000e+03 2.555928e+01
1.128000e+03 1.628328e+01
1.129000e+03 2.618628e+01
1.130000e+03 2.507103e+01
1.131000e+03 2.515274e+01
1.132000e+03 6.218910e-01
1.133000e+03 1.905134e+01
1.134000e+03 2.761936e+01
1.135000e+03 5.740738e-02
1.136000e+03 2.476059e+01
1.137000e+03 3.096128e+01
1.138000e+03 3.032861e+01
1.139000e+03 3.209157e+01
1.140000e+03 8.592092e+00
1.141000e+03 3.321743e+01
1.142000e+03 3.335747e+01
1.143000e+03 3.029119e+01
1.144000e+03 3.294355e+01
1.145000e+03 2.311914e+00
1.146000e+03 3.608765e+01
1.147000e+03 3.638091e+01
1.148000e+03 1.956757e+01
1.149000e+03 3.690029e+01
1.150000e+03 3.783978e+01
1.151000e+03 3.910263e+01
1.152000e+03 3.986197e+01
1.153000e+03 2.829130e+01
1.154000e+03 3.966945e+01
1.155000e+03 4.121161e+01
1.156000e+03 3.384054e+01
1.157000e+03 4.120242e+01
1.158000e+03 1.603536e+01
1.159000e+03 4.396682e+01
1.160000e+03 4.412503e+01
1.161000e+03 4.592170e+01
1.162000e+03 2.114217e+01
1.163000e+03 4.287336e+01
1.164000e+03 1.697159e-02
1.165000e+03 4.888480e+01
1.166000e+03 4.977095e+01
1.167000e+03 5.080662e+01
1.168000e+03 5.229585e+01
1.169000e+03 5.144749e+01
1.170000e+03 5.340074e+01
1.171000e+03 5.523314e+01
1.172000e+03 5.577745e+01
1.173000e+03 5.779493e+01
1.174000e+03 1.450362e+01
1.175000e+03 1.812744e-02
1.176000e+03 5.168915e-03
1.177000e+03 6.273878e+01
1.178000e+03 6.360566e+01
1.179000e+03 6.494960e+01
1.180000e+03 5.928032e+01
1.181000e+03 6.658077e+01
1.182000e+03 6.825053e+01
1.183000e+03 6.948306e+01
1.184000e+03 7.048349e+01
1.185000e+03 7.242563e+01
1.186000e+03 4.879967e+01
1.187000e+03 7.368072e+01
1.188000e+03 7.154996e+01
1.189000e+03 2.548077e+01
1.190000e+03 6.779722e+01
1.191000e+03 7.861317e+01
1.192000e+03 7.874373e+01
1.193000e+03 5.318947e+00
1.194000e+03 3.160992e+01
1.195000e+03 7.863833e+01
1.196000e+03 8.092387e+01
1.197000e+03 1.562513e+02
1.198000e+03 1.195753e+02
1.199000e+03 1.474637e+02
1.200000e+03 1.184759e+02
1.201000e+03 1.353343e+02
1.202000e+03 1.299447e+02
1.203000e+03 1.825761e+02
1.204000e+03 1.423725e+02
1.205000e+03 1.447435e+02
1.206000e+03 1.372444e+02
1.207000e+03 2.882195e+00
1.208000e+03 8.372392e+01
1.209000e+03 5.393514e+01
1.210000e+03 2.752495e-02
1.211000e+03 1.969880e+01
1.212000e+03 8.177553e+00
1.213000e+03 2.780012e+00
1.214000e+03 5.937325e-01
1.215000e+03 5.394353e-02
1.216000e+03 1.226161e-02
1.217000e+03 3.274539e-01
1.218000e+03 2.014236e+00
1.219000e+03 7.069736e+00
1.220000e+03 1.869759e+01
1.221000e+03 3.638874e+01
1.222000e+03 6.817430e+01
1.223000e+03 1.007122e+02
1.224000e+03 1.242443e+02
1.225000e+03 1.370398e+02
1.226000e+03 2.281539e+02
1.227000e+03 2.700452e+02
1.228000e+03 3.055296e+02
1.229000e+03 3.616004e+02
1.230000e+03 4.428432e+01
1.231000e+03 3.063441e+02
1.232000e+03 4.708428e+02
1.233000e+03 5.125355e+02
1.234000e+03 2.944623e+02
1.235000e+03 5.781912e+02
1.236000e+03 5.686342e+02
1.237000e+03 6.366176e+02
1.238000e+03 6.645296e+02
1.239000e+03 6.768143e+02
1.240000e+03 5.756525e+01
1.241000e+03 6.763395e+02
1.242000e+03 7.591536e+02
1.243000e+03 7.870515e+02
1.244000e+03 7.842559e+02
1.245000e+03 7.993755e+02
1.246000e+03 8.503992e+02
1.247000e+03 8.634764e+02
1.248000e+03 3.128043e+02
1.249000e+03 9.158536e+02
1.250000e+03 7.392115e+02
1.251000e+03 9.779978e+02
1.252000e+03 9.346578e+02
1.253000e+03 1.022617e+03
1.254000e+03 1.018214e+03
1.255000e+03 5.650217e+02
1.256000e+03 1.075728e+03
1.257000e+03 7.816721e+02
1.258000e+03 1.017348e+03
1.259000e+03 1.165552e+03
1.260000e+03 1.182700e+03
1.261000e+03 1.457068e+01
1.262000e+03 1.189680e+03
1.263000e+03 9.863596e+02
1.264000e+03 1.275264e+03
1.265000e+03 9.028931e-01
1.266000e+03 1.357889e+03
1.267000e+03 1.372482e+03
