# wavelength_A flux
5.000000e+02 1.684955e-09
5.010000e+02 1.922133e-09
5.020000e+02 2.191503e-09
5.030000e+02 2.497274e-09
5.040000e+02 2.844179e-09
5.050000e+02 3.275061e-09
5.060000e+02 3.725604e-09
5.070000e+02 4.235898e-09
5.080000e+02 4.813567e-09
5.090000e+02 5.467183e-09
5.100000e+02 6.206327e-09
5.110000e+02 7.041784e-09
5.120000e+02 7.985621e-09
5.130000e+02 9.051367e-09
5.140000e+02 1.025417e-08
5.150000e+02 1.161091e-08
5.160000e+02 1.314074e-08
5.170000e+02 1.486438e-08
5.180000e+02 1.680652e-08
5.190000e+02 1.899269e-08
5.200000e+02 2.145278e-08
5.210000e+02 2.421975e-08
5.220000e+02 2.732895e-08
5.230000e+02 3.082588e-08
5.240000e+02 3.475181e-08
5.250000e+02 3.915946e-08
5.260000e+02 4.410514e-08
5.270000e+02 4.965218e-08
5.280000e+02 5.587086e-08
5.290000e+02 6.283209e-08
5.300000e+02 7.064438e-08
5.310000e+02 7.938257e-08
5.320000e+02 8.916111e-08
5.330000e+02 1.000988e-07
5.340000e+02 1.123277e-07
5.350000e+02 1.259942e-07
5.360000e+02 1.412602e-07
5.370000e+02 1.574420e-07
5.380000e+02 1.773305e-07
5.390000e+02 1.985575e-07
5.400000e+02 2.222266e-07
5.410000e+02 2.485990e-07
5.420000e+02 2.780035e-07
5.430000e+02 3.107432e-07
5.440000e+02 3.471891e-07
5.450000e+02 3.877457e-07
5.460000e+02 4.328213e-07
5.470000e+02 4.830165e-07
5.480000e+02 5.387631e-07
5.490000e+02 6.006960e-07
5.500000e+02 6.694725e-07
5.510000e+02 7.458185e-07
5.520000e+02 8.305329e-07
5.530000e+02 9.244958e-07
5.540000e+02 1.028675e-06
5.550000e+02 1.144137e-06
5.560000e+02 1.272052e-06
5.570000e+02 1.413708e-06
5.580000e+02 1.570521e-06
5.590000e+02 1.744045e-06
5.600000e+02 1.935988e-06
5.610000e+02 2.148224e-06
5.620000e+02 2.382808e-06
5.630000e+02 2.641996e-06
5.640000e+02 2.928261e-06
5.650000e+02 3.244314e-06
5.660000e+02 3.593125e-06
5.670000e+02 3.977946e-06
5.680000e+02 4.402340e-06
5.690000e+02 4.870203e-06
5.700000e+02 5.385799e-06
5.710000e+02 5.953800e-06
5.720000e+02 6.579298e-06
5.730000e+02 7.267871e-06
5.740000e+02 8.025609e-06
5.750000e+02 8.859221e-06
5.760000e+02 9.775511e-06
5.770000e+02 1.078351e-05
5.780000e+02 1.189081e-05
5.790000e+02 1.310720e-05
5.800000e+02 1.444297e-05
5.810000e+02 1.590933e-05
5.820000e+02 1.751848e-05
5.830000e+02 1.928367e-05
5.840000e+02 2.121718e-05
5.850000e+02 2.334130e-05
5.860000e+02 2.566772e-05
5.870000e+02 2.821585e-05
5.880000e+02 3.100648e-05
5.890000e+02 3.406157e-05
5.900000e+02 3.740554e-05
5.910000e+02 4.106407e-05
5.920000e+02 4.506560e-05
5.930000e+02 4.944088e-05
5.940000e+02 5.422329e-05
5.950000e+02 5.944895e-05
5.960000e+02 6.515744e-05
5.970000e+02 7.139106e-05
5.980000e+02 7.819612e-05
5.990000e+02 8.562267e-05
6.000000e+02 9.372494e-05
6.010000e+02 1.025613e-04
6.020000e+02 1.121965e-04
6.030000e+02 1.226983e-04
6.040000e+02 1.341416e-04
6.050000e+02 1.466070e-04
6.060000e+02 1.601815e-04
6.070000e+02 1.749599e-04
6.080000e+02 1.910437e-04
6.090000e+02 2.085430e-04
6.100000e+02 2.275769e-04
6.110000e+02 2.482739e-04
6.120000e+02 2.707727e-04
6.130000e+02 2.952230e-04
6.140000e+02 3.217863e-04
6.150000e+02 3.506371e-04
6.160000e+02 3.819632e-04
6.170000e+02 4.159674e-04
6.180000e+02 4.528681e-04
6.190000e+02 4.929007e-04
6.200000e+02 5.363188e-04
6.210000e+02 5.833955e-04
6.220000e+02 6.344250e-04
6.230000e+02 6.897238e-04
6.240000e+02 7.496325e-04
6.250000e+02 8.145177e-04
6.260000e+02 8.847734e-04
6.270000e+02 9.608237e-04
6.280000e+02 1.043124e-03
6.290000e+02 1.132164e-03
6.300000e+02 1.228471e-03
6.310000e+02 1.332483e-03
6.320000e+02 1.445184e-03
6.330000e+02 1.566846e-03
6.340000e+02 1.698303e-03
6.350000e+02 1.840293e-03
6.360000e+02 1.993543e-03
6.370000e+02 2.159182e-03
6.380000e+02 2.337863e-03
6.390000e+02 2.530671e-03
6.400000e+02 2.738670e-03
6.410000e+02 2.962998e-03
6.420000e+02 3.204878e-03
6.430000e+02 3.465618e-03
6.440000e+02 3.746616e-03
6.450000e+02 4.049371e-03
6.460000e+02 4.375489e-03
6.470000e+02 4.726683e-03
6.480000e+02 5.104792e-03
6.490000e+02 5.511775e-03
6.500000e+02 5.949732e-03
6.510000e+02 6.420908e-03
6.520000e+02 6.927699e-03
6.530000e+02 7.472666e-03
6.540000e+02 8.058543e-03
6.550000e+02 8.688256e-03
6.560000e+02 9.364922e-03
6.570000e+02 1.009183e-02
6.580000e+02 1.087265e-02
6.590000e+02 1.171107e-02
6.600000e+02 1.261115e-02
6.610000e+02 1.357722e-02
6.620000e+02 1.461387e-02
6.630000e+02 1.572601e-02
6.640000e+02 1.691886e-02
6.650000e+02 1.819798e-02
6.660000e+02 1.956933e-02
6.670000e+02 2.103919e-02
6.680000e+02 2.261430e-02
6.690000e+02 2.430183e-02
6.700000e+02 2.610939e-02
6.710000e+02 2.804510e-02
6.720000e+02 3.011758e-02
6.730000e+02 3.233601e-02
6.740000e+02 3.471016e-02
6.750000e+02 3.725040e-02
6.760000e+02 3.996777e-02
6.770000e+02 4.287399e-02
6.780000e+02 4.598153e-02
6.790000e+02 4.930362e-02
6.800000e+02 5.285432e-02
6.810000e+02 5.664857e-02
6.820000e+02 6.070221e-02
6.830000e+02 6.503209e-02
6.840000e+02 6.965604e-02
6.850000e+02 7.459304e-02
6.860000e+02 7.986319e-02
6.870000e+02 8.548778e-02
6.880000e+02 9.148950e-02
6.890000e+02 9.789226e-02
6.900000e+02 1.047215e-01
6.910000e+02 1.120042e-01
6.920000e+02 1.197688e-01
6.930000e+02 1.280456e-01
6.940000e+02 1.368667e-01
6.950000e+02 1.462659e-01
6.960000e+02 1.562792e-01
6.970000e+02 1.669439e-01
6.980000e+02 1.783023e-01
6.990000e+02 1.903950e-01
7.000000e+02 2.032677e-01
7.010000e+02 2.169681e-01
7.020000e+02 2.315465e-01
7.030000e+02 2.470563e-01
7.040000e+02 2.635539e-01
7.050000e+02 2.810988e-01
7.060000e+02 2.997540e-01
7.070000e+02 3.195860e-01
7.080000e+02 3.406651e-01
7.090000e+02 3.630656e-01
7.100000e+02 3.868660e-01
7.110000e+02 4.121489e-01
7.120000e+02 4.390017e-01
7.130000e+02 4.675169e-01
7.140000e+02 4.977917e-01
7.150000e+02 5.299289e-01
7.160000e+02 5.640368e-01
7.170000e+02 6.002296e-01
7.180000e+02 6.386270e-01
7.190000e+02 6.793605e-01
7.200000e+02 7.225592e-01
7.210000e+02 7.683660e-01
7.220000e+02 8.169300e-01
7.230000e+02 8.684081e-01
7.240000e+02 9.229655e-01
7.250000e+02 9.807765e-01
7.260000e+02 1.042024e+00
7.270000e+02 1.106902e+00
7.280000e+02 1.175614e+00
7.290000e+02 1.248373e+00
7.300000e+02 1.325404e+00
7.310000e+02 1.406946e+00
7.320000e+02 1.493247e+00
7.330000e+02 1.584569e+00
7.340000e+02 1.681189e+00
7.350000e+02 1.783397e+00
7.360000e+02 1.891498e+00
7.370000e+02 2.005814e+00
7.380000e+02 2.126681e+00
7.390000e+02 2.254454e+00
7.400000e+02 2.389504e+00
7.410000e+02 2.532226e+00
7.420000e+02 2.683028e+00
7.430000e+02 2.842343e+00
7.440000e+02 3.010624e+00
7.450000e+02 3.188347e+00
7.460000e+02 3.376013e+00
7.470000e+02 3.574146e+00
7.480000e+02 3.783296e+00
7.490000e+02 4.004043e+00
7.500000e+02 4.236991e+00
7.510000e+02 4.482778e+00
7.520000e+02 4.742071e+00
7.530000e+02 5.015568e+00
7.540000e+02 5.304005e+00
7.550000e+02 5.608150e+00
7.560000e+02 5.928809e+00
7.570000e+02 6.266821e+00
7.580000e+02 6.623094e+00
7.590000e+02 6.998529e+00
7.600000e+02 7.394118e+00
7.610000e+02 7.810869e+00
7.620000e+02 8.249851e+00
7.630000e+02 8.712181e+00
7.640000e+02 9.199030e+00
7.650000e+02 9.711622e+00
7.660000e+02 1.025124e+01
7.670000e+02 1.081922e+01
7.680000e+02 1.141697e+01
7.690000e+02 1.204597e+01
7.700000e+02 1.270775e+01
7.710000e+02 1.340391e+01
7.720000e+02 1.413613e+01
7.730000e+02 1.490618e+01
7.740000e+02 1.571589e+01
7.750000e+02 1.656719e+01
7.760000e+02 1.746199e+01
7.770000e+02 1.840268e+01
7.780000e+02 1.939116e+01
7.790000e+02 2.042983e+01
7.800000e+02 2.152108e+01
7.810000e+02 2.266741e+01
7.820000e+02 2.387144e+01
7.830000e+02 2.513590e+01
7.840000e+02 2.646364e+01
7.850000e+02 2.785763e+01
7.860000e+02 2.932100e+01
7.870000e+02 3.085698e+01
7.880000e+02 3.246894e+01
7.890000e+02 3.416044e+01
7.900000e+02 3.593515e+01
7.910000e+02 3.779692e+01
7.920000e+02 3.974976e+01
7.930000e+02 4.179786e+01
7.940000e+02 4.394558e+01
7.950000e+02 4.619748e+01
7.960000e+02 4.855829e+01
7.970000e+02 5.103296e+01
7.980000e+02 5.362665e+01
7.990000e+02 5.634474e+01
8.000000e+02 5.919281e+01
8.010000e+02 6.217671e+01
8.020000e+02 6.530253e+01
8.030000e+02 6.857658e+01
8.040000e+02 7.200546e+01
8.050000e+02 7.559605e+01
8.060000e+02 7.935550e+01
8.070000e+02 8.329125e+01
8.080000e+02 8.741107e+01
8.090000e+02 9.172302e+01
8.100000e+02 9.623552e+01
8.110000e+02 1.009573e+02
8.120000e+02 1.058975e+02
8.130000e+02 1.110655e+02
8.140000e+02 1.164712e+02
8.150000e+02 1.221248e+02
8.160000e+02 1.280371e+02
8.170000e+02 1.342191e+02
8.180000e+02 1.406822e+02
8.190000e+02 1.474386e+02
8.200000e+02 1.545007e+02
8.210000e+02 1.618813e+02
8.220000e+02 1.695941e+02
8.230000e+02 1.776529e+02
8.240000e+02 1.860723e+02
8.250000e+02 1.948675e+02
8.260000e+02 2.040541e+02
8.270000e+02 2.136484e+02
8.280000e+02 2.236674e+02
8.290000e+02 2.341286e+02
8.300000e+02 2.450504e+02
8.310000e+02 2.564516e+02
8.320000e+02 2.683521e+02
8.330000e+02 2.807722e+02
8.340000e+02 2.937332e+02
8.350000e+02 3.072537e+02
8.360000e+02 3.213665e+02
8.370000e+02 3.360858e+02
8.380000e+02 3.514391e+02
8.390000e+02 3.674520e+02
8.400000e+02 3.841511e+02
8.410000e+02 4.015637e+02
8.420000e+02 4.197176e+02
8.430000e+02 4.386452e+02
8.440000e+02 4.583741e+02
8.450000e+02 4.789371e+02
8.460000e+02 5.003672e+02
8.470000e+02 5.226986e+02
8.480000e+02 5.459667e+02
8.490000e+02 5.702081e+02
8.500000e+02 5.954608e+02
8.510000e+02 6.217643e+02
8.520000e+02 6.491594e+02
8.530000e+02 6.776885e+02
8.540000e+02 7.073955e+02
8.550000e+02 7.383254e+02
8.560000e+02 7.705253e+02
8.570000e+02 8.040440e+02
8.580000e+02 8.389318e+02
8.590000e+02 8.752411e+02
8.600000e+02 9.130256e+02
8.610000e+02 9.523415e+02
8.620000e+02 9.932465e+02
8.630000e+02 1.035801e+03
8.640000e+02 1.080066e+03
8.650000e+02 1.126106e+03
8.660000e+02 1.173988e+03
8.670000e+02 1.223781e+03
8.680000e+02 1.275554e+03
8.690000e+02 1.329383e+03
8.700000e+02 1.385342e+03
8.710000e+02 1.443511e+03
8.720000e+02 1.503971e+03
8.730000e+02 1.566805e+03
8.740000e+02 1.632101e+03
8.750000e+02 1.699948e+03
8.760000e+02 1.770440e+03
8.770000e+02 1.843672e+03
8.780000e+02 1.919744e+03
8.790000e+02 1.998757e+03
8.800000e+02 2.080819e+03
8.810000e+02 2.166038e+03
8.820000e+02 2.254527e+03
8.830000e+02 2.346404e+03
8.840000e+02 2.441788e+03
8.850000e+02 2.540806e+03
8.860000e+02 2.643584e+03
8.870000e+02 2.750257e+03
8.880000e+02 2.860961e+03
8.890000e+02 2.975838e+03
8.900000e+02 3.095035e+03
8.910000e+02 3.218702e+03
8.920000e+02 3.346585e+03
8.930000e+02 3.480077e+03
8.940000e+02 3.618111e+03
8.950000e+02 3.761270e+03
8.960000e+02 3.909730e+03
8.970000e+02 4.063674e+03
8.980000e+02 4.223291e+03
8.990000e+02 4.388773e+03
9.000000e+02 4.560323e+03
9.010000e+02 4.738145e+03
9.020000e+02 4.922454e+03
9.030000e+02 5.113469e+03
9.040000e+02 5.311416e+03
9.050000e+02 5.516530e+03
9.060000e+02 5.729050e+03
9.070000e+02 5.949221e+03
9.080000e+02 6.177313e+03
9.090000e+02 6.413575e+03
9.100000e+02 6.658284e+03
9.110000e+02 6.911722e+03
9.120000e+02 7.174187e+03
9.130000e+02 7.440354e+03
9.140000e+02 7.747250e+03
9.150000e+02 2.577041e+04
9.160000e+02 5.287802e+04
9.170000e+02 5.415193e+04
9.180000e+02 4.763168e+04
9.190000e+02 7.996279e+04
9.200000e+02 9.100397e+04
9.210000e+02 9.984457e+03
9.220000e+02 9.848927e+04
9.230000e+02 6.011800e+04
9.240000e+02 9.070682e+04
9.250000e+02 1.043094e+05
9.260000e+02 8.499632e+04
9.270000e+02 1.008474e+05
9.280000e+02 1.216495e+05
9.290000e+02 1.122892e+05
9.300000e+02 1.254460e+05
9.310000e+02 9.373562e+04
9.320000e+02 1.369331e+05
9.330000e+02 1.386845e+05
9.340000e+02 1.415474e+05
9.350000e+02 2.988871e+04
9.360000e+02 1.269316e+05
9.370000e+02 2.568074e+04
9.380000e+02 8.269077e+04
9.390000e+02 1.440312e+05
9.400000e+02 1.741450e+05
9.410000e+02 7.380164e+04
9.420000e+02 1.849633e+05
9.430000e+02 1.689366e+05
9.440000e+02 1.542423e+05
9.450000e+02 2.021388e+05
9.460000e+02 2.052680e+05
9.470000e+02 1.540010e+05
9.480000e+02 2.035786e+05
9.490000e+02 2.192425e+05
9.500000e+02 4.507477e+04
9.510000e+02 2.264069e+05
9.520000e+02 2.428750e+05
9.530000e+02 1.744860e+05
9.540000e+02 1.740608e+05
9.550000e+02 2.545147e+05
9.560000e+02 2.633422e+05
9.570000e+02 1.564701e+05
9.580000e+02 1.532532e+05
9.590000e+02 3.036039e+05
9.600000e+02 5.528634e+04
9.610000e+02 3.139357e+05
9.620000e+02 3.111032e+05
9.630000e+02 3.229780e+05
9.640000e+02 4.562394e+04
9.650000e+02 2.537812e+05
9.660000e+02 3.454548e+05
9.670000e+02 3.163146e+05
9.680000e+02 2.766638e+05
9.690000e+02 3.823271e+05
9.700000e+02 3.890502e+05
9.710000e+02 3.364680e+05
9.720000e+02 3.536722e+05
9.730000e+02 3.825328e+05
9.740000e+02 4.383382e+05
9.750000e+02 4.399890e+05
9.760000e+02 4.844427e+05
9.770000e+02 4.945030e+05
9.780000e+02 4.895139e+05
9.790000e+02 5.310099e+05
9.800000e+02 5.456644e+05
9.810000e+02 5.410625e+05
9.820000e+02 5.012773e+05
9.830000e+02 5.904134e+05
9.840000e+02 2.652640e+05
9.850000e+02 5.888688e+05
9.860000e+02 5.990412e+05
9.870000e+02 6.573881e+05
9.880000e+02 4.656782e+05
9.890000e+02 5.538106e+05
9.900000e+02 1.211236e+05
9.910000e+02 5.572698e+05
9.920000e+02 3.685026e+05
9.930000e+02 7.458790e+05
9.940000e+02 1.298690e+05
9.950000e+02 2.530567e+05
9.960000e+02 6.061194e+05
9.970000e+02 2.199143e+05
9.980000e+02 8.657420e+05
9.990000e+02 7.552902e+05
1.000000e+03 9.279443e+05
1.001000e+03 9.551616e+05
1.002000e+03 9.775836e+05
1.003000e+03 8.526395e+05
1.004000e+03 7.547219e+05
1.005000e+03 9.134494e+05
1.006000e+03 1.082843e+06
1.007000e+03 1.113646e+06
1.008000e+03 1.133768e+06
1.009000e+03 1.046611e+06
1.010000e+03 1.193262e+06
1.011000e+03 1.230431e+06
1.012000e+03 1.253396e+06
1.013000e+03 1.281146e+06
1.014000e+03 6.297569e+05
1.015000e+03 8.835350e+05
1.016000e+03 1.208505e+06
1.017000e+03 7.028906e+05
1.018000e+03 1.308290e+06
1.019000e+03 1.000995e+06
1.020000e+03 1.539070e+06
1.021000e+03 8.707363e+05
1.022000e+03 1.287596e+06
1.023000e+03 1.075875e+06
1.024000e+03 1.592092e+06
1.025000e+03 7.371101e+05
1.026000e+03 6.542593e+05
1.027000e+03 1.590236e+06
1.028000e+03 4.375994e+05
1.029000e+03 9.766280e+05
1.030000e+03 1.889767e+06
1.031000e+03 1.830427e+06
1.032000e+03 2.050626e+06
1.033000e+03 7.682588e+05
1.034000e+03 2.103012e+06
1.035000e+03 4.709934e+05
1.036000e+03 1.200503e+06
1.037000e+03 2.020075e+06
1.038000e+03 2.409908e+06
1.039000e+03 2.438262e+06
1.040000e+03 2.509909e+06
1.041000e+03 2.584253e+06
1.042000e+03 2.635093e+06
1.043000e+03 2.601478e+06
1.044000e+03 2.791067e+06
1.045000e+03 2.834998e+06
1.046000e+03 2.921242e+06
1.047000e+03 2.849738e+06
1.048000e+03 2.271156e+06
1.049000e+03 3.049473e+06
1.050000e+03 3.083133e+06
1.051000e+03 3.029836e+06
1.052000e+03 3.356428e+06
1.053000e+03 3.435069e+06
1.054000e+03 1.772660e+06
1.055000e+03 3.622750e+06
1.056000e+03 3.711169e+06
1.057000e+03 3.685892e+06
1.058000e+03 3.705666e+06
1.059000e+03 3.214506e+06
1.060000e+03 3.075956e+06
1.061000e+03 4.061674e+06
1.062000e+03 3.899124e+06
1.063000e+03 2.045070e+06
1.064000e+03 9.763260e+05
1.065000e+03 2.493046e+06
1.066000e+03 4.318184e+06
1.067000e+03 3.685069e+06
1.068000e+03 4.916812e+06
1.069000e+03 3.126116e+06
1.070000e+03 5.010693e+06
1.071000e+03 5.262023e+06
1.072000e+03 5.375352e+06
1.073000e+03 3.277451e+06
1.074000e+03 5.336672e+06
1.075000e+03 5.333326e+06
1.076000e+03 5.885773e+06
1.077000e+03 5.057553e+06
1.078000e+03 5.708970e+06
1.079000e+03 6.065733e+06
1.080000e+03 6.274483e+06
1.081000e+03 6.485866e+06
1.082000e+03 6.624582e+06
1.083000e+03 6.710784e+06
1.084000e+03 7.044706e+06
1.085000e+03 6.038045e+06
1.086000e+03 7.357526e+06
1.087000e+03 6.109569e+06
1.088000e+03 7.674310e+06
1.089000e+03 7.860212e+06
1.090000e+03 7.341328e+06
1.091000e+03 7.430152e+06
1.092000e+03 8.378964e+06
1.093000e+03 8.556065e+06
1.094000e+03 8.647179e+06
1.095000e+03 8.941916e+06
1.096000e+03 9.007917e+06
1.097000e+03 9.186587e+06
1.098000e+03 9.509861e+06
1.099000e+03 9.468724e+06
1.100000e+03 7.421778e+06
1.101000e+03 7.992801e+06
1.102000e+03 1.552201e+07
1.103000e+03 6.174490e+07
1.104000e+03 2.329710e+07
1.105000e+03 1.036651e+07
1.106000e+03 6.914076e+07
1.107000e+03 1.123067e+07
1.108000e+03 9.947898e+07
1.109000e+03 2.586210e+07
1.110000e+03 4.072149e+07
1.111000e+03 2.244300e+07
1.112000e+03 8.892886e+07
1.113000e+03 1.310471e+08
1.114000e+03 8.863866e+06
1.115000e+03 4.518765e+07
1.116000e+03 3.714174e+07
1.117000e+03 8.781128e+06
1.118000e+03 3.405577e+07
1.119000e+03 1.105608e+08
1.120000e+03 4.075889e+07
1.121000e+03 1.228845e+08
1.122000e+03 3.802104e+06
1.123000e+03 2.614062e+07
1.124000e+03 1.416477e+08
1.125000e+03 9.196776e+07
1.126000e+03 1.642462e+08
1.127000e+03 1.532983e+08
1.128000e+03 6.010031e+07
1.129000e+03 1.225196e+08
1.130000e+03 1.504759e+08
1.131000e+03 1.711942e+08
1.132000e+03 1.188274e+07
1.133000e+03 5.083232e+07
1.134000e+03 1.272948e+08
1.135000e+03 8.697624e+06
1.136000e+03 8.916128e+07
1.137000e+03 1.810948e+08
1.138000e+03 1.312970e+08
1.139000e+03 1.878908e+08
1.140000e+03 6.918412e+06
1.141000e+03 1.883193e+08
1.142000e+03 2.044276e+08
1.143000e+03 1.848646e+08
1.144000e+03 2.129527e+08
1.145000e+03 3.628792e+07
1.146000e+03 2.221770e+08
1.147000e+03 2.127931e+08
1.148000e+03 7.075727e+07
1.149000e+03 2.154997e+08
1.150000e+03 1.766871e+08
1.151000e+03 2.371445e+08
1.152000e+03 2.313624e+08
1.153000e+03 1.090195e+08
1.154000e+03 1.374197e+08
1.155000e+03 2.128285e+08
1.156000e+03 1.198780e+08
1.157000e+03 2.588693e+08
1.158000e+03 1.249996e+07
1.159000e+03 2.294480e+08
1.160000e+03 1.825902e+08
1.161000e+03 2.672700e+08
1.162000e+03 6.638099e+07
1.163000e+03 1.613303e+08
1.164000e+03 1.279546e+07
1.165000e+03 2.836354e+08
1.166000e+03 2.636883e+08
1.167000e+03 2.531391e+08
1.168000e+03 3.071851e+08
1.169000e+03 3.066705e+08
1.170000e+03 2.884847e+08
1.171000e+03 2.979993e+08
1.172000e+03 2.155249e+08
1.173000e+03 3.299698e+08
1.174000e+03 9.652090e+07
1.175000e+03 1.513400e+07
1.176000e+03 1.385440e+07
1.177000e+03 3.567039e+08
1.178000e+03 3.548011e+08
1.179000e+03 3.582364e+08
1.180000e+03 2.434489e+08
1.181000e+03 3.777734e+08
1.182000e+03 3.673079e+08
1.183000e+03 3.440190e+08
1.184000e+03 3.328532e+08
1.185000e+03 3.720398e+08
1.186000e+03 2.144977e+08
1.187000e+03 3.783895e+08
1.188000e+03 2.857066e+08
1.189000e+03 1.917558e+07
1.190000e+03 1.221272e+08
1.191000e+03 3.764946e+08
1.192000e+03 4.149848e+08
1.193000e+03 1.820394e+07
1.194000e+03 2.181507e+07
1.195000e+03 3.331987e+08
1.196000e+03 4.147788e+08
1.197000e+03 6.224608e+08
1.198000e+03 3.644515e+08
1.199000e+03 6.131343e+08
1.200000e+03 3.715158e+08
1.201000e+03 5.799169e+08
1.202000e+03 4.509739e+08
1.203000e+03 6.673931e+08
1.204000e+03 3.323375e+08
1.205000e+03 5.606285e+08
1.206000e+03 5.449955e+08
1.207000e+03 1.001497e+08
1.208000e+03 4.183773e+08
1.209000e+03 3.354061e+08
1.210000e+03 2.879019e+07
1.211000e+03 2.014011e+08
1.212000e+03 1.365112e+08
1.213000e+03 8.970913e+07
1.214000e+03 5.416817e+07
1.215000e+03 3.380411e+07
1.216000e+03 3.042736e+07
1.217000e+03 4.795282e+07
1.218000e+03 8.275465e+07
1.219000e+03 1.371402e+08
1.220000e+03 1.870320e+08
1.221000e+03 2.992052e+08
1.222000e+03 3.855693e+08
1.223000e+03 4.960488e+08
1.224000e+03 6.250806e+08
1.225000e+03 3.876747e+08
1.226000e+03 8.556438e+08
1.227000e+03 9.426123e+08
1.228000e+03 7.041796e+08
1.229000e+03 1.028403e+09
1.230000e+03 9.844847e+08
1.231000e+03 7.723896e+08
1.232000e+03 1.467117e+09
1.233000e+03 1.572708e+09
1.234000e+03 1.096350e+09
1.235000e+03 1.675885e+09
1.236000e+03 9.493336e+08
1.237000e+03 1.843651e+09
1.238000e+03 1.723071e+09
1.239000e+03 1.743947e+09
1.240000e+03 1.731128e+09
1.241000e+03 1.969189e+09
1.242000e+03 1.691807e+09
1.243000e+03 2.464919e+09
1.244000e+03 1.390742e+09
1.245000e+03 1.777886e+09
1.246000e+03 2.879626e+09
1.247000e+03 2.875616e+09
1.248000e+03 1.408736e+09
1.249000e+03 1.847924e+09
1.250000e+03 3.254659e+09
1.251000e+03 3.830599e+09
1.252000e+03 3.466578e+09
1.253000e+03 3.895890e+09
1.254000e+03 3.495233e+09
1.255000e+03 4.094104e+09
1.256000e+03 3.606857e+09
1.257000e+03 4.059604e+09
1.258000e+03 2.878432e+09
1.259000e+03 3.735533e+09
1.260000e+03 4.077536e+09
1.261000e+03 7.025806e+07
1.262000e+03 9.253688e+08
1.263000e+03 4.429175e+09
1.264000e+03 3.301500e+09
1.265000e+03 7.379123e+07
1.266000e+03 4.456232e+09
1.267000e+03 3.709733e+09
