# wavelength_A flux
5.000000e+02 1.783289e-05
5.010000e+02 1.996500e-05
5.020000e+02 2.234152e-05
5.030000e+02 2.498852e-05
5.040000e+02 2.793707e-05
5.050000e+02 3.233366e-05
5.060000e+02 3.610842e-05
5.070000e+02 4.030559e-05
5.080000e+02 4.496839e-05
5.090000e+02 5.015345e-05
5.100000e+02 5.590848e-05
5.110000e+02 6.229575e-05
5.120000e+02 6.938233e-05
5.130000e+02 7.724124e-05
5.140000e+02 8.595300e-05
5.150000e+02 9.560486e-05
5.160000e+02 1.062973e-04
5.170000e+02 1.181268e-04
5.180000e+02 1.312328e-04
5.190000e+02 1.457225e-04
5.200000e+02 1.617441e-04
5.210000e+02 1.794519e-04
5.220000e+02 1.989763e-04
5.230000e+02 2.206113e-04
5.240000e+02 2.444598e-04
5.250000e+02 2.707846e-04
5.260000e+02 2.998094e-04
5.270000e+02 3.318194e-04
5.280000e+02 3.670999e-04
5.290000e+02 4.058343e-04
5.300000e+02 4.487774e-04
5.310000e+02 4.959040e-04
5.320000e+02 5.477667e-04
5.330000e+02 6.048155e-04
5.340000e+02 6.675472e-04
5.350000e+02 7.365008e-04
5.360000e+02 8.122189e-04
5.370000e+02 8.791832e-04
5.380000e+02 9.867771e-04
5.390000e+02 1.087097e-03
5.400000e+02 1.197127e-03
5.410000e+02 1.317665e-03
5.420000e+02 1.450068e-03
5.430000e+02 1.595086e-03
5.440000e+02 1.753938e-03
5.450000e+02 1.927908e-03
5.460000e+02 2.117860e-03
5.470000e+02 2.326799e-03
5.480000e+02 2.554825e-03
5.490000e+02 2.804067e-03
5.500000e+02 3.076689e-03
5.510000e+02 3.374629e-03
5.520000e+02 3.700125e-03
5.530000e+02 4.055603e-03
5.540000e+02 4.443698e-03
5.550000e+02 4.867251e-03
5.560000e+02 5.329216e-03
5.570000e+02 5.833194e-03
5.580000e+02 6.382669e-03
5.590000e+02 6.981553e-03
5.600000e+02 7.634069e-03
5.610000e+02 8.344793e-03
5.620000e+02 9.118176e-03
5.630000e+02 9.960489e-03
5.640000e+02 1.087704e-02
5.650000e+02 1.187407e-02
5.660000e+02 1.295828e-02
5.670000e+02 1.413693e-02
5.680000e+02 1.541784e-02
5.690000e+02 1.680943e-02
5.700000e+02 1.832079e-02
5.710000e+02 1.996180e-02
5.720000e+02 2.174291e-02
5.730000e+02 2.367557e-02
5.740000e+02 2.577056e-02
5.750000e+02 2.804449e-02
5.760000e+02 3.050537e-02
5.770000e+02 3.317988e-02
5.780000e+02 3.607364e-02
5.790000e+02 3.920789e-02
5.800000e+02 4.260160e-02
5.810000e+02 4.627518e-02
5.820000e+02 5.025040e-02
5.830000e+02 5.454864e-02
5.840000e+02 5.917533e-02
5.850000e+02 6.422345e-02
5.860000e+02 6.966329e-02
5.870000e+02 7.553789e-02
5.880000e+02 8.188384e-02
5.890000e+02 8.873628e-02
5.900000e+02 9.613618e-02
5.910000e+02 1.041232e-01
5.920000e+02 1.127415e-01
5.930000e+02 1.220387e-01
5.940000e+02 1.320656e-01
5.950000e+02 1.428671e-01
5.960000e+02 1.545298e-01
5.970000e+02 1.670873e-01
5.980000e+02 1.806155e-01
5.990000e+02 1.951859e-01
6.000000e+02 2.108745e-01
6.010000e+02 2.277620e-01
6.020000e+02 2.459367e-01
6.030000e+02 2.654903e-01
6.040000e+02 2.865221e-01
6.050000e+02 3.091385e-01
6.060000e+02 3.334502e-01
6.070000e+02 3.595782e-01
6.080000e+02 3.876445e-01
6.090000e+02 4.178056e-01
6.100000e+02 4.501972e-01
6.110000e+02 4.849753e-01
6.120000e+02 5.223060e-01
6.130000e+02 5.623677e-01
6.140000e+02 6.053485e-01
6.150000e+02 6.514512e-01
6.160000e+02 7.008886e-01
6.170000e+02 7.538899e-01
6.180000e+02 8.106978e-01
6.190000e+02 8.715709e-01
6.200000e+02 9.367848e-01
6.210000e+02 1.006632e+00
6.220000e+02 1.081424e+00
6.230000e+02 1.161491e+00
6.240000e+02 1.247186e+00
6.250000e+02 1.338881e+00
6.260000e+02 1.436976e+00
6.270000e+02 1.541891e+00
6.280000e+02 1.654076e+00
6.290000e+02 1.774005e+00
6.300000e+02 1.902185e+00
6.310000e+02 2.039075e+00
6.320000e+02 2.185402e+00
6.330000e+02 2.341680e+00
6.340000e+02 2.508557e+00
6.350000e+02 2.686709e+00
6.360000e+02 2.870705e+00
6.370000e+02 3.079779e+00
6.380000e+02 3.296260e+00
6.390000e+02 3.527171e+00
6.400000e+02 3.773415e+00
6.410000e+02 4.035952e+00
6.420000e+02 4.315802e+00
6.430000e+02 4.614047e+00
6.440000e+02 4.931818e+00
6.450000e+02 5.270313e+00
6.460000e+02 5.630846e+00
6.470000e+02 6.014707e+00
6.480000e+02 6.423397e+00
6.490000e+02 6.858387e+00
6.500000e+02 7.321263e+00
6.510000e+02 7.813724e+00
6.520000e+02 8.337553e+00
6.530000e+02 8.894326e+00
6.540000e+02 9.486629e+00
6.550000e+02 1.011627e+01
6.560000e+02 1.078547e+01
6.570000e+02 1.149636e+01
6.580000e+02 1.225204e+01
6.590000e+02 1.305450e+01
6.600000e+02 1.390646e+01
6.610000e+02 1.481127e+01
6.620000e+02 1.577178e+01
6.630000e+02 1.679120e+01
6.640000e+02 1.787297e+01
6.650000e+02 1.902063e+01
6.660000e+02 2.023803e+01
6.670000e+02 2.152908e+01
6.680000e+02 2.289802e+01
6.690000e+02 2.434924e+01
6.700000e+02 2.588741e+01
6.710000e+02 2.751747e+01
6.720000e+02 2.923788e+01
6.730000e+02 3.107291e+01
6.740000e+02 3.301053e+01
6.750000e+02 3.506232e+01
6.760000e+02 3.723461e+01
6.770000e+02 3.953405e+01
6.780000e+02 4.196765e+01
6.790000e+02 4.454276e+01
6.800000e+02 4.726709e+01
6.810000e+02 5.014877e+01
6.820000e+02 5.319639e+01
6.830000e+02 5.641892e+01
6.840000e+02 5.982575e+01
6.850000e+02 6.342677e+01
6.860000e+02 6.723246e+01
6.870000e+02 7.125281e+01
6.880000e+02 7.550187e+01
6.890000e+02 7.998882e+01
6.900000e+02 8.472792e+01
6.910000e+02 8.973182e+01
6.920000e+02 9.501445e+01
6.930000e+02 1.005866e+02
6.940000e+02 1.064710e+02
6.950000e+02 1.126801e+02
6.960000e+02 1.192309e+02
6.970000e+02 1.261371e+02
6.980000e+02 1.334283e+02
6.990000e+02 1.411126e+02
7.000000e+02 1.492143e+02
7.010000e+02 1.577545e+02
7.020000e+02 1.667554e+02
7.030000e+02 1.762403e+02
7.040000e+02 1.862336e+02
7.050000e+02 1.967609e+02
7.060000e+02 2.078453e+02
7.070000e+02 2.195219e+02
7.080000e+02 2.318166e+02
7.090000e+02 2.447597e+02
7.100000e+02 2.583835e+02
7.110000e+02 2.727105e+02
7.120000e+02 2.877974e+02
7.130000e+02 3.036702e+02
7.140000e+02 3.203673e+02
7.150000e+02 3.379286e+02
7.160000e+02 3.563962e+02
7.170000e+02 3.758123e+02
7.180000e+02 3.962189e+02
7.190000e+02 4.176837e+02
7.200000e+02 4.402340e+02
7.210000e+02 4.639297e+02
7.220000e+02 4.888251e+02
7.230000e+02 5.149772e+02
7.240000e+02 5.424458e+02
7.250000e+02 5.712919e+02
7.260000e+02 6.015812e+02
7.270000e+02 6.333807e+02
7.280000e+02 6.667607e+02
7.290000e+02 7.017649e+02
7.300000e+02 7.385263e+02
7.310000e+02 7.771018e+02
7.320000e+02 8.175691e+02
7.330000e+02 8.600170e+02
7.340000e+02 9.045360e+02
7.350000e+02 9.512204e+02
7.360000e+02 1.000163e+03
7.370000e+02 1.051479e+03
7.380000e+02 1.105266e+03
7.390000e+02 1.161638e+03
7.400000e+02 1.220710e+03
7.410000e+02 1.282606e+03
7.420000e+02 1.347444e+03
7.430000e+02 1.415364e+03
7.440000e+02 1.486495e+03
7.450000e+02 1.560984e+03
7.460000e+02 1.638973e+03
7.470000e+02 1.720514e+03
7.480000e+02 1.805975e+03
7.490000e+02 1.895421e+03
7.500000e+02 1.989022e+03
7.510000e+02 2.086961e+03
7.520000e+02 2.189424e+03
7.530000e+02 2.296605e+03
7.540000e+02 2.408707e+03
7.550000e+02 2.525940e+03
7.560000e+02 2.648527e+03
7.570000e+02 2.776678e+03
7.580000e+02 2.910668e+03
7.590000e+02 3.050694e+03
7.600000e+02 3.197058e+03
7.610000e+02 3.349997e+03
7.620000e+02 3.509789e+03
7.630000e+02 3.676553e+03
7.640000e+02 3.850920e+03
7.650000e+02 4.033034e+03
7.660000e+02 4.223213e+03
7.670000e+02 4.421796e+03
7.680000e+02 4.629101e+03
7.690000e+02 4.845562e+03
7.700000e+02 5.071474e+03
7.710000e+02 5.307246e+03
7.720000e+02 5.553282e+03
7.730000e+02 5.809993e+03
7.740000e+02 6.077814e+03
7.750000e+02 6.357190e+03
7.760000e+02 6.648434e+03
7.770000e+02 6.952481e+03
7.780000e+02 7.269372e+03
7.790000e+02 7.599597e+03
7.800000e+02 7.944046e+03
7.810000e+02 8.303101e+03
7.820000e+02 8.677332e+03
7.830000e+02 9.067338e+03
7.840000e+02 9.473543e+03
7.850000e+02 9.896954e+03
7.860000e+02 1.033807e+04
7.870000e+02 1.079761e+04
7.880000e+02 1.127620e+04
7.890000e+02 1.177462e+04
7.900000e+02 1.229360e+04
7.910000e+02 1.283401e+04
7.920000e+02 1.339660e+04
7.930000e+02 1.398222e+04
7.940000e+02 1.459176e+04
7.950000e+02 1.522611e+04
7.960000e+02 1.588623e+04
7.970000e+02 1.657307e+04
7.980000e+02 1.728763e+04
7.990000e+02 1.803100e+04
8.000000e+02 1.880419e+04
8.010000e+02 1.960832e+04
8.020000e+02 2.044457e+04
8.030000e+02 2.131408e+04
8.040000e+02 2.221811e+04
8.050000e+02 2.315793e+04
8.060000e+02 2.413485e+04
8.070000e+02 2.515022e+04
8.080000e+02 2.620543e+04
8.090000e+02 2.730195e+04
8.100000e+02 2.844126e+04
8.110000e+02 2.962490e+04
8.120000e+02 3.085442e+04
8.130000e+02 3.213165e+04
8.140000e+02 3.345811e+04
8.150000e+02 3.483551e+04
8.160000e+02 3.626596e+04
8.170000e+02 3.775103e+04
8.180000e+02 3.929198e+04
8.190000e+02 4.089241e+04
8.200000e+02 4.255357e+04
8.210000e+02 4.427761e+04
8.220000e+02 4.606666e+04
8.230000e+02 4.792307e+04
8.240000e+02 4.984922e+04
8.250000e+02 5.184705e+04
8.260000e+02 5.391984e+04
8.270000e+02 5.606978e+04
8.280000e+02 5.829953e+04
8.290000e+02 6.061183e+04
8.300000e+02 6.300948e+04
8.310000e+02 6.549541e+04
8.320000e+02 6.807262e+04
8.330000e+02 7.074416e+04
8.340000e+02 7.351328e+04
8.350000e+02 7.637171e+04
8.360000e+02 7.935658e+04
8.370000e+02 8.243923e+04
8.380000e+02 8.563248e+04
8.390000e+02 8.894063e+04
8.400000e+02 9.236769e+04
8.410000e+02 9.591741e+04
8.420000e+02 9.959045e+04
8.430000e+02 1.034018e+05
8.440000e+02 1.073447e+05
8.450000e+02 1.114274e+05
8.460000e+02 1.156543e+05
8.470000e+02 1.200303e+05
8.480000e+02 1.245600e+05
8.490000e+02 1.292486e+05
8.500000e+02 1.340978e+05
8.510000e+02 1.391194e+05
8.520000e+02 1.443155e+05
8.530000e+02 1.496919e+05
8.540000e+02 1.552553e+05
8.550000e+02 1.610097e+05
8.560000e+02 1.669620e+05
8.570000e+02 1.731185e+05
8.580000e+02 1.794856e+05
8.590000e+02 1.860702e+05
8.600000e+02 1.928789e+05
8.610000e+02 1.999188e+05
8.620000e+02 2.071969e+05
8.630000e+02 2.147207e+05
8.640000e+02 2.224982e+05
8.650000e+02 2.305366e+05
8.660000e+02 2.388446e+05
8.670000e+02 2.474301e+05
8.680000e+02 2.563017e+05
8.690000e+02 2.654682e+05
8.700000e+02 2.749372e+05
8.710000e+02 2.847220e+05
8.720000e+02 2.948280e+05
8.730000e+02 3.052665e+05
8.740000e+02 3.160473e+05
8.750000e+02 3.271809e+05
8.760000e+02 3.386777e+05
8.770000e+02 3.505480e+05
8.780000e+02 3.628051e+05
8.790000e+02 3.754583e+05
8.800000e+02 3.885102e+05
8.810000e+02 4.019924e+05
8.820000e+02 4.159073e+05
8.830000e+02 4.302685e+05
8.840000e+02 4.450886e+05
8.850000e+02 4.603807e+05
8.860000e+02 4.761594e+05
8.870000e+02 4.924384e+05
8.880000e+02 5.092322e+05
8.890000e+02 5.265557e+05
8.900000e+02 5.444243e+05
8.910000e+02 5.628537e+05
8.920000e+02 5.805448e+05
8.930000e+02 6.014596e+05
8.940000e+02 6.216696e+05
8.950000e+02 6.425069e+05
8.960000e+02 6.639907e+05
8.970000e+02 6.861379e+05
8.980000e+02 7.089618e+05
8.990000e+02 7.324934e+05
9.000000e+02 7.567466e+05
9.010000e+02 7.817416e+05
9.020000e+02 8.074991e+05
9.030000e+02 8.340406e+05
9.040000e+02 8.613731e+05
9.050000e+02 8.895625e+05
9.060000e+02 9.185886e+05
9.070000e+02 9.484781e+05
9.080000e+02 9.792875e+05
9.090000e+02 1.010982e+06
9.100000e+02 1.043652e+06
9.110000e+02 1.077300e+06
9.120000e+02 1.111977e+06
9.130000e+02 1.129362e+06
9.140000e+02 1.203509e+06
9.150000e+02 4.435627e+06
9.160000e+02 2.776114e+07
9.170000e+02 3.299200e+07
9.180000e+02 2.714677e+07
9.190000e+02 4.503554e+07
9.200000e+02 4.997938e+07
9.210000e+02 1.422076e+06
9.220000e+02 5.351529e+07
9.230000e+02 3.430350e+07
9.240000e+02 3.687489e+07
9.250000e+02 5.633303e+07
9.260000e+02 4.622275e+07
9.270000e+02 5.992613e+07
9.280000e+02 6.226388e+07
9.290000e+02 4.308781e+07
9.300000e+02 6.300899e+07
9.310000e+02 5.390692e+07
9.320000e+02 6.829922e+07
9.330000e+02 6.975846e+07
9.340000e+02 7.177670e+07
9.350000e+02 2.173083e+07
9.360000e+02 7.454038e+07
9.370000e+02 1.418494e+07
9.380000e+02 4.261059e+07
9.390000e+02 7.985197e+07
9.400000e+02 8.215960e+07
9.410000e+02 5.787662e+07
9.420000e+02 8.597195e+07
9.430000e+02 8.786983e+07
9.440000e+02 4.853693e+07
9.450000e+02 9.164964e+07
9.460000e+02 9.387983e+07
9.470000e+02 5.951718e+07
9.480000e+02 9.627770e+07
9.490000e+02 9.668853e+07
9.500000e+02 2.019336e+07
9.510000e+02 9.297333e+07
9.520000e+02 1.070383e+08
9.530000e+02 1.090679e+08
9.540000e+02 8.083573e+07
9.550000e+02 1.145687e+08
9.560000e+02 1.168319e+08
9.570000e+02 9.634359e+07
9.580000e+02 1.202529e+08
9.590000e+02 1.256102e+08
9.600000e+02 2.523214e+07
9.610000e+02 1.315416e+08
9.620000e+02 1.332114e+08
9.630000e+02 1.372557e+08
9.640000e+02 5.700592e+06
9.650000e+02 1.206640e+08
9.660000e+02 1.462062e+08
9.670000e+02 1.489343e+08
9.680000e+02 1.495375e+08
9.690000e+02 1.537449e+08
9.700000e+02 1.578973e+08
9.710000e+02 1.584423e+08
9.720000e+02 1.331666e+08
9.730000e+02 1.286947e+08
9.740000e+02 1.672563e+08
9.750000e+02 1.751986e+08
9.760000e+02 1.799397e+08
9.770000e+02 1.838067e+08
9.780000e+02 1.874680e+08
9.790000e+02 1.920170e+08
9.800000e+02 1.960821e+08
9.810000e+02 2.002745e+08
9.820000e+02 2.009152e+08
9.830000e+02 2.084671e+08
9.840000e+02 4.149869e+07
9.850000e+02 2.173212e+08
9.860000e+02 2.217397e+08
9.870000e+02 2.260021e+08
9.880000e+02 2.282598e+08
9.890000e+02 1.163511e+08
9.900000e+02 1.370644e+07
9.910000e+02 2.415885e+08
9.920000e+02 2.345129e+08
9.930000e+02 2.364118e+08
9.940000e+02 2.759117e+07
9.950000e+02 2.983672e+07
9.960000e+02 4.548742e+07
9.970000e+02 4.277314e+07
9.980000e+02 2.801762e+08
9.990000e+02 2.797145e+08
1.000000e+03 2.936287e+08
1.001000e+03 2.995022e+08
1.002000e+03 3.051286e+08
1.003000e+03 2.413700e+08
1.004000e+03 3.173497e+08
1.005000e+03 2.662224e+08
1.006000e+03 3.301201e+08
1.007000e+03 3.365824e+08
1.008000e+03 3.426775e+08
1.009000e+03 3.188336e+08
1.010000e+03 3.563674e+08
1.011000e+03 3.631934e+08
1.012000e+03 3.698801e+08
1.013000e+03 3.770961e+08
1.014000e+03 3.824341e+08
1.015000e+03 3.748620e+08
1.016000e+03 3.972072e+08
1.017000e+03 4.039389e+08
1.018000e+03 4.124832e+08
1.019000e+03 4.188995e+08
1.020000e+03 4.254549e+08
1.021000e+03 3.612796e+08
1.022000e+03 4.212631e+08
1.023000e+03 4.292412e+08
1.024000e+03 3.972940e+08
1.025000e+03 2.345479e+08
1.026000e+03 7.503592e+07
1.027000e+03 3.735570e+08
1.028000e+03 1.252063e+08
1.029000e+03 4.898654e+08
1.030000e+03 4.965607e+08
1.031000e+03 5.248108e+08
1.032000e+03 5.278011e+08
1.033000e+03 2.962050e+08
1.034000e+03 5.608548e+08
1.035000e+03 1.029846e+08
1.036000e+03 5.722815e+08
1.037000e+03 4.176595e+07
1.038000e+03 6.052251e+08
1.039000e+03 6.084559e+08
1.040000e+03 6.291556e+08
1.041000e+03 6.390988e+08
1.042000e+03 6.101592e+08
1.043000e+03 6.564176e+08
1.044000e+03 6.727449e+08
1.045000e+03 6.880145e+08
1.046000e+03 7.019733e+08
1.047000e+03 7.149402e+08
1.048000e+03 7.158802e+08
1.049000e+03 7.351092e+08
1.050000e+03 7.549960e+08
1.051000e+03 7.685013e+08
1.052000e+03 7.824566e+08
1.053000e+03 7.621989e+08
1.054000e+03 8.067611e+08
1.055000e+03 8.249844e+08
1.056000e+03 8.399272e+08
1.057000e+03 8.540659e+08
1.058000e+03 8.694809e+08
1.059000e+03 8.845016e+08
1.060000e+03 9.000291e+08
1.061000e+03 9.167046e+08
1.062000e+03 9.326556e+08
1.063000e+03 6.854724e+08
1.064000e+03 1.516286e+08
1.065000e+03 1.001912e+09
1.066000e+03 1.010927e+09
1.067000e+03 9.433316e+08
1.068000e+03 1.058878e+09
1.069000e+03 1.073560e+09
1.070000e+03 1.057760e+09
1.071000e+03 1.116783e+09
1.072000e+03 1.135587e+09
1.073000e+03 1.152476e+09
1.074000e+03 1.174670e+09
1.075000e+03 1.193132e+09
1.076000e+03 1.215522e+09
1.077000e+03 1.233476e+09
1.078000e+03 1.256872e+09
1.079000e+03 1.268415e+09
1.080000e+03 1.296805e+09
1.081000e+03 1.321902e+09
1.082000e+03 1.342721e+09
1.083000e+03 1.366501e+09
1.084000e+03 1.117988e+09
1.085000e+03 1.171004e+09
1.086000e+03 1.436594e+09
1.087000e+03 1.458429e+09
1.088000e+03 1.475469e+09
1.089000e+03 1.508034e+09
1.090000e+03 1.530922e+09
1.091000e+03 1.558779e+09
1.092000e+03 1.584495e+09
1.093000e+03 1.608226e+09
1.094000e+03 1.637393e+09
1.095000e+03 1.658472e+09
1.096000e+03 1.690661e+09
1.097000e+03 1.696992e+09
1.098000e+03 1.713489e+09
1.099000e+03 1.771836e+09
1.100000e+03 1.762226e+09
1.101000e+03 1.655222e+09
1.102000e+03 3.912579e+09
1.103000e+03 1.272207e+10
1.104000e+03 4.448296e+09
1.105000e+03 1.795275e+09
1.106000e+03 2.856414e+10
1.107000e+03 2.517902e+10
1.108000e+03 2.940415e+10
1.109000e+03 1.575775e+10
1.110000e+03 3.134278e+09
1.111000e+03 4.160743e+09
1.112000e+03 2.716907e+10
1.113000e+03 3.125688e+10
1.114000e+03 1.337166e+09
1.115000e+03 3.021372e+10
1.116000e+03 3.124414e+10
1.117000e+03 1.309860e+09
1.118000e+03 2.804453e+10
1.119000e+03 3.282246e+10
1.120000e+03 3.297415e+10
1.121000e+03 2.004664e+10
1.122000e+03 2.738708e+08
1.123000e+03 4.122828e+09
1.124000e+03 3.461619e+10
1.125000e+03 1.118160e+10
1.126000e+03 3.576079e+10
1.127000e+03 3.381081e+10
1.128000e+03 1.599181e+10
1.129000e+03 3.617112e+10
1.130000e+03 2.301676e+10
1.131000e+03 3.816946e+10
1.132000e+03 8.274289e+08
1.133000e+03 3.579724e+10
1.134000e+03 3.718239e+10
1.135000e+03 5.458637e+08
1.136000e+03 3.863921e+10
1.137000e+03 4.070235e+10
1.138000e+03 4.146252e+10
1.139000e+03 4.085518e+10
1.140000e+03 5.830779e+08
1.141000e+03 4.306192e+10
1.142000e+03 3.796745e+10
1.143000e+03 4.372204e+10
1.144000e+03 4.439283e+10
1.145000e+03 3.139782e+10
1.146000e+03 4.517625e+10
1.147000e+03 4.455938e+10
1.148000e+03 4.467433e+10
1.149000e+03 4.679510e+10
1.150000e+03 4.265813e+10
1.151000e+03 4.722525e+10
1.152000e+03 4.728330e+10
1.153000e+03 9.395175e+09
1.154000e+03 1.218101e+09
1.155000e+03 4.029375e+10
1.156000e+03 1.687949e+10
1.157000e+03 5.079560e+10
1.158000e+03 1.080811e+09
1.159000e+03 4.349176e+10
1.160000e+03 5.182512e+10
1.161000e+03 5.351238e+10
1.162000e+03 4.308799e+09
1.163000e+03 5.064415e+10
1.164000e+03 2.023039e+09
1.165000e+03 5.565313e+10
1.166000e+03 5.426554e+10
1.167000e+03 4.742213e+10
1.168000e+03 5.737760e+10
1.169000e+03 5.546861e+10
1.170000e+03 5.856313e+10
1.171000e+03 5.910537e+10
1.172000e+03 5.298859e+10
1.173000e+03 5.995178e+10
1.174000e+03 5.721657e+10
1.175000e+03 1.925820e+09
1.176000e+03 1.259971e+09
1.177000e+03 6.040311e+10
1.178000e+03 5.282765e+10
1.179000e+03 6.271622e+10
1.180000e+03 4.452042e+10
1.181000e+03 6.044930e+10
1.182000e+03 6.387685e+10
1.183000e+03 6.400084e+10
1.184000e+03 6.431055e+10
1.185000e+03 6.013337e+10
1.186000e+03 6.430712e+10
1.187000e+03 6.451390e+10
1.188000e+03 5.984505e+10
1.189000e+03 1.284065e+09
1.190000e+03 1.367182e+10
1.191000e+03 6.124100e+10
1.192000e+03 6.134072e+10
1.193000e+03 9.834168e+08
1.194000e+03 1.475117e+09
1.195000e+03 2.399054e+10
1.196000e+03 5.834972e+10
1.197000e+03 6.050776e+10
1.198000e+03 6.129748e+10
1.199000e+03 5.855673e+10
1.200000e+03 5.030395e+10
1.201000e+03 5.261662e+10
1.202000e+03 5.125027e+10
1.203000e+03 5.019723e+10
1.204000e+03 4.475455e+10
1.205000e+03 4.105900e+10
1.206000e+03 3.056434e+10
1.207000e+03 1.908754e+10
1.208000e+03 2.609056e+10
1.209000e+03 1.959724e+10
1.210000e+03 2.458690e+09
1.211000e+03 1.149268e+10
1.212000e+03 7.616222e+09
1.213000e+03 4.640155e+09
1.214000e+03 2.654708e+09
1.215000e+03 1.601896e+09
1.216000e+03 1.417170e+09
1.217000e+03 2.297517e+09
1.218000e+03 4.135897e+09
1.219000e+03 7.187094e+09
1.220000e+03 1.144871e+10
1.221000e+03 1.676708e+10
1.222000e+03 2.292947e+10
1.223000e+03 2.973742e+10
1.224000e+03 3.700363e+10
1.225000e+03 4.453018e+10
1.226000e+03 5.179118e+10
1.227000e+03 5.967134e+10
1.228000e+03 6.807626e+10
1.229000e+03 7.558848e+10
1.230000e+03 8.306457e+10
1.231000e+03 9.100164e+10
1.232000e+03 9.860248e+10
1.233000e+03 1.058145e+11
1.234000e+03 6.516767e+10
1.235000e+03 1.191866e+11
1.236000e+03 1.257187e+11
1.237000e+03 1.320403e+11
1.238000e+03 1.383407e+11
1.239000e+03 1.443767e+11
1.240000e+03 1.369110e+11
1.241000e+03 2.325541e+11
1.242000e+03 1.319972e+11
1.243000e+03 1.980136e+11
1.244000e+03 8.358298e+10
1.245000e+03 1.249063e+11
1.246000e+03 3.560277e+11
1.247000e+03 3.918041e+11
1.248000e+03 9.082375e+10
1.249000e+03 1.169401e+11
1.250000e+03 4.554238e+11
1.251000e+03 4.665937e+11
1.252000e+03 4.634381e+11
1.253000e+03 5.217713e+11
1.254000e+03 5.305762e+11
1.255000e+03 5.478893e+11
1.256000e+03 5.601007e+11
1.257000e+03 6.006831e+11
1.258000e+03 5.956553e+11
1.259000e+03 5.606256e+11
1.260000e+03 4.453828e+11
1.261000e+03 3.238181e+09
1.262000e+03 5.457651e+10
1.263000e+03 6.772043e+11
1.264000e+03 5.673340e+11
1.265000e+03 2.853741e+09
1.266000e+03 7.075828e+11
1.267000e+03 7.753633e+11
