# wavelength_A flux
5.000000e+02 5.840369e-13
5.010000e+02 6.768165e-13
5.020000e+02 7.838593e-13
5.030000e+02 9.072842e-13
5.040000e+02 1.049515e-12
5.050000e+02 1.244540e-12
5.060000e+02 1.437695e-12
5.070000e+02 1.659852e-12
5.080000e+02 1.915221e-12
5.090000e+02 2.208635e-12
5.100000e+02 2.545483e-12
5.110000e+02 2.932036e-12
5.120000e+02 3.375361e-12
5.130000e+02 3.883517e-12
5.140000e+02 4.465660e-12
5.150000e+02 5.132133e-12
5.160000e+02 5.894931e-12
5.170000e+02 6.767006e-12
5.180000e+02 7.764453e-12
5.190000e+02 8.903689e-12
5.200000e+02 1.020453e-11
5.210000e+02 1.168908e-11
5.220000e+02 1.338092e-11
5.230000e+02 1.531288e-11
5.240000e+02 1.751257e-11
5.250000e+02 2.001780e-11
5.260000e+02 2.286924e-11
5.270000e+02 2.611323e-11
5.280000e+02 2.980190e-11
5.290000e+02 3.398560e-11
5.300000e+02 3.875605e-11
5.310000e+02 4.416258e-11
5.320000e+02 5.029798e-11
5.330000e+02 5.725666e-11
5.340000e+02 6.514539e-11
5.350000e+02 7.408398e-11
5.360000e+02 8.420670e-11
5.370000e+02 9.443515e-11
5.380000e+02 1.086305e-10
5.390000e+02 1.232941e-10
5.400000e+02 1.398704e-10
5.410000e+02 1.585848e-10
5.420000e+02 1.797418e-10
5.430000e+02 2.036128e-10
5.440000e+02 2.305428e-10
5.450000e+02 2.609114e-10
5.460000e+02 2.950895e-10
5.470000e+02 3.337081e-10
5.480000e+02 3.771378e-10
5.490000e+02 4.260249e-10
5.500000e+02 4.810272e-10
5.510000e+02 5.428837e-10
5.520000e+02 6.124162e-10
5.530000e+02 6.905430e-10
5.540000e+02 7.782874e-10
5.550000e+02 8.767898e-10
5.560000e+02 9.873208e-10
5.570000e+02 1.111295e-09
5.580000e+02 1.250288e-09
5.590000e+02 1.406051e-09
5.600000e+02 1.580533e-09
5.610000e+02 1.775900e-09
5.620000e+02 1.994560e-09
5.630000e+02 2.239185e-09
5.640000e+02 2.512745e-09
5.650000e+02 2.818529e-09
5.660000e+02 3.160209e-09
5.670000e+02 3.541819e-09
5.680000e+02 3.967865e-09
5.690000e+02 4.443319e-09
5.700000e+02 4.973692e-09
5.710000e+02 5.565107e-09
5.720000e+02 6.224306e-09
5.730000e+02 6.958771e-09
5.740000e+02 7.776769e-09
5.750000e+02 8.687579e-09
5.760000e+02 9.699767e-09
5.770000e+02 1.082843e-08
5.780000e+02 1.208207e-08
5.790000e+02 1.347556e-08
5.800000e+02 1.502390e-08
5.810000e+02 1.674364e-08
5.820000e+02 1.865298e-08
5.830000e+02 2.077186e-08
5.840000e+02 2.311619e-08
5.850000e+02 2.572878e-08
5.860000e+02 2.862102e-08
5.870000e+02 3.182456e-08
5.880000e+02 3.537326e-08
5.890000e+02 3.930231e-08
5.900000e+02 4.365304e-08
5.910000e+02 4.846661e-08
5.920000e+02 5.379142e-08
5.930000e+02 5.967937e-08
5.940000e+02 6.618777e-08
5.950000e+02 7.337815e-08
5.960000e+02 8.132329e-08
5.970000e+02 9.009491e-08
5.980000e+02 9.977715e-08
5.990000e+02 1.104608e-07
6.000000e+02 1.222454e-07
6.010000e+02 1.352209e-07
6.020000e+02 1.495634e-07
6.030000e+02 1.653465e-07
6.040000e+02 1.827325e-07
6.050000e+02 2.018770e-07
6.060000e+02 2.229509e-07
6.070000e+02 2.461416e-07
6.080000e+02 2.716522e-07
6.090000e+02 2.997060e-07
6.100000e+02 3.305458e-07
6.110000e+02 3.644385e-07
6.120000e+02 4.016727e-07
6.130000e+02 4.425650e-07
6.140000e+02 4.874602e-07
6.150000e+02 5.367346e-07
6.160000e+02 5.907977e-07
6.170000e+02 6.500960e-07
6.180000e+02 7.151160e-07
6.190000e+02 7.863869e-07
6.200000e+02 8.644856e-07
6.210000e+02 9.500391e-07
6.220000e+02 1.043730e-06
6.230000e+02 1.146300e-06
6.240000e+02 1.258557e-06
6.250000e+02 1.381377e-06
6.260000e+02 1.515714e-06
6.270000e+02 1.662603e-06
6.280000e+02 1.823168e-06
6.290000e+02 1.998629e-06
6.300000e+02 2.190312e-06
6.310000e+02 2.399513e-06
6.320000e+02 2.628213e-06
6.330000e+02 2.877670e-06
6.340000e+02 3.149889e-06
6.350000e+02 3.446821e-06
6.360000e+02 3.768298e-06
6.370000e+02 4.123667e-06
6.380000e+02 4.508427e-06
6.390000e+02 4.927655e-06
6.400000e+02 5.384307e-06
6.410000e+02 5.881583e-06
6.420000e+02 6.422945e-06
6.430000e+02 7.012135e-06
6.440000e+02 7.653200e-06
6.450000e+02 8.350507e-06
6.460000e+02 9.108793e-06
6.470000e+02 9.933149e-06
6.480000e+02 1.082910e-05
6.490000e+02 1.180258e-05
6.500000e+02 1.286002e-05
6.510000e+02 1.400836e-05
6.520000e+02 1.525507e-05
6.530000e+02 1.660820e-05
6.540000e+02 1.807647e-05
6.550000e+02 1.966923e-05
6.560000e+02 2.139658e-05
6.570000e+02 2.326896e-05
6.580000e+02 2.529945e-05
6.590000e+02 2.749930e-05
6.600000e+02 2.988246e-05
6.610000e+02 3.246384e-05
6.620000e+02 3.525889e-05
6.630000e+02 3.828464e-05
6.640000e+02 4.155929e-05
6.650000e+02 4.510232e-05
6.660000e+02 4.893506e-05
6.670000e+02 5.307985e-05
6.680000e+02 5.756107e-05
6.690000e+02 6.240483e-05
6.700000e+02 6.763917e-05
6.710000e+02 7.329417e-05
6.720000e+02 7.940213e-05
6.730000e+02 8.599778e-05
6.740000e+02 9.311826e-05
6.750000e+02 1.008035e-04
6.760000e+02 1.090963e-04
6.770000e+02 1.180425e-04
6.780000e+02 1.276913e-04
6.790000e+02 1.380953e-04
6.800000e+02 1.493112e-04
6.810000e+02 1.613994e-04
6.820000e+02 1.744245e-04
6.830000e+02 1.884561e-04
6.840000e+02 2.035683e-04
6.850000e+02 2.198399e-04
6.860000e+02 2.373580e-04
6.870000e+02 2.562104e-04
6.880000e+02 2.764983e-04
6.890000e+02 2.983224e-04
6.900000e+02 3.217949e-04
6.910000e+02 3.470349e-04
6.920000e+02 3.741691e-04
6.930000e+02 4.033333e-04
6.940000e+02 4.346722e-04
6.950000e+02 4.683408e-04
6.960000e+02 5.045041e-04
6.970000e+02 5.433323e-04
6.980000e+02 5.850320e-04
6.990000e+02 6.297857e-04
7.000000e+02 6.778135e-04
7.010000e+02 7.293439e-04
7.020000e+02 7.846205e-04
7.030000e+02 8.439028e-04
7.040000e+02 9.074678e-04
7.050000e+02 9.756103e-04
7.060000e+02 1.048643e-03
7.070000e+02 1.126905e-03
7.080000e+02 1.210748e-03
7.090000e+02 1.300549e-03
7.100000e+02 1.396727e-03
7.110000e+02 1.499696e-03
7.120000e+02 1.609919e-03
7.130000e+02 1.727883e-03
7.140000e+02 1.854106e-03
7.150000e+02 1.989138e-03
7.160000e+02 2.133567e-03
7.170000e+02 2.288006e-03
7.180000e+02 2.453113e-03
7.190000e+02 2.629648e-03
7.200000e+02 2.818288e-03
7.210000e+02 3.019852e-03
7.220000e+02 3.235183e-03
7.230000e+02 3.465176e-03
7.240000e+02 3.710781e-03
7.250000e+02 3.973008e-03
7.260000e+02 4.252923e-03
7.270000e+02 4.551674e-03
7.280000e+02 4.870453e-03
7.290000e+02 5.210544e-03
7.300000e+02 5.573302e-03
7.310000e+02 5.960164e-03
7.320000e+02 6.372654e-03
7.330000e+02 6.812387e-03
7.340000e+02 7.281074e-03
7.350000e+02 7.780528e-03
7.360000e+02 8.312665e-03
7.370000e+02 8.879536e-03
7.380000e+02 9.483279e-03
7.390000e+02 1.012618e-02
7.400000e+02 1.081062e-02
7.410000e+02 1.153926e-02
7.420000e+02 1.231465e-02
7.430000e+02 1.313982e-02
7.440000e+02 1.401767e-02
7.450000e+02 1.495145e-02
7.460000e+02 1.594453e-02
7.470000e+02 1.700050e-02
7.480000e+02 1.812314e-02
7.490000e+02 1.931645e-02
7.500000e+02 2.058466e-02
7.510000e+02 2.193223e-02
7.520000e+02 2.336388e-02
7.530000e+02 2.488459e-02
7.540000e+02 2.649963e-02
7.550000e+02 2.821455e-02
7.560000e+02 3.003521e-02
7.570000e+02 3.196714e-02
7.580000e+02 3.401887e-02
7.590000e+02 3.619518e-02
7.600000e+02 3.850434e-02
7.610000e+02 4.095376e-02
7.620000e+02 4.355156e-02
7.630000e+02 4.630628e-02
7.640000e+02 4.922692e-02
7.650000e+02 5.232297e-02
7.660000e+02 5.560446e-02
7.670000e+02 5.908188e-02
7.680000e+02 6.276607e-02
7.690000e+02 6.666956e-02
7.700000e+02 7.080383e-02
7.710000e+02 7.518211e-02
7.720000e+02 7.981809e-02
7.730000e+02 8.472613e-02
7.740000e+02 8.992139e-02
7.750000e+02 9.541977e-02
7.760000e+02 1.012282e-01
7.770000e+02 1.073939e-01
7.780000e+02 1.139059e-01
7.790000e+02 1.207936e-01
7.800000e+02 1.280774e-01
7.810000e+02 1.357790e-01
7.820000e+02 1.439211e-01
7.830000e+02 1.525275e-01
7.840000e+02 1.616234e-01
7.850000e+02 1.712351e-01
7.860000e+02 1.813902e-01
7.870000e+02 1.921186e-01
7.880000e+02 2.034497e-01
7.890000e+02 2.154162e-01
7.900000e+02 2.280517e-01
7.910000e+02 2.413917e-01
7.920000e+02 2.554735e-01
7.930000e+02 2.703359e-01
7.940000e+02 2.860201e-01
7.950000e+02 3.025690e-01
7.960000e+02 3.200278e-01
7.970000e+02 3.384437e-01
7.980000e+02 3.578664e-01
7.990000e+02 3.783481e-01
8.000000e+02 3.999434e-01
8.010000e+02 4.227087e-01
8.020000e+02 4.467065e-01
8.030000e+02 4.719973e-01
8.040000e+02 4.986480e-01
8.050000e+02 5.267277e-01
8.060000e+02 5.563087e-01
8.070000e+02 5.874673e-01
8.080000e+02 6.202826e-01
8.090000e+02 6.548383e-01
8.100000e+02 6.912213e-01
8.110000e+02 7.295232e-01
8.120000e+02 7.698395e-01
8.130000e+02 8.122705e-01
8.140000e+02 8.569208e-01
8.150000e+02 9.038997e-01
8.160000e+02 9.533239e-01
8.170000e+02 1.005311e+00
8.180000e+02 1.059989e+00
8.190000e+02 1.117487e+00
8.200000e+02 1.177945e+00
8.210000e+02 1.241505e+00
8.220000e+02 1.308318e+00
8.230000e+02 1.378540e+00
8.240000e+02 1.452338e+00
8.250000e+02 1.529882e+00
8.260000e+02 1.611351e+00
8.270000e+02 1.696935e+00
8.280000e+02 1.786828e+00
8.290000e+02 1.881235e+00
8.300000e+02 1.980370e+00
8.310000e+02 2.084458e+00
8.320000e+02 2.193731e+00
8.330000e+02 2.308433e+00
8.340000e+02 2.428818e+00
8.350000e+02 2.555002e+00
8.360000e+02 2.687706e+00
8.370000e+02 2.826792e+00
8.380000e+02 2.972661e+00
8.390000e+02 3.125717e+00
8.400000e+02 3.286209e+00
8.410000e+02 3.454506e+00
8.420000e+02 3.630923e+00
8.430000e+02 3.815964e+00
8.440000e+02 4.009888e+00
8.450000e+02 4.213143e+00
8.460000e+02 4.426155e+00
8.470000e+02 4.649362e+00
8.480000e+02 4.883227e+00
8.490000e+02 5.128227e+00
8.500000e+02 5.384863e+00
8.510000e+02 5.653656e+00
8.520000e+02 5.935140e+00
8.530000e+02 6.229902e+00
8.540000e+02 6.538530e+00
8.550000e+02 6.861605e+00
8.560000e+02 7.199784e+00
8.570000e+02 7.553733e+00
8.580000e+02 7.924142e+00
8.590000e+02 8.311736e+00
8.600000e+02 8.717262e+00
8.610000e+02 9.141503e+00
8.620000e+02 9.585270e+00
8.630000e+02 1.004940e+01
8.640000e+02 1.053480e+01
8.650000e+02 1.104235e+01
8.660000e+02 1.157305e+01
8.670000e+02 1.212785e+01
8.680000e+02 1.270779e+01
8.690000e+02 1.331394e+01
8.700000e+02 1.394742e+01
8.710000e+02 1.460940e+01
8.720000e+02 1.530106e+01
8.730000e+02 1.602368e+01
8.740000e+02 1.677854e+01
8.750000e+02 1.756700e+01
8.760000e+02 1.839047e+01
8.770000e+02 1.925037e+01
8.780000e+02 2.014833e+01
8.790000e+02 2.108582e+01
8.800000e+02 2.206450e+01
8.810000e+02 2.308609e+01
8.820000e+02 2.415235e+01
8.830000e+02 2.526512e+01
8.840000e+02 2.642630e+01
8.850000e+02 2.763787e+01
8.860000e+02 2.890187e+01
8.870000e+02 3.022046e+01
8.880000e+02 3.159583e+01
8.890000e+02 3.303029e+01
8.900000e+02 3.452621e+01
8.910000e+02 3.608608e+01
8.920000e+02 3.768352e+01
8.930000e+02 3.940800e+01
8.940000e+02 4.117547e+01
8.950000e+02 4.301772e+01
8.960000e+02 4.493776e+01
8.970000e+02 4.693863e+01
8.980000e+02 4.902354e+01
8.990000e+02 5.119580e+01
9.000000e+02 5.345884e+01
9.010000e+02 5.581622e+01
9.020000e+02 5.827163e+01
9.030000e+02 6.082888e+01
9.040000e+02 6.349175e+01
9.050000e+02 6.626488e+01
9.060000e+02 6.915214e+01
9.070000e+02 7.215717e+01
9.080000e+02 7.528680e+01
9.090000e+02 7.854358e+01
9.100000e+02 8.193314e+01
9.110000e+02 8.546074e+01
9.120000e+02 8.913250e+01
9.130000e+02 9.234235e+01
9.140000e+02 9.861514e+01
9.150000e+02 6.640078e+02
9.160000e+02 1.087017e+03
9.170000e+02 1.127217e+03
9.180000e+02 1.162889e+03
9.190000e+02 1.213808e+03
9.200000e+02 1.258259e+03
9.210000e+02 1.285284e+02
9.220000e+02 1.349368e+03
9.230000e+02 1.388449e+03
9.240000e+02 1.389641e+03
9.250000e+02 1.482439e+03
9.260000e+02 1.546514e+03
9.270000e+02 1.606178e+03
9.280000e+02 1.665286e+03
9.290000e+02 1.716961e+03
9.300000e+02 1.767111e+03
9.310000e+02 1.828356e+03
9.320000e+02 1.912834e+03
9.330000e+02 1.976931e+03
9.340000e+02 2.047940e+03
9.350000e+02 5.053505e+02
9.360000e+02 2.085683e+03
9.370000e+02 4.116167e+02
9.380000e+02 1.163005e+03
9.390000e+02 2.422958e+03
9.400000e+02 2.513424e+03
9.410000e+02 9.475809e+02
9.420000e+02 2.690055e+03
9.430000e+02 2.779053e+03
9.440000e+02 2.262169e+03
9.450000e+02 2.974502e+03
9.460000e+02 3.075337e+03
9.470000e+02 2.542355e+03
9.480000e+02 2.496595e+03
9.490000e+02 3.374859e+03
9.500000e+02 6.532622e+02
9.510000e+02 3.568693e+03
9.520000e+02 3.757312e+03
9.530000e+02 3.830639e+03
9.540000e+02 3.449026e+03
9.550000e+02 4.150344e+03
9.560000e+02 2.964983e+03
9.570000e+02 2.841695e+03
9.580000e+02 4.460149e+03
9.590000e+02 4.753123e+03
9.600000e+02 9.815615e+02
9.610000e+02 5.066503e+03
9.620000e+02 5.241228e+03
9.630000e+02 5.413509e+03
9.640000e+02 7.356626e+02
9.650000e+02 5.353327e+03
9.660000e+02 5.964334e+03
9.670000e+02 6.110631e+03
9.680000e+02 6.302923e+03
9.690000e+02 6.534861e+03
9.700000e+02 6.767108e+03
9.710000e+02 6.921609e+03
9.720000e+02 6.706517e+03
9.730000e+02 6.786649e+03
9.740000e+02 7.608156e+03
9.750000e+02 7.929215e+03
9.760000e+02 8.205419e+03
9.770000e+02 8.477065e+03
9.780000e+02 8.730818e+03
9.790000e+02 9.034675e+03
9.800000e+02 9.319052e+03
9.810000e+02 9.616790e+03
9.820000e+02 9.892899e+03
9.830000e+02 1.023649e+04
9.840000e+02 5.082090e+03
9.850000e+02 1.088700e+04
9.860000e+02 1.122590e+04
9.870000e+02 1.158917e+04
9.880000e+02 1.180863e+04
9.890000e+02 1.079529e+04
9.900000e+02 2.258650e+03
9.910000e+02 1.296930e+04
9.920000e+02 1.179722e+04
9.930000e+02 1.322930e+04
9.940000e+02 2.567835e+03
9.950000e+02 5.133701e+03
9.960000e+02 1.345309e+04
9.970000e+02 3.590693e+03
9.980000e+02 1.617676e+04
9.990000e+02 1.640672e+04
1.000000e+03 1.721692e+04
1.001000e+03 1.774558e+04
1.002000e+03 1.828070e+04
1.003000e+03 1.829116e+04
1.004000e+03 1.924545e+04
1.005000e+03 1.909210e+04
1.006000e+03 2.059313e+04
1.007000e+03 2.117588e+04
1.008000e+03 2.181208e+04
1.009000e+03 2.227552e+04
1.010000e+03 2.316599e+04
1.011000e+03 2.385422e+04
1.012000e+03 2.455913e+04
1.013000e+03 2.528356e+04
1.014000e+03 2.490026e+04
1.015000e+03 2.627738e+04
1.016000e+03 2.749242e+04
1.017000e+03 2.726493e+04
1.018000e+03 2.911873e+04
1.019000e+03 2.963500e+04
1.020000e+03 3.082927e+04
1.021000e+03 1.623994e+04
1.022000e+03 2.904339e+04
1.023000e+03 3.254944e+04
1.024000e+03 3.021682e+04
1.025000e+03 2.549519e+04
1.026000e+03 1.358521e+04
1.027000e+03 3.256104e+04
1.028000e+03 1.013968e+04
1.029000e+03 3.800456e+04
1.030000e+03 4.035841e+04
1.031000e+03 4.210092e+04
1.032000e+03 4.322886e+04
1.033000e+03 1.907304e+04
1.034000e+03 4.603468e+04
1.035000e+03 1.090530e+04
1.036000e+03 4.335089e+04
1.037000e+03 1.830847e+04
1.038000e+03 5.160562e+04
1.039000e+03 5.273874e+04
1.040000e+03 5.457320e+04
1.041000e+03 5.537413e+04
1.042000e+03 5.756913e+04
1.043000e+03 5.684162e+04
1.044000e+03 6.095597e+04
1.045000e+03 6.262117e+04
1.046000e+03 6.446276e+04
1.047000e+03 6.621003e+04
1.048000e+03 6.756491e+04
1.049000e+03 6.772750e+04
1.050000e+03 7.186827e+04
1.051000e+03 7.381956e+04
1.052000e+03 7.594714e+04
1.053000e+03 7.781623e+04
1.054000e+03 7.667864e+04
1.055000e+03 8.054291e+04
1.056000e+03 8.462635e+04
1.057000e+03 8.689566e+04
1.058000e+03 8.920751e+04
1.059000e+03 9.138653e+04
1.060000e+03 9.356698e+04
1.061000e+03 9.672781e+04
1.062000e+03 9.921473e+04
1.063000e+03 3.448964e+04
1.064000e+03 2.450122e+04
1.065000e+03 1.044830e+05
1.066000e+03 7.989865e+04
1.067000e+03 1.123557e+05
1.068000e+03 1.166433e+05
1.069000e+03 1.164730e+05
1.070000e+03 1.226098e+05
1.071000e+03 1.262233e+05
1.072000e+03 1.295554e+05
1.073000e+03 1.301279e+05
1.074000e+03 1.364032e+05
1.075000e+03 1.399395e+05
1.076000e+03 1.437333e+05
1.077000e+03 1.464870e+05
1.078000e+03 1.511652e+05
1.079000e+03 1.550141e+05
1.080000e+03 1.592706e+05
1.081000e+03 1.634460e+05
1.082000e+03 1.676011e+05
1.083000e+03 1.719365e+05
1.084000e+03 1.764454e+05
1.085000e+03 1.347018e+05
1.086000e+03 1.856037e+05
1.087000e+03 1.895868e+05
1.088000e+03 1.946874e+05
1.089000e+03 2.001319e+05
1.090000e+03 2.049058e+05
1.091000e+03 2.098357e+05
1.092000e+03 2.156831e+05
1.093000e+03 2.209959e+05
1.094000e+03 2.266738e+05
1.095000e+03 2.323363e+05
1.096000e+03 2.380122e+05
1.097000e+03 2.405390e+05
1.098000e+03 2.475792e+05
1.099000e+03 2.563143e+05
1.100000e+03 2.540882e+05
1.101000e+03 2.465012e+05
1.102000e+03 5.356212e+05
1.103000e+03 1.648741e+06
1.104000e+03 6.787471e+05
1.105000e+03 2.740870e+05
1.106000e+03 3.614526e+06
1.107000e+03 2.475052e+06
1.108000e+03 3.736764e+06
1.109000e+03 2.614650e+06
1.110000e+03 1.355494e+06
1.111000e+03 6.289863e+05
1.112000e+03 3.587724e+06
1.113000e+03 4.200342e+06
1.114000e+03 2.358842e+05
1.115000e+03 3.998729e+06
1.116000e+03 4.055176e+06
1.117000e+03 2.630957e+05
1.118000e+03 3.164559e+06
1.119000e+03 4.651257e+06
1.120000e+03 4.395757e+06
1.121000e+03 4.599758e+06
1.122000e+03 1.118515e+05
1.123000e+03 5.532825e+05
1.124000e+03 5.114464e+06
1.125000e+03 3.317155e+06
1.126000e+03 5.331428e+06
1.127000e+03 5.264170e+06
1.128000e+03 2.771796e+06
1.129000e+03 5.490681e+06
1.130000e+03 5.001084e+06
1.131000e+03 5.856721e+06
1.132000e+03 3.253640e+05
1.133000e+03 5.098065e+06
1.134000e+03 5.888496e+06
1.135000e+03 1.978910e+05
1.136000e+03 6.241254e+06
1.137000e+03 6.538808e+06
1.138000e+03 6.614581e+06
1.139000e+03 6.638128e+06
1.140000e+03 2.147055e+05
1.141000e+03 7.047032e+06
1.142000e+03 7.152052e+06
1.143000e+03 7.291942e+06
1.144000e+03 7.452624e+06
1.145000e+03 5.561682e+06
1.146000e+03 7.732697e+06
1.147000e+03 7.772201e+06
1.148000e+03 7.488360e+06
1.149000e+03 8.150756e+06
1.150000e+03 8.231875e+06
1.151000e+03 8.418982e+06
1.152000e+03 8.618269e+06
1.153000e+03 3.630949e+06
1.154000e+03 1.496376e+06
1.155000e+03 8.132990e+06
1.156000e+03 2.449469e+06
1.157000e+03 9.410503e+06
1.158000e+03 3.501640e+05
1.159000e+03 8.316605e+06
1.160000e+03 9.805476e+06
1.161000e+03 1.015292e+07
1.162000e+03 3.598530e+06
1.163000e+03 1.034561e+07
1.164000e+03 4.617930e+05
1.165000e+03 1.091697e+07
1.166000e+03 1.111204e+07
1.167000e+03 1.129238e+07
1.168000e+03 1.162576e+07
1.169000e+03 1.157749e+07
1.170000e+03 1.209362e+07
1.171000e+03 1.235089e+07
1.172000e+03 1.248470e+07
1.173000e+03 1.286240e+07
1.174000e+03 1.202371e+07
1.175000e+03 5.714900e+05
1.176000e+03 5.086470e+05
1.177000e+03 1.390655e+07
1.178000e+03 1.393619e+07
1.179000e+03 1.444609e+07
1.180000e+03 1.216875e+07
1.181000e+03 1.495754e+07
1.182000e+03 1.532625e+07
1.183000e+03 1.557620e+07
1.184000e+03 1.583736e+07
1.185000e+03 1.604818e+07
1.186000e+03 1.604748e+07
1.187000e+03 1.664825e+07
1.188000e+03 1.676378e+07
1.189000e+03 6.856080e+05
1.190000e+03 2.662476e+06
1.191000e+03 1.733708e+07
1.192000e+03 1.755168e+07
1.193000e+03 6.520430e+05
1.194000e+03 7.971130e+05
1.195000e+03 1.537108e+07
1.196000e+03 1.825246e+07
1.197000e+03 2.745967e+07
1.198000e+03 2.712219e+07
1.199000e+03 2.704291e+07
1.200000e+03 2.424771e+07
1.201000e+03 2.557917e+07
1.202000e+03 2.524330e+07
1.203000e+03 3.205588e+07
1.204000e+03 2.862297e+07
1.205000e+03 2.694485e+07
1.206000e+03 2.542978e+07
1.207000e+03 3.764908e+06
1.208000e+03 1.874690e+07
1.209000e+03 1.434614e+07
1.210000e+03 1.166271e+06
1.211000e+03 8.428235e+06
1.212000e+03 5.449596e+06
1.213000e+03 3.445019e+06
1.214000e+03 2.024743e+06
1.215000e+03 1.285483e+06
1.216000e+03 1.170266e+06
1.217000e+03 1.805178e+06
1.218000e+03 3.176418e+06
1.219000e+03 5.513961e+06
1.220000e+03 8.833648e+06
1.221000e+03 1.304632e+07
1.222000e+03 1.792365e+07
1.223000e+03 2.331550e+07
1.224000e+03 2.917473e+07
1.225000e+03 3.443589e+07
1.226000e+03 4.165334e+07
1.227000e+03 4.763554e+07
1.228000e+03 5.421628e+07
1.229000e+03 6.156072e+07
1.230000e+03 6.722716e+07
1.231000e+03 7.317491e+07
1.232000e+03 8.215890e+07
1.233000e+03 8.888155e+07
1.234000e+03 5.391374e+07
1.235000e+03 1.019453e+08
1.236000e+03 1.043447e+08
1.237000e+03 1.146780e+08
1.238000e+03 1.206177e+08
1.239000e+03 1.264239e+08
1.240000e+03 1.194620e+08
1.241000e+03 2.001835e+08
1.242000e+03 1.203819e+08
1.243000e+03 1.764090e+08
1.244000e+03 7.909403e+07
1.245000e+03 1.156607e+08
1.246000e+03 3.108734e+08
1.247000e+03 3.180959e+08
1.248000e+03 8.558282e+07
1.249000e+03 1.082370e+08
1.250000e+03 3.735293e+08
1.251000e+03 3.964623e+08
1.252000e+03 4.064229e+08
1.253000e+03 4.305357e+08
1.254000e+03 4.387352e+08
1.255000e+03 4.544968e+08
1.256000e+03 4.627827e+08
1.257000e+03 4.870566e+08
1.258000e+03 4.710179e+08
1.259000e+03 4.888526e+08
1.260000e+03 3.947106e+08
1.261000e+03 3.063833e+06
1.262000e+03 5.584270e+07
1.263000e+03 5.474044e+08
1.264000e+03 4.830714e+08
1.265000e+03 3.181872e+06
1.266000e+03 5.914670e+08
1.267000e+03 6.094451e+08
