# wavelength_A flux
5.000000e+02 2.368341e-03
5.010000e+02 2.626170e-03
5.020000e+02 2.910819e-03
5.030000e+02 3.224939e-03
5.040000e+02 3.571430e-03
5.050000e+02 4.033088e-03
5.060000e+02 4.462050e-03
5.070000e+02 4.934588e-03
5.080000e+02 5.454907e-03
5.090000e+02 6.027797e-03
5.100000e+02 6.657895e-03
5.110000e+02 7.350903e-03
5.120000e+02 8.112751e-03
5.130000e+02 8.949957e-03
5.140000e+02 9.869615e-03
5.150000e+02 1.087936e-02
5.160000e+02 1.198787e-02
5.170000e+02 1.320363e-02
5.180000e+02 1.453771e-02
5.190000e+02 1.600009e-02
5.200000e+02 1.760275e-02
5.210000e+02 1.935852e-02
5.220000e+02 2.127941e-02
5.230000e+02 2.338617e-02
5.240000e+02 2.568946e-02
5.250000e+02 2.820951e-02
5.260000e+02 3.096488e-02
5.270000e+02 3.397678e-02
5.280000e+02 3.726791e-02
5.290000e+02 4.085564e-02
5.300000e+02 4.478821e-02
5.310000e+02 4.907294e-02
5.320000e+02 5.374837e-02
5.330000e+02 5.884790e-02
5.340000e+02 6.440843e-02
5.350000e+02 7.046938e-02
5.360000e+02 7.707313e-02
5.370000e+02 8.336833e-02
5.380000e+02 9.209768e-02
5.390000e+02 1.006247e-01
5.400000e+02 1.099026e-01
5.410000e+02 1.199885e-01
5.420000e+02 1.309684e-01
5.430000e+02 1.428988e-01
5.440000e+02 1.558627e-01
5.450000e+02 1.699459e-01
5.460000e+02 1.852172e-01
5.470000e+02 2.018433e-01
5.480000e+02 2.198619e-01
5.490000e+02 2.394125e-01
5.500000e+02 2.606155e-01
5.510000e+02 2.836052e-01
5.520000e+02 3.085232e-01
5.530000e+02 3.355231e-01
5.540000e+02 3.647699e-01
5.550000e+02 3.964404e-01
5.560000e+02 4.307252e-01
5.570000e+02 4.678220e-01
5.580000e+02 5.079628e-01
5.590000e+02 5.513771e-01
5.600000e+02 5.983164e-01
5.610000e+02 6.490542e-01
5.620000e+02 7.038801e-01
5.630000e+02 7.631058e-01
5.640000e+02 8.270656e-01
5.650000e+02 8.961164e-01
5.660000e+02 9.706454e-01
5.670000e+02 1.051059e+00
5.680000e+02 1.137800e+00
5.690000e+02 1.231338e+00
5.700000e+02 1.332174e+00
5.710000e+02 1.440855e+00
5.720000e+02 1.557949e+00
5.730000e+02 1.684074e+00
5.740000e+02 1.819892e+00
5.750000e+02 1.966100e+00
5.760000e+02 2.123230e+00
5.770000e+02 2.292743e+00
5.780000e+02 2.474857e+00
5.790000e+02 2.670693e+00
5.800000e+02 2.881227e+00
5.810000e+02 3.107500e+00
5.820000e+02 3.350621e+00
5.830000e+02 3.611750e+00
5.840000e+02 3.891329e+00
5.850000e+02 4.193141e+00
5.860000e+02 4.516555e+00
5.870000e+02 4.863391e+00
5.880000e+02 5.235453e+00
5.890000e+02 5.634380e+00
5.900000e+02 6.062307e+00
5.910000e+02 6.520936e+00
5.920000e+02 7.012342e+00
5.930000e+02 7.538941e+00
5.940000e+02 8.102998e+00
5.950000e+02 8.706736e+00
5.960000e+02 9.353705e+00
5.970000e+02 1.004586e+01
5.980000e+02 1.078652e+01
5.990000e+02 1.157888e+01
6.000000e+02 1.242634e+01
6.010000e+02 1.333141e+01
6.020000e+02 1.430124e+01
6.030000e+02 1.533656e+01
6.040000e+02 1.644287e+01
6.050000e+02 1.762465e+01
6.060000e+02 1.888676e+01
6.070000e+02 2.023446e+01
6.080000e+02 2.167273e+01
6.090000e+02 2.320809e+01
6.100000e+02 2.484602e+01
6.110000e+02 2.659362e+01
6.120000e+02 2.845743e+01
6.130000e+02 3.044474e+01
6.140000e+02 3.256318e+01
6.150000e+02 3.482107e+01
6.160000e+02 3.722692e+01
6.170000e+02 3.978989e+01
6.180000e+02 4.251961e+01
6.190000e+02 4.542629e+01
6.200000e+02 4.852072e+01
6.210000e+02 5.181429e+01
6.220000e+02 5.531906e+01
6.230000e+02 5.904673e+01
6.240000e+02 6.301275e+01
6.250000e+02 6.723034e+01
6.260000e+02 7.171449e+01
6.270000e+02 7.648105e+01
6.280000e+02 8.154671e+01
6.290000e+02 8.692910e+01
6.300000e+02 9.264684e+01
6.310000e+02 9.871861e+01
6.320000e+02 1.051679e+02
6.330000e+02 1.120136e+02
6.340000e+02 1.192799e+02
6.350000e+02 1.269908e+02
6.360000e+02 1.350102e+02
6.370000e+02 1.438502e+02
6.380000e+02 1.530523e+02
6.390000e+02 1.628114e+02
6.400000e+02 1.731573e+02
6.410000e+02 1.841208e+02
6.420000e+02 1.957410e+02
6.430000e+02 2.080528e+02
6.440000e+02 2.210944e+02
6.450000e+02 2.349063e+02
6.460000e+02 2.495318e+02
6.470000e+02 2.650146e+02
6.480000e+02 2.814036e+02
6.490000e+02 2.987469e+02
6.500000e+02 3.170971e+02
6.510000e+02 3.365090e+02
6.520000e+02 3.570401e+02
6.530000e+02 3.787509e+02
6.540000e+02 4.017048e+02
6.550000e+02 4.259684e+02
6.560000e+02 4.516118e+02
6.570000e+02 4.786983e+02
6.580000e+02 5.073319e+02
6.590000e+02 5.375697e+02
6.600000e+02 5.695010e+02
6.610000e+02 6.032209e+02
6.620000e+02 6.388179e+02
6.630000e+02 6.763910e+02
6.640000e+02 7.160426e+02
6.650000e+02 7.578794e+02
6.660000e+02 8.020185e+02
6.670000e+02 8.485731e+02
6.680000e+02 8.976689e+02
6.690000e+02 9.494229e+02
6.700000e+02 1.003995e+03
6.710000e+02 1.061515e+03
6.720000e+02 1.122084e+03
6.730000e+02 1.186005e+03
6.740000e+02 1.253292e+03
6.750000e+02 1.324162e+03
6.760000e+02 1.398802e+03
6.770000e+02 1.477394e+03
6.780000e+02 1.560134e+03
6.790000e+02 1.647225e+03
6.800000e+02 1.738883e+03
6.810000e+02 1.835325e+03
6.820000e+02 1.936793e+03
6.830000e+02 2.043529e+03
6.840000e+02 2.155785e+03
6.850000e+02 2.273823e+03
6.860000e+02 2.397941e+03
6.870000e+02 2.528396e+03
6.880000e+02 2.665538e+03
6.890000e+02 2.809645e+03
6.900000e+02 2.961056e+03
6.910000e+02 3.120124e+03
6.920000e+02 3.287208e+03
6.930000e+02 3.462683e+03
6.940000e+02 3.646942e+03
6.950000e+02 3.840394e+03
6.960000e+02 4.043410e+03
6.970000e+02 4.256501e+03
6.980000e+02 4.480214e+03
6.990000e+02 4.714896e+03
7.000000e+02 4.961099e+03
7.010000e+02 5.219348e+03
7.020000e+02 5.490179e+03
7.030000e+02 5.774189e+03
7.040000e+02 6.071962e+03
7.050000e+02 6.384117e+03
7.060000e+02 6.711298e+03
7.070000e+02 7.054188e+03
7.080000e+02 7.413479e+03
7.090000e+02 7.789874e+03
7.100000e+02 8.184215e+03
7.110000e+02 8.597212e+03
7.120000e+02 9.029714e+03
7.130000e+02 9.482578e+03
7.140000e+02 9.956618e+03
7.150000e+02 1.045291e+04
7.160000e+02 1.097235e+04
7.170000e+02 1.151590e+04
7.180000e+02 1.208458e+04
7.190000e+02 1.267974e+04
7.200000e+02 1.330198e+04
7.210000e+02 1.395294e+04
7.220000e+02 1.463373e+04
7.230000e+02 1.534557e+04
7.240000e+02 1.608977e+04
7.250000e+02 1.686770e+04
7.260000e+02 1.768078e+04
7.270000e+02 1.853050e+04
7.280000e+02 1.941835e+04
7.290000e+02 2.034595e+04
7.300000e+02 2.131494e+04
7.310000e+02 2.232704e+04
7.320000e+02 2.338401e+04
7.330000e+02 2.448771e+04
7.340000e+02 2.564005e+04
7.350000e+02 2.684301e+04
7.360000e+02 2.809864e+04
7.370000e+02 2.940913e+04
7.380000e+02 3.077664e+04
7.390000e+02 3.220334e+04
7.400000e+02 3.369181e+04
7.410000e+02 3.524467e+04
7.420000e+02 3.686407e+04
7.430000e+02 3.855313e+04
7.440000e+02 4.031360e+04
7.450000e+02 4.214970e+04
7.460000e+02 4.406379e+04
7.470000e+02 4.605891e+04
7.480000e+02 4.813825e+04
7.490000e+02 5.030509e+04
7.500000e+02 5.256285e+04
7.510000e+02 5.491507e+04
7.520000e+02 5.736535e+04
7.530000e+02 5.991748e+04
7.540000e+02 6.257541e+04
7.550000e+02 6.534314e+04
7.560000e+02 6.822495e+04
7.570000e+02 7.122369e+04
7.580000e+02 7.434797e+04
7.590000e+02 7.759821e+04
7.600000e+02 8.098120e+04
7.610000e+02 8.450134e+04
7.620000e+02 8.816389e+04
7.630000e+02 9.197412e+04
7.640000e+02 9.593677e+04
7.650000e+02 1.000591e+05
7.660000e+02 1.043446e+05
7.670000e+02 1.088026e+05
7.680000e+02 1.134374e+05
7.690000e+02 1.182566e+05
7.700000e+02 1.232658e+05
7.710000e+02 1.284723e+05
7.720000e+02 1.338832e+05
7.730000e+02 1.395060e+05
7.740000e+02 1.453484e+05
7.750000e+02 1.514181e+05
7.760000e+02 1.577126e+05
7.770000e+02 1.642726e+05
7.780000e+02 1.710746e+05
7.790000e+02 1.781382e+05
7.800000e+02 1.854727e+05
7.810000e+02 1.930877e+05
7.820000e+02 2.009926e+05
7.830000e+02 2.091982e+05
7.840000e+02 2.177154e+05
7.850000e+02 2.265542e+05
7.860000e+02 2.357260e+05
7.870000e+02 2.452432e+05
7.880000e+02 2.551120e+05
7.890000e+02 2.653539e+05
7.900000e+02 2.759772e+05
7.910000e+02 2.869952e+05
7.920000e+02 2.984212e+05
7.930000e+02 3.102679e+05
7.940000e+02 3.225520e+05
7.950000e+02 3.352872e+05
7.960000e+02 3.484885e+05
7.970000e+02 3.621718e+05
7.980000e+02 3.763530e+05
7.990000e+02 3.910490e+05
8.000000e+02 4.062768e+05
8.010000e+02 4.220533e+05
8.020000e+02 4.383991e+05
8.030000e+02 4.553304e+05
8.040000e+02 4.728677e+05
8.050000e+02 4.910305e+05
8.060000e+02 5.098394e+05
8.070000e+02 5.293156e+05
8.080000e+02 5.494704e+05
8.090000e+02 5.703463e+05
8.100000e+02 5.919508e+05
8.110000e+02 6.143185e+05
8.120000e+02 6.374686e+05
8.130000e+02 6.614260e+05
8.140000e+02 6.862164e+05
8.150000e+02 7.118654e+05
8.160000e+02 7.384034e+05
8.170000e+02 7.658551e+05
8.180000e+02 7.942512e+05
8.190000e+02 8.236206e+05
8.200000e+02 8.539944e+05
8.210000e+02 8.854036e+05
8.220000e+02 9.178782e+05
8.230000e+02 9.514558e+05
8.240000e+02 9.861694e+05
8.250000e+02 1.022053e+06
8.260000e+02 1.059143e+06
8.270000e+02 1.097476e+06
8.280000e+02 1.137080e+06
8.290000e+02 1.178016e+06
8.300000e+02 1.220313e+06
8.310000e+02 1.264011e+06
8.320000e+02 1.309155e+06
8.330000e+02 1.355787e+06
8.340000e+02 1.403953e+06
8.350000e+02 1.453615e+06
8.360000e+02 1.505064e+06
8.370000e+02 1.558116e+06
8.380000e+02 1.612876e+06
8.390000e+02 1.669435e+06
8.400000e+02 1.727811e+06
8.410000e+02 1.788071e+06
8.420000e+02 1.850246e+06
8.430000e+02 1.914460e+06
8.440000e+02 1.980706e+06
8.450000e+02 2.049065e+06
8.460000e+02 2.119598e+06
8.470000e+02 2.192370e+06
8.480000e+02 2.267444e+06
8.490000e+02 2.344887e+06
8.500000e+02 2.424766e+06
8.510000e+02 2.507152e+06
8.520000e+02 2.592086e+06
8.530000e+02 2.679703e+06
8.540000e+02 2.770056e+06
8.550000e+02 2.863203e+06
8.560000e+02 2.959234e+06
8.570000e+02 3.058230e+06
8.580000e+02 3.160274e+06
8.590000e+02 3.265443e+06
8.600000e+02 3.373842e+06
8.610000e+02 3.485552e+06
8.620000e+02 3.600664e+06
8.630000e+02 3.719270e+06
8.640000e+02 3.841476e+06
8.650000e+02 3.967366e+06
8.660000e+02 4.097061e+06
8.670000e+02 4.230648e+06
8.680000e+02 4.368240e+06
8.690000e+02 4.509945e+06
8.700000e+02 4.655874e+06
8.710000e+02 4.806144e+06
8.720000e+02 4.960870e+06
8.730000e+02 5.120171e+06
8.740000e+02 5.284172e+06
8.750000e+02 5.452998e+06
8.760000e+02 5.626778e+06
8.770000e+02 5.805632e+06
8.780000e+02 5.989732e+06
8.790000e+02 6.179176e+06
8.800000e+02 6.374122e+06
8.810000e+02 6.574712e+06
8.820000e+02 6.781095e+06
8.830000e+02 6.993424e+06
8.840000e+02 7.211850e+06
8.850000e+02 7.436538e+06
8.860000e+02 7.667645e+06
8.870000e+02 7.905301e+06
8.880000e+02 8.149752e+06
8.890000e+02 8.401135e+06
8.900000e+02 8.659528e+06
8.910000e+02 8.925308e+06
8.920000e+02 9.191023e+06
8.930000e+02 9.479489e+06
8.940000e+02 9.768246e+06
8.950000e+02 1.006508e+07
8.960000e+02 1.037020e+07
8.970000e+02 1.068378e+07
8.980000e+02 1.100605e+07
8.990000e+02 1.133722e+07
9.000000e+02 1.167751e+07
9.010000e+02 1.202716e+07
9.020000e+02 1.238639e+07
9.030000e+02 1.275544e+07
9.040000e+02 1.313445e+07
9.050000e+02 1.352396e+07
9.060000e+02 1.392397e+07
9.070000e+02 1.433460e+07
9.080000e+02 1.475668e+07
9.090000e+02 1.518994e+07
9.100000e+02 1.563483e+07
9.110000e+02 1.609168e+07
9.120000e+02 1.656093e+07
9.130000e+02 1.691115e+07
9.140000e+02 1.763435e+07
9.150000e+02 3.258922e+07
9.160000e+02 8.965542e+07
9.170000e+02 9.825266e+07
9.180000e+02 7.586382e+07
9.190000e+02 1.753292e+08
9.200000e+02 2.399452e+08
9.210000e+02 2.097559e+07
9.220000e+02 2.848350e+08
9.230000e+02 9.837200e+07
9.240000e+02 2.545605e+08
9.250000e+02 3.190551e+08
9.260000e+02 1.509638e+08
9.270000e+02 3.148818e+08
9.280000e+02 3.603630e+08
9.290000e+02 3.112756e+08
9.300000e+02 3.303297e+08
9.310000e+02 1.847886e+08
9.320000e+02 3.852467e+08
9.330000e+02 4.065983e+08
9.340000e+02 4.194506e+08
9.350000e+02 1.332096e+08
9.360000e+02 4.298387e+08
9.370000e+02 8.875858e+07
9.380000e+02 1.297589e+08
9.390000e+02 4.448938e+08
9.400000e+02 4.741373e+08
9.410000e+02 2.342734e+08
9.420000e+02 4.996865e+08
9.430000e+02 5.105217e+08
9.440000e+02 2.986337e+08
9.450000e+02 5.319638e+08
9.460000e+02 5.420275e+08
9.470000e+02 3.632497e+08
9.480000e+02 4.758939e+08
9.490000e+02 4.941274e+08
9.500000e+02 1.091442e+08
9.510000e+02 5.473058e+08
9.520000e+02 6.078562e+08
9.530000e+02 6.080150e+08
9.540000e+02 5.145256e+08
9.550000e+02 6.530559e+08
9.560000e+02 5.253432e+08
9.570000e+02 5.245955e+08
9.580000e+02 6.719448e+08
9.590000e+02 7.126863e+08
9.600000e+02 1.553010e+08
9.610000e+02 7.381716e+08
9.620000e+02 7.525643e+08
9.630000e+02 7.723517e+08
9.640000e+02 7.019219e+07
9.650000e+02 7.255100e+08
9.660000e+02 8.186315e+08
9.670000e+02 8.245704e+08
9.680000e+02 8.287212e+08
9.690000e+02 8.590826e+08
9.700000e+02 8.737192e+08
9.710000e+02 8.615412e+08
9.720000e+02 6.613562e+08
9.730000e+02 6.246407e+08
9.740000e+02 9.119168e+08
9.750000e+02 9.639250e+08
9.760000e+02 9.932681e+08
9.770000e+02 1.015006e+09
9.780000e+02 1.032058e+09
9.790000e+02 1.058654e+09
9.800000e+02 1.079414e+09
9.810000e+02 1.099775e+09
9.820000e+02 1.108226e+09
9.830000e+02 1.143513e+09
9.840000e+02 4.505360e+08
9.850000e+02 1.186753e+09
9.860000e+02 1.207972e+09
9.870000e+02 1.233564e+09
9.880000e+02 1.230183e+09
9.890000e+02 9.190067e+08
9.900000e+02 1.589980e+08
9.910000e+02 1.301395e+09
9.920000e+02 1.117290e+09
9.930000e+02 1.294021e+09
9.940000e+02 2.157014e+08
9.950000e+02 3.608593e+08
9.960000e+02 3.529847e+08
9.970000e+02 2.999666e+08
9.980000e+02 1.513091e+09
9.990000e+02 1.494954e+09
1.000000e+03 1.574630e+09
1.001000e+03 1.605261e+09
1.002000e+03 1.633448e+09
1.003000e+03 1.452918e+09
1.004000e+03 1.678867e+09
1.005000e+03 1.480609e+09
1.006000e+03 1.758229e+09
1.007000e+03 1.777281e+09
1.008000e+03 1.819037e+09
1.009000e+03 1.777906e+09
1.010000e+03 1.888787e+09
1.011000e+03 1.923216e+09
1.012000e+03 1.956275e+09
1.013000e+03 1.991382e+09
1.014000e+03 1.900990e+09
1.015000e+03 1.990245e+09
1.016000e+03 2.079703e+09
1.017000e+03 2.031327e+09
1.018000e+03 2.161624e+09
1.019000e+03 2.171335e+09
1.020000e+03 2.240524e+09
1.021000e+03 1.449926e+09
1.022000e+03 2.160570e+09
1.023000e+03 2.242481e+09
1.024000e+03 2.098506e+09
1.025000e+03 1.492021e+09
1.026000e+03 6.781655e+08
1.027000e+03 2.085800e+09
1.028000e+03 7.241143e+08
1.029000e+03 2.467806e+09
1.030000e+03 2.605371e+09
1.031000e+03 2.704328e+09
1.032000e+03 2.742319e+09
1.033000e+03 1.527107e+09
1.034000e+03 2.884750e+09
1.035000e+03 6.423864e+08
1.036000e+03 2.721599e+09
1.037000e+03 4.017787e+08
1.038000e+03 3.102077e+09
1.039000e+03 3.107755e+09
1.040000e+03 3.209525e+09
1.041000e+03 3.239154e+09
1.042000e+03 3.207251e+09
1.043000e+03 3.301411e+09
1.044000e+03 3.414729e+09
1.045000e+03 3.487966e+09
1.046000e+03 3.558456e+09
1.047000e+03 3.600431e+09
1.048000e+03 3.570736e+09
1.049000e+03 3.598781e+09
1.050000e+03 3.800345e+09
1.051000e+03 3.854092e+09
1.052000e+03 3.934677e+09
1.053000e+03 3.892809e+09
1.054000e+03 3.815215e+09
1.055000e+03 4.076425e+09
1.056000e+03 4.207034e+09
1.057000e+03 4.264139e+09
1.058000e+03 4.335186e+09
1.059000e+03 4.354315e+09
1.060000e+03 4.424793e+09
1.061000e+03 4.558504e+09
1.062000e+03 4.628232e+09
1.063000e+03 1.815790e+09
1.064000e+03 9.699919e+08
1.065000e+03 4.730446e+09
1.066000e+03 4.025278e+09
1.067000e+03 4.689873e+09
1.068000e+03 5.197857e+09
1.069000e+03 4.980299e+09
1.070000e+03 5.194996e+09
1.071000e+03 5.458080e+09
1.072000e+03 5.543922e+09
1.073000e+03 5.450161e+09
1.074000e+03 5.702440e+09
1.075000e+03 5.783400e+09
1.076000e+03 5.906863e+09
1.077000e+03 5.954214e+09
1.078000e+03 6.075484e+09
1.079000e+03 6.149076e+09
1.080000e+03 6.274785e+09
1.081000e+03 6.382200e+09
1.082000e+03 6.483486e+09
1.083000e+03 6.552346e+09
1.084000e+03 6.264175e+09
1.085000e+03 4.817595e+09
1.086000e+03 6.909295e+09
1.087000e+03 6.924794e+09
1.088000e+03 7.103066e+09
1.089000e+03 7.230403e+09
1.090000e+03 7.291527e+09
1.091000e+03 7.401603e+09
1.092000e+03 7.573203e+09
1.093000e+03 7.683459e+09
1.094000e+03 7.802544e+09
1.095000e+03 7.914632e+09
1.096000e+03 8.041790e+09
1.097000e+03 8.026758e+09
1.098000e+03 8.007414e+09
1.099000e+03 8.390259e+09
1.100000e+03 8.179387e+09
1.101000e+03 7.906465e+09
1.102000e+03 1.621508e+10
1.103000e+03 4.398061e+10
1.104000e+03 2.092117e+10
1.105000e+03 8.434131e+09
1.106000e+03 9.178427e+10
1.107000e+03 4.906584e+10
1.108000e+03 9.545154e+10
1.109000e+03 4.490627e+10
1.110000e+03 1.683138e+10
1.111000e+03 1.822981e+10
1.112000e+03 8.215876e+10
1.113000e+03 1.046430e+11
1.114000e+03 6.481396e+09
1.115000e+03 9.251032e+10
1.116000e+03 8.947629e+10
1.117000e+03 7.581516e+09
1.118000e+03 6.361306e+10
1.119000e+03 1.075814e+11
1.120000e+03 9.835781e+10
1.121000e+03 9.078186e+10
1.122000e+03 2.217312e+09
1.123000e+03 1.233336e+10
1.124000e+03 1.148584e+11
1.125000e+03 4.425844e+10
1.126000e+03 1.195538e+11
1.127000e+03 1.152201e+11
1.128000e+03 5.193128e+10
1.129000e+03 1.158958e+11
1.130000e+03 9.092328e+10
1.131000e+03 1.264751e+11
1.132000e+03 6.137315e+09
1.133000e+03 8.323990e+10
1.134000e+03 1.203947e+11
1.135000e+03 3.200492e+09
1.136000e+03 1.181998e+11
1.137000e+03 1.346540e+11
1.138000e+03 1.306544e+11
1.139000e+03 1.344627e+11
1.140000e+03 3.976249e+09
1.141000e+03 1.400521e+11
1.142000e+03 1.312813e+11
1.143000e+03 1.420947e+11
1.144000e+03 1.462240e+11
1.145000e+03 9.575499e+10
1.146000e+03 1.487346e+11
1.147000e+03 1.480927e+11
1.148000e+03 1.296786e+11
1.149000e+03 1.532155e+11
1.150000e+03 1.444029e+11
1.151000e+03 1.563804e+11
1.152000e+03 1.554208e+11
1.153000e+03 3.626202e+10
1.154000e+03 1.012579e+10
1.155000e+03 1.090759e+11
1.156000e+03 3.506045e+10
1.157000e+03 1.665730e+11
1.158000e+03 5.259764e+09
1.159000e+03 1.294892e+11
1.160000e+03 1.498529e+11
1.161000e+03 1.740220e+11
1.162000e+03 3.186573e+10
1.163000e+03 1.602577e+11
1.164000e+03 8.979980e+09
1.165000e+03 1.815851e+11
1.166000e+03 1.784554e+11
1.167000e+03 1.691105e+11
1.168000e+03 1.877082e+11
1.169000e+03 1.846141e+11
1.170000e+03 1.911012e+11
1.171000e+03 1.919139e+11
1.172000e+03 1.757964e+11
1.173000e+03 1.961463e+11
1.174000e+03 1.643728e+11
1.175000e+03 9.735127e+09
1.176000e+03 7.483179e+09
1.177000e+03 2.024871e+11
1.178000e+03 1.790745e+11
1.179000e+03 2.082246e+11
1.180000e+03 1.507575e+11
1.181000e+03 2.095965e+11
1.182000e+03 2.139141e+11
1.183000e+03 2.146120e+11
1.184000e+03 2.154653e+11
1.185000e+03 2.056150e+11
1.186000e+03 2.119593e+11
1.187000e+03 2.207113e+11
1.188000e+03 2.046191e+11
1.189000e+03 8.258396e+09
1.190000e+03 3.000826e+10
1.191000e+03 2.173060e+11
1.192000e+03 2.215597e+11
1.193000e+03 7.118242e+09
1.194000e+03 9.439216e+09
1.195000e+03 1.313065e+11
1.196000e+03 2.192628e+11
1.197000e+03 2.556915e+11
1.198000e+03 2.512389e+11
1.199000e+03 2.515195e+11
1.200000e+03 2.224158e+11
1.201000e+03 2.357441e+11
1.202000e+03 2.266911e+11
1.203000e+03 2.443367e+11
1.204000e+03 2.130502e+11
1.205000e+03 2.101739e+11
1.206000e+03 1.659071e+11
1.207000e+03 6.527976e+10
1.208000e+03 1.489586e+11
1.209000e+03 1.139434e+11
1.210000e+03 1.350392e+10
1.211000e+03 7.314479e+10
1.212000e+03 4.852643e+10
1.213000e+03 3.202254e+10
1.214000e+03 1.883610e+10
1.215000e+03 1.155058e+10
1.216000e+03 1.034797e+10
1.217000e+03 1.631983e+10
1.218000e+03 2.865273e+10
1.219000e+03 4.788995e+10
1.220000e+03 7.267885e+10
1.221000e+03 1.024421e+11
1.222000e+03 1.342260e+11
1.223000e+03 1.679314e+11
1.224000e+03 2.019801e+11
1.225000e+03 2.272761e+11
1.226000e+03 2.642851e+11
1.227000e+03 2.953393e+11
1.228000e+03 3.209753e+11
1.229000e+03 3.488956e+11
1.230000e+03 3.712223e+11
1.231000e+03 3.953944e+11
1.232000e+03 4.330241e+11
1.233000e+03 4.563418e+11
1.234000e+03 3.302818e+11
1.235000e+03 4.943170e+11
1.236000e+03 4.894370e+11
1.237000e+03 5.326766e+11
1.238000e+03 5.424855e+11
1.239000e+03 5.610908e+11
1.240000e+03 5.264640e+11
1.241000e+03 9.096491e+11
1.242000e+03 5.117506e+11
1.243000e+03 7.371130e+11
1.244000e+03 3.070286e+11
1.245000e+03 4.615011e+11
1.246000e+03 1.285665e+12
1.247000e+03 1.295268e+12
1.248000e+03 3.292832e+11
1.249000e+03 4.035699e+11
1.250000e+03 1.518163e+12
1.251000e+03 1.594472e+12
1.252000e+03 1.523978e+12
1.253000e+03 1.678402e+12
1.254000e+03 1.629209e+12
1.255000e+03 1.751097e+12
1.256000e+03 1.688693e+12
1.257000e+03 1.827164e+12
1.258000e+03 1.659028e+12
1.259000e+03 1.758757e+12
1.260000e+03 1.627469e+12
1.261000e+03 2.055277e+10
1.262000e+03 1.898932e+11
1.263000e+03 2.011281e+12
1.264000e+03 1.693548e+12
1.265000e+03 1.990807e+10
1.266000e+03 2.014151e+12
1.267000e+03 1.989223e+12
