# wavelength_A flux
5.000000e+02 2.903968e-09
5.010000e+02 3.309000e-09
5.020000e+02 3.768489e-09
5.030000e+02 4.289482e-09
5.040000e+02 4.879901e-09
5.050000e+02 5.628106e-09
5.060000e+02 6.395367e-09
5.070000e+02 7.263431e-09
5.080000e+02 8.245037e-09
5.090000e+02 9.354532e-09
5.100000e+02 1.060781e-08
5.110000e+02 1.202286e-08
5.120000e+02 1.361977e-08
5.130000e+02 1.542101e-08
5.140000e+02 1.745171e-08
5.150000e+02 1.973988e-08
5.160000e+02 2.231726e-08
5.170000e+02 2.521800e-08
5.180000e+02 2.848317e-08
5.190000e+02 3.215469e-08
5.200000e+02 3.628191e-08
5.210000e+02 4.091915e-08
5.220000e+02 4.612408e-08
5.230000e+02 5.197299e-08
5.240000e+02 5.853217e-08
5.250000e+02 6.588868e-08
5.260000e+02 7.413470e-08
5.270000e+02 8.337395e-08
5.280000e+02 9.372138e-08
5.290000e+02 1.052905e-07
5.300000e+02 1.182655e-07
5.310000e+02 1.327612e-07
5.320000e+02 1.489667e-07
5.330000e+02 1.670750e-07
5.340000e+02 1.873009e-07
5.350000e+02 2.098820e-07
5.360000e+02 2.350809e-07
5.370000e+02 2.613145e-07
5.380000e+02 2.945310e-07
5.390000e+02 3.294673e-07
5.400000e+02 3.683845e-07
5.410000e+02 4.117019e-07
5.420000e+02 4.599575e-07
5.430000e+02 5.136328e-07
5.440000e+02 5.733265e-07
5.450000e+02 6.396894e-07
5.460000e+02 7.133610e-07
5.470000e+02 7.953546e-07
5.480000e+02 8.863125e-07
5.490000e+02 9.872695e-07
5.500000e+02 1.099276e-06
5.510000e+02 1.223494e-06
5.520000e+02 1.361198e-06
5.530000e+02 1.513794e-06
5.540000e+02 1.682824e-06
5.550000e+02 1.869986e-06
5.560000e+02 2.077144e-06
5.570000e+02 2.306345e-06
5.580000e+02 2.559837e-06
5.590000e+02 2.840087e-06
5.600000e+02 3.149801e-06
5.610000e+02 3.491949e-06
5.620000e+02 3.869784e-06
5.630000e+02 4.286871e-06
5.640000e+02 4.747118e-06
5.650000e+02 5.254798e-06
5.660000e+02 5.814603e-06
5.670000e+02 6.431650e-06
5.680000e+02 7.111546e-06
5.690000e+02 7.860422e-06
5.700000e+02 8.684970e-06
5.710000e+02 9.592534e-06
5.720000e+02 1.059109e-05
5.730000e+02 1.168939e-05
5.740000e+02 1.289695e-05
5.750000e+02 1.422432e-05
5.760000e+02 1.568175e-05
5.770000e+02 1.728427e-05
5.780000e+02 1.904285e-05
5.790000e+02 2.097304e-05
5.800000e+02 2.309084e-05
5.810000e+02 2.541371e-05
5.820000e+02 2.796061e-05
5.830000e+02 3.075207e-05
5.840000e+02 3.380561e-05
5.850000e+02 3.716040e-05
5.860000e+02 4.083064e-05
5.870000e+02 4.484694e-05
5.880000e+02 4.924176e-05
5.890000e+02 5.404896e-05
5.900000e+02 5.930667e-05
5.910000e+02 6.505406e-05
5.920000e+02 7.133516e-05
5.930000e+02 7.819732e-05
5.940000e+02 8.569192e-05
5.950000e+02 9.387405e-05
5.960000e+02 1.028059e-04
5.970000e+02 1.125511e-04
5.980000e+02 1.231810e-04
5.990000e+02 1.347725e-04
6.000000e+02 1.474086e-04
6.010000e+02 1.611775e-04
6.020000e+02 1.761816e-04
6.030000e+02 1.925210e-04
6.040000e+02 2.103111e-04
6.050000e+02 2.296752e-04
6.060000e+02 2.507456e-04
6.070000e+02 2.736670e-04
6.080000e+02 2.985934e-04
6.090000e+02 3.256927e-04
6.100000e+02 3.551457e-04
6.110000e+02 3.871475e-04
6.120000e+02 4.219085e-04
6.130000e+02 4.596557e-04
6.140000e+02 5.006338e-04
6.150000e+02 5.451069e-04
6.160000e+02 5.933591e-04
6.170000e+02 6.456968e-04
6.180000e+02 7.024499e-04
6.190000e+02 7.639736e-04
6.200000e+02 8.306504e-04
6.210000e+02 9.028920e-04
6.220000e+02 9.811409e-04
6.230000e+02 1.065874e-03
6.240000e+02 1.157602e-03
6.250000e+02 1.256877e-03
6.260000e+02 1.364290e-03
6.270000e+02 1.480477e-03
6.280000e+02 1.606122e-03
6.290000e+02 1.741957e-03
6.300000e+02 1.888769e-03
6.310000e+02 2.047254e-03
6.320000e+02 2.218773e-03
6.330000e+02 2.403839e-03
6.340000e+02 2.603662e-03
6.350000e+02 2.819342e-03
6.360000e+02 3.051441e-03
6.370000e+02 3.303202e-03
6.380000e+02 3.574037e-03
6.390000e+02 3.866078e-03
6.400000e+02 4.180907e-03
6.410000e+02 4.520216e-03
6.420000e+02 4.885816e-03
6.430000e+02 5.279649e-03
6.440000e+02 5.703786e-03
6.450000e+02 6.160446e-03
6.460000e+02 6.652009e-03
6.470000e+02 7.181001e-03
6.480000e+02 7.750149e-03
6.490000e+02 8.362339e-03
6.500000e+02 9.020671e-03
6.510000e+02 9.728459e-03
6.520000e+02 1.048923e-02
6.530000e+02 1.130675e-02
6.540000e+02 1.218506e-02
6.550000e+02 1.312845e-02
6.560000e+02 1.414150e-02
6.570000e+02 1.522897e-02
6.580000e+02 1.639648e-02
6.590000e+02 1.764919e-02
6.600000e+02 1.899314e-02
6.610000e+02 2.043469e-02
6.620000e+02 2.198054e-02
6.630000e+02 2.363786e-02
6.640000e+02 2.541430e-02
6.650000e+02 2.731798e-02
6.660000e+02 2.935760e-02
6.670000e+02 3.154232e-02
6.680000e+02 3.388198e-02
6.690000e+02 3.638701e-02
6.700000e+02 3.906849e-02
6.710000e+02 4.193825e-02
6.720000e+02 4.500880e-02
6.730000e+02 4.829354e-02
6.740000e+02 5.180660e-02
6.750000e+02 5.556305e-02
6.760000e+02 5.957892e-02
6.770000e+02 6.387118e-02
6.780000e+02 6.845790e-02
6.790000e+02 7.335824e-02
6.800000e+02 7.859255e-02
6.810000e+02 8.418240e-02
6.820000e+02 9.015074e-02
6.830000e+02 9.652185e-02
6.840000e+02 1.033215e-01
6.850000e+02 1.105770e-01
6.860000e+02 1.183174e-01
6.870000e+02 1.265733e-01
6.880000e+02 1.353776e-01
6.890000e+02 1.447644e-01
6.900000e+02 1.547703e-01
6.910000e+02 1.654343e-01
6.920000e+02 1.767971e-01
6.930000e+02 1.889023e-01
6.940000e+02 2.017957e-01
6.950000e+02 2.155260e-01
6.960000e+02 2.301447e-01
6.970000e+02 2.457042e-01
6.980000e+02 2.622681e-01
6.990000e+02 2.798913e-01
7.000000e+02 2.986403e-01
7.010000e+02 3.185832e-01
7.020000e+02 3.397918e-01
7.030000e+02 3.623423e-01
7.040000e+02 3.863150e-01
7.050000e+02 4.117949e-01
7.060000e+02 4.388717e-01
7.070000e+02 4.676400e-01
7.080000e+02 4.982000e-01
7.090000e+02 5.306566e-01
7.100000e+02 5.651227e-01
7.110000e+02 6.017145e-01
7.120000e+02 6.405566e-01
7.130000e+02 6.817799e-01
7.140000e+02 7.255224e-01
7.150000e+02 7.719297e-01
7.160000e+02 8.211554e-01
7.170000e+02 8.733600e-01
7.180000e+02 9.287120e-01
7.190000e+02 9.874052e-01
7.200000e+02 1.049613e+00
7.210000e+02 1.115540e+00
7.220000e+02 1.185396e+00
7.230000e+02 1.259404e+00
7.240000e+02 1.337796e+00
7.250000e+02 1.420818e+00
7.260000e+02 1.508727e+00
7.270000e+02 1.601797e+00
7.280000e+02 1.700312e+00
7.290000e+02 1.804574e+00
7.300000e+02 1.914900e+00
7.310000e+02 2.031622e+00
7.320000e+02 2.155092e+00
7.330000e+02 2.285675e+00
7.340000e+02 2.423761e+00
7.350000e+02 2.569756e+00
7.360000e+02 2.724086e+00
7.370000e+02 2.887203e+00
7.380000e+02 3.059578e+00
7.390000e+02 3.241705e+00
7.400000e+02 3.434104e+00
7.410000e+02 3.637330e+00
7.420000e+02 3.851945e+00
7.430000e+02 4.078564e+00
7.440000e+02 4.317810e+00
7.450000e+02 4.570350e+00
7.460000e+02 4.836882e+00
7.470000e+02 5.118134e+00
7.480000e+02 5.414876e+00
7.490000e+02 5.727911e+00
7.500000e+02 6.058081e+00
7.510000e+02 6.406271e+00
7.520000e+02 6.773408e+00
7.530000e+02 7.160464e+00
7.540000e+02 7.568456e+00
7.550000e+02 7.998452e+00
7.560000e+02 8.451571e+00
7.570000e+02 8.928944e+00
7.580000e+02 9.431914e+00
7.590000e+02 9.961636e+00
7.600000e+02 1.051954e+01
7.610000e+02 1.110699e+01
7.620000e+02 1.172547e+01
7.630000e+02 1.237652e+01
7.640000e+02 1.306177e+01
7.650000e+02 1.378290e+01
7.660000e+02 1.454169e+01
7.670000e+02 1.533997e+01
7.680000e+02 1.617966e+01
7.690000e+02 1.706288e+01
7.700000e+02 1.799164e+01
7.710000e+02 1.896818e+01
7.720000e+02 1.999483e+01
7.730000e+02 2.107401e+01
7.740000e+02 2.220822e+01
7.750000e+02 2.340013e+01
7.760000e+02 2.465197e+01
7.770000e+02 2.596816e+01
7.780000e+02 2.735018e+01
7.790000e+02 2.880168e+01
7.800000e+02 3.032595e+01
7.810000e+02 3.192642e+01
7.820000e+02 3.360666e+01
7.830000e+02 3.537041e+01
7.840000e+02 3.722158e+01
7.850000e+02 3.916423e+01
7.860000e+02 4.120259e+01
7.870000e+02 4.334118e+01
7.880000e+02 4.558449e+01
7.890000e+02 4.793741e+01
7.900000e+02 5.040496e+01
7.910000e+02 5.299239e+01
7.920000e+02 5.570515e+01
7.930000e+02 5.854896e+01
7.940000e+02 6.152975e+01
7.950000e+02 6.465372e+01
7.960000e+02 6.792731e+01
7.970000e+02 7.135726e+01
7.980000e+02 7.495058e+01
7.990000e+02 7.871455e+01
8.000000e+02 8.265679e+01
8.010000e+02 8.678519e+01
8.020000e+02 9.110807e+01
8.030000e+02 9.563394e+01
8.040000e+02 1.003718e+02
8.050000e+02 1.053309e+02
8.060000e+02 1.105209e+02
8.070000e+02 1.159520e+02
8.080000e+02 1.216346e+02
8.090000e+02 1.275797e+02
8.100000e+02 1.337986e+02
8.110000e+02 1.403031e+02
8.120000e+02 1.471055e+02
8.130000e+02 1.542186e+02
8.140000e+02 1.616557e+02
8.150000e+02 1.694305e+02
8.160000e+02 1.775577e+02
8.170000e+02 1.860519e+02
8.180000e+02 1.949288e+02
8.190000e+02 2.042044e+02
8.200000e+02 2.138957e+02
8.210000e+02 2.240199e+02
8.220000e+02 2.345952e+02
8.230000e+02 2.456404e+02
8.240000e+02 2.571751e+02
8.250000e+02 2.692196e+02
8.260000e+02 2.817948e+02
8.270000e+02 2.949228e+02
8.280000e+02 3.086262e+02
8.290000e+02 3.229286e+02
8.300000e+02 3.378545e+02
8.310000e+02 3.534294e+02
8.320000e+02 3.696796e+02
8.330000e+02 3.866324e+02
8.340000e+02 4.043164e+02
8.350000e+02 4.227458e+02
8.360000e+02 4.419956e+02
8.370000e+02 4.620551e+02
8.380000e+02 4.829691e+02
8.390000e+02 5.047735e+02
8.400000e+02 5.275029e+02
8.410000e+02 5.511940e+02
8.420000e+02 5.758807e+02
8.430000e+02 6.016159e+02
8.440000e+02 6.284266e+02
8.450000e+02 6.563599e+02
8.460000e+02 6.854597e+02
8.470000e+02 7.157713e+02
8.480000e+02 7.473420e+02
8.490000e+02 7.802205e+02
8.500000e+02 8.144573e+02
8.510000e+02 8.501050e+02
8.520000e+02 8.872173e+02
8.530000e+02 9.258514e+02
8.540000e+02 9.660661e+02
8.550000e+02 1.007919e+03
8.560000e+02 1.051474e+03
8.570000e+02 1.096795e+03
8.580000e+02 1.143949e+03
8.590000e+02 1.193006e+03
8.600000e+02 1.244037e+03
8.610000e+02 1.297116e+03
8.620000e+02 1.352320e+03
8.630000e+02 1.409727e+03
8.640000e+02 1.469421e+03
8.650000e+02 1.531484e+03
8.660000e+02 1.596007e+03
8.670000e+02 1.663079e+03
8.680000e+02 1.732794e+03
8.690000e+02 1.805248e+03
8.700000e+02 1.880542e+03
8.710000e+02 1.958782e+03
8.720000e+02 2.040072e+03
8.730000e+02 2.124524e+03
8.740000e+02 2.212252e+03
8.750000e+02 2.303375e+03
8.760000e+02 2.398015e+03
8.770000e+02 2.496297e+03
8.780000e+02 2.598356e+03
8.790000e+02 2.704322e+03
8.800000e+02 2.814335e+03
8.810000e+02 2.928541e+03
8.820000e+02 3.047086e+03
8.830000e+02 3.170125e+03
8.840000e+02 3.297817e+03
8.850000e+02 3.430324e+03
8.860000e+02 3.567815e+03
8.870000e+02 3.710465e+03
8.880000e+02 3.858454e+03
8.890000e+02 4.011968e+03
8.900000e+02 4.171197e+03
8.910000e+02 4.336340e+03
8.920000e+02 4.505514e+03
8.930000e+02 4.685190e+03
8.940000e+02 4.869326e+03
8.950000e+02 5.060229e+03
8.960000e+02 5.258136e+03
8.970000e+02 5.463281e+03
8.980000e+02 5.675911e+03
8.990000e+02 5.896280e+03
9.000000e+02 6.124649e+03
9.010000e+02 6.361288e+03
9.020000e+02 6.606474e+03
9.030000e+02 6.860494e+03
9.040000e+02 7.123635e+03
9.050000e+02 7.396227e+03
9.060000e+02 7.678559e+03
9.070000e+02 7.970932e+03
9.080000e+02 8.273768e+03
9.090000e+02 8.587321e+03
9.100000e+02 8.911977e+03
9.110000e+02 9.248108e+03
9.120000e+02 9.596138e+03
9.130000e+02 9.924775e+03
9.140000e+02 1.040097e+04
9.150000e+02 4.045359e+04
9.160000e+02 8.647481e+04
9.170000e+02 8.940976e+04
9.180000e+02 8.184603e+04
9.190000e+02 1.128400e+05
9.200000e+02 1.209692e+05
9.210000e+02 1.327420e+04
9.220000e+02 1.293981e+05
9.230000e+02 1.015548e+05
9.240000e+02 1.244221e+05
9.250000e+02 1.393800e+05
9.260000e+02 1.294995e+05
9.270000e+02 1.456145e+05
9.280000e+02 1.565429e+05
9.290000e+02 1.454118e+05
9.300000e+02 1.636708e+05
9.310000e+02 1.478073e+05
9.320000e+02 1.763172e+05
9.330000e+02 1.818035e+05
9.340000e+02 1.857811e+05
9.350000e+02 4.146084e+04
9.360000e+02 1.836323e+05
9.370000e+02 3.507839e+04
9.380000e+02 1.194224e+05
9.390000e+02 2.066211e+05
9.400000e+02 2.234275e+05
9.410000e+02 9.536366e+04
9.420000e+02 2.365672e+05
9.430000e+02 2.354325e+05
9.440000e+02 1.949932e+05
9.450000e+02 2.586060e+05
9.460000e+02 2.652058e+05
9.470000e+02 2.371849e+05
9.480000e+02 2.558016e+05
9.490000e+02 2.856736e+05
9.500000e+02 5.904908e+04
9.510000e+02 2.963154e+05
9.520000e+02 3.147575e+05
9.530000e+02 2.821075e+05
9.540000e+02 2.678553e+05
9.550000e+02 3.393363e+05
9.560000e+02 3.275580e+05
9.570000e+02 2.162174e+05
9.580000e+02 2.787700e+05
9.590000e+02 3.875893e+05
9.600000e+02 7.495728e+04
9.610000e+02 4.078308e+05
9.620000e+02 4.147804e+05
9.630000e+02 4.279593e+05
9.640000e+02 6.048959e+04
9.650000e+02 3.903245e+05
9.660000e+02 4.630115e+05
9.670000e+02 4.574389e+05
9.680000e+02 4.378963e+05
9.690000e+02 5.041285e+05
9.700000e+02 5.172936e+05
9.710000e+02 4.989763e+05
9.720000e+02 4.963909e+05
9.730000e+02 5.108767e+05
9.740000e+02 5.751477e+05
9.750000e+02 5.908670e+05
9.760000e+02 6.201962e+05
9.770000e+02 6.363567e+05
9.780000e+02 6.464188e+05
9.790000e+02 6.752525e+05
9.800000e+02 6.937921e+05
9.810000e+02 7.059981e+05
9.820000e+02 7.007711e+05
9.830000e+02 7.516572e+05
9.840000e+02 3.486679e+05
9.850000e+02 7.807581e+05
9.860000e+02 7.989801e+05
9.870000e+02 8.365225e+05
9.880000e+02 7.455295e+05
9.890000e+02 7.195022e+05
9.900000e+02 1.581970e+05
9.910000e+02 8.422786e+05
9.920000e+02 6.527783e+05
9.930000e+02 9.447586e+05
9.940000e+02 1.735534e+05
9.950000e+02 3.307514e+05
9.960000e+02 8.804641e+05
9.970000e+02 2.767660e+05
9.980000e+02 1.110828e+06
9.990000e+02 1.075200e+06
1.000000e+03 1.177444e+06
1.001000e+03 1.209568e+06
1.002000e+03 1.240033e+06
1.003000e+03 1.170615e+06
1.004000e+03 1.168338e+06
1.005000e+03 1.231266e+06
1.006000e+03 1.373918e+06
1.007000e+03 1.410211e+06
1.008000e+03 1.442958e+06
1.009000e+03 1.419380e+06
1.010000e+03 1.518669e+06
1.011000e+03 1.559629e+06
1.012000e+03 1.596363e+06
1.013000e+03 1.635477e+06
1.014000e+03 1.120993e+06
1.015000e+03 1.435645e+06
1.016000e+03 1.686531e+06
1.017000e+03 1.247059e+06
1.018000e+03 1.792980e+06
1.019000e+03 1.615801e+06
1.020000e+03 1.945882e+06
1.021000e+03 1.149160e+06
1.022000e+03 1.768448e+06
1.023000e+03 1.732977e+06
1.024000e+03 2.012669e+06
1.025000e+03 1.222825e+06
1.026000e+03 8.492006e+05
1.027000e+03 2.058004e+06
1.028000e+03 5.821419e+05
1.029000e+03 1.699343e+06
1.030000e+03 2.440182e+06
1.031000e+03 2.473281e+06
1.032000e+03 2.604092e+06
1.033000e+03 1.032731e+06
1.034000e+03 2.724148e+06
1.035000e+03 6.223380e+05
1.036000e+03 2.044587e+06
1.037000e+03 1.852685e+06
1.038000e+03 3.037623e+06
1.039000e+03 3.090820e+06
1.040000e+03 3.180865e+06
1.041000e+03 3.248126e+06
1.042000e+03 3.320939e+06
1.043000e+03 3.286746e+06
1.044000e+03 3.508002e+06
1.045000e+03 3.584231e+06
1.046000e+03 3.679642e+06
1.047000e+03 3.714175e+06
1.048000e+03 3.440005e+06
1.049000e+03 3.887637e+06
1.050000e+03 3.996727e+06
1.051000e+03 4.038847e+06
1.052000e+03 4.234425e+06
1.053000e+03 4.315891e+06
1.054000e+03 3.041163e+06
1.055000e+03 4.545482e+06
1.056000e+03 4.657042e+06
1.057000e+03 4.724562e+06
1.058000e+03 4.811736e+06
1.059000e+03 4.628542e+06
1.060000e+03 4.596944e+06
1.061000e+03 5.188964e+06
1.062000e+03 5.208426e+06
1.063000e+03 2.426827e+06
1.064000e+03 1.278237e+06
1.065000e+03 4.200585e+06
1.066000e+03 5.351429e+06
1.067000e+03 5.411400e+06
1.068000e+03 6.154413e+06
1.069000e+03 5.035935e+06
1.070000e+03 6.370661e+06
1.071000e+03 6.587302e+06
1.072000e+03 6.734368e+06
1.073000e+03 5.378814e+06
1.074000e+03 6.935648e+06
1.075000e+03 7.040008e+06
1.076000e+03 7.366142e+06
1.077000e+03 7.116746e+06
1.078000e+03 7.533852e+06
1.079000e+03 7.781704e+06
1.080000e+03 7.990568e+06
1.081000e+03 8.196010e+06
1.082000e+03 8.374346e+06
1.083000e+03 8.539749e+06
1.084000e+03 8.793213e+06
1.085000e+03 7.608682e+06
1.086000e+03 9.184259e+06
1.087000e+03 8.719334e+06
1.088000e+03 9.570980e+06
1.089000e+03 9.801282e+06
1.090000e+03 9.742818e+06
1.091000e+03 9.921534e+06
1.092000e+03 1.045104e+07
1.093000e+03 1.067138e+07
1.094000e+03 1.087313e+07
1.095000e+03 1.114156e+07
1.096000e+03 1.133878e+07
1.097000e+03 1.153854e+07
1.098000e+03 1.183774e+07
1.099000e+03 1.203365e+07
1.100000e+03 1.100879e+07
1.101000e+03 1.104916e+07
1.102000e+03 2.280373e+07
1.103000e+03 7.741943e+07
1.104000e+03 2.897434e+07
1.105000e+03 1.286643e+07
1.106000e+03 1.225511e+08
1.107000e+03 2.655651e+07
1.108000e+03 1.507554e+08
1.109000e+03 5.829152e+07
1.110000e+03 4.853499e+07
1.111000e+03 2.774858e+07
1.112000e+03 1.410723e+08
1.113000e+03 1.777133e+08
1.114000e+03 1.100342e+07
1.115000e+03 9.732476e+07
1.116000e+03 8.417294e+07
1.117000e+03 1.112018e+07
1.118000e+03 7.627959e+07
1.119000e+03 1.718427e+08
1.120000e+03 9.268943e+07
1.121000e+03 1.726181e+08
1.122000e+03 4.869088e+06
1.123000e+03 3.031273e+07
1.124000e+03 2.001933e+08
1.125000e+03 1.215556e+08
1.126000e+03 2.171192e+08
1.127000e+03 2.095447e+08
1.128000e+03 7.852569e+07
1.129000e+03 1.926153e+08
1.130000e+03 2.058025e+08
1.131000e+03 2.309616e+08
1.132000e+03 1.483104e+07
1.133000e+03 1.088343e+08
1.134000e+03 2.029803e+08
1.135000e+03 1.012308e+07
1.136000e+03 1.684237e+08
1.137000e+03 2.487971e+08
1.138000e+03 2.141860e+08
1.139000e+03 2.533383e+08
1.140000e+03 8.725328e+06
1.141000e+03 2.616130e+08
1.142000e+03 2.706929e+08
1.143000e+03 2.639975e+08
1.144000e+03 2.825903e+08
1.145000e+03 8.328230e+07
1.146000e+03 2.924661e+08
1.147000e+03 2.877290e+08
1.148000e+03 1.518979e+08
1.149000e+03 2.965582e+08
1.150000e+03 2.698557e+08
1.151000e+03 3.124628e+08
1.152000e+03 3.124197e+08
1.153000e+03 1.289467e+08
1.154000e+03 8.756179e+07
1.155000e+03 3.042668e+08
1.156000e+03 1.352908e+08
1.157000e+03 3.414102e+08
1.158000e+03 1.502675e+07
1.159000e+03 3.057462e+08
1.160000e+03 2.952616e+08
1.161000e+03 3.587599e+08
1.162000e+03 9.524893e+07
1.163000e+03 2.812290e+08
1.164000e+03 1.646547e+07
1.165000e+03 3.806855e+08
1.166000e+03 3.721030e+08
1.167000e+03 3.656899e+08
1.168000e+03 4.052845e+08
1.169000e+03 4.035505e+08
1.170000e+03 4.037395e+08
1.171000e+03 4.123218e+08
1.172000e+03 3.515908e+08
1.173000e+03 4.386497e+08
1.174000e+03 2.105778e+08
1.175000e+03 1.948426e+07
1.176000e+03 1.774349e+07
1.177000e+03 4.697466e+08
1.178000e+03 4.634917e+08
1.179000e+03 4.800817e+08
1.180000e+03 3.457481e+08
1.181000e+03 4.972705e+08
1.182000e+03 4.993237e+08
1.183000e+03 4.897354e+08
1.184000e+03 4.865199e+08
1.185000e+03 5.119265e+08
1.186000e+03 3.927059e+08
1.187000e+03 5.255081e+08
1.188000e+03 4.591394e+08
1.189000e+03 2.398435e+07
1.190000e+03 1.358452e+08
1.191000e+03 5.320540e+08
1.192000e+03 5.571428e+08
1.193000e+03 2.293398e+07
1.194000e+03 2.728163e+07
1.195000e+03 4.333171e+08
1.196000e+03 5.652289e+08
1.197000e+03 8.558213e+08
1.198000e+03 6.545165e+08
1.199000e+03 8.403873e+08
1.200000e+03 6.217864e+08
1.201000e+03 7.902770e+08
1.202000e+03 6.948514e+08
1.203000e+03 9.569871e+08
1.204000e+03 6.156586e+08
1.205000e+03 7.976063e+08
1.206000e+03 7.435558e+08
1.207000e+03 1.291076e+08
1.208000e+03 5.660847e+08
1.209000e+03 4.391183e+08
1.210000e+03 3.664486e+07
1.211000e+03 2.619748e+08
1.212000e+03 1.769336e+08
1.213000e+03 1.130476e+08
1.214000e+03 6.707184e+07
1.215000e+03 4.186924e+07
1.216000e+03 3.798954e+07
1.217000e+03 5.914806e+07
1.218000e+03 1.035260e+08
1.219000e+03 1.744886e+08
1.220000e+03 2.595677e+08
1.221000e+03 3.898850e+08
1.222000e+03 5.198590e+08
1.223000e+03 6.725855e+08
1.224000e+03 8.436479e+08
1.225000e+03 7.184870e+08
1.226000e+03 1.183172e+09
1.227000e+03 1.334064e+09
1.228000e+03 1.217893e+09
1.229000e+03 1.579005e+09
1.230000e+03 1.606506e+09
1.231000e+03 1.446408e+09
1.232000e+03 2.180959e+09
1.233000e+03 2.344957e+09
1.234000e+03 1.499273e+09
1.235000e+03 2.578508e+09
1.236000e+03 1.828688e+09
1.237000e+03 2.852917e+09
1.238000e+03 2.790653e+09
1.239000e+03 2.871849e+09
1.240000e+03 2.772368e+09
1.241000e+03 3.832002e+09
1.242000e+03 2.633700e+09
1.243000e+03 4.151757e+09
1.244000e+03 1.802400e+09
1.245000e+03 2.595485e+09
1.246000e+03 5.901013e+09
1.247000e+03 5.919433e+09
1.248000e+03 1.862489e+09
1.249000e+03 2.502803e+09
1.250000e+03 6.903481e+09
1.251000e+03 7.912227e+09
1.252000e+03 7.291346e+09
1.253000e+03 8.138725e+09
1.254000e+03 7.402881e+09
1.255000e+03 8.618630e+09
1.256000e+03 7.722891e+09
1.257000e+03 8.696426e+09
1.258000e+03 6.344305e+09
1.259000e+03 7.997532e+09
1.260000e+03 8.128877e+09
1.261000e+03 8.750912e+07
1.262000e+03 1.108347e+09
1.263000e+03 9.504267e+09
1.264000e+03 7.079932e+09
1.265000e+03 9.152282e+07
1.266000e+03 9.554683e+09
1.267000e+03 8.185873e+09
