# wavelength_A flux
5.000000e+02 5.634920e-37
5.010000e+02 7.180987e-37
5.020000e+02 9.142520e-37
5.030000e+02 1.162883e-36
5.040000e+02 1.477766e-36
5.050000e+02 5.359783e-36
5.060000e+02 6.762832e-36
5.070000e+02 8.525647e-36
5.080000e+02 1.073855e-35
5.090000e+02 1.351405e-35
5.100000e+02 1.699317e-35
5.110000e+02 2.134839e-35
5.120000e+02 2.679714e-35
5.130000e+02 3.360802e-35
5.140000e+02 4.211355e-35
5.150000e+02 5.272245e-35
5.160000e+02 6.596072e-35
5.170000e+02 8.243037e-35
5.180000e+02 1.029680e-34
5.190000e+02 1.285016e-34
5.200000e+02 1.602193e-34
5.210000e+02 1.995879e-34
5.220000e+02 2.473241e-34
5.230000e+02 3.089765e-34
5.240000e+02 3.841148e-34
5.250000e+02 4.770351e-34
5.260000e+02 5.919489e-34
5.270000e+02 7.340461e-34
5.280000e+02 9.094286e-34
5.290000e+02 1.124242e-33
5.300000e+02 1.391178e-33
5.310000e+02 1.721036e-33
5.320000e+02 2.126153e-33
5.330000e+02 2.624026e-33
5.340000e+02 3.235981e-33
5.350000e+02 3.987532e-33
5.360000e+02 4.908809e-33
5.370000e+02 3.487919e-33
5.380000e+02 7.426195e-33
5.390000e+02 9.124753e-33
5.400000e+02 1.120857e-32
5.410000e+02 1.374366e-32
5.420000e+02 1.686007e-32
5.430000e+02 2.065572e-32
5.440000e+02 2.528774e-32
5.450000e+02 3.093647e-32
5.460000e+02 3.778567e-32
5.470000e+02 4.620322e-32
5.480000e+02 5.640506e-32
5.490000e+02 6.881154e-32
5.500000e+02 8.388861e-32
5.510000e+02 1.021991e-31
5.520000e+02 1.244209e-31
5.530000e+02 1.513749e-31
5.540000e+02 1.840393e-31
5.550000e+02 2.236018e-31
5.560000e+02 2.714872e-31
5.570000e+02 3.294082e-31
5.580000e+02 3.994219e-31
5.590000e+02 4.839979e-31
5.600000e+02 5.860986e-31
5.610000e+02 7.092755e-31
5.620000e+02 8.577838e-31
5.630000e+02 1.036718e-30
5.640000e+02 1.252176e-30
5.650000e+02 1.511481e-30
5.660000e+02 1.823284e-30
5.670000e+02 2.198009e-30
5.680000e+02 2.648130e-30
5.690000e+02 3.188403e-30
5.700000e+02 3.836516e-30
5.710000e+02 4.613529e-30
5.720000e+02 5.544497e-30
5.730000e+02 6.659254e-30
5.740000e+02 7.993274e-30
5.750000e+02 9.595319e-30
5.760000e+02 1.142388e-29
5.770000e+02 1.378325e-29
5.780000e+02 1.650449e-29
5.790000e+02 1.975116e-29
5.800000e+02 2.362230e-29
5.810000e+02 2.823483e-29
5.820000e+02 3.372545e-29
5.830000e+02 4.024327e-29
5.840000e+02 4.742365e-29
5.850000e+02 5.712498e-29
5.860000e+02 6.827812e-29
5.870000e+02 8.134175e-29
5.880000e+02 9.687363e-29
5.890000e+02 1.152618e-28
5.900000e+02 1.370835e-28
5.910000e+02 1.629195e-28
5.920000e+02 1.935440e-28
5.930000e+02 2.297819e-28
5.940000e+02 2.726546e-28
5.950000e+02 3.233498e-28
5.960000e+02 3.832627e-28
5.970000e+02 4.540314e-28
5.980000e+02 5.375926e-28
5.990000e+02 6.361751e-28
6.000000e+02 7.524352e-28
6.010000e+02 8.865752e-28
6.020000e+02 1.050911e-27
6.030000e+02 1.241007e-27
6.040000e+02 1.464725e-27
6.050000e+02 1.727870e-27
6.060000e+02 2.037241e-27
6.070000e+02 2.400770e-27
6.080000e+02 2.827725e-27
6.090000e+02 3.329005e-27
6.100000e+02 3.916990e-27
6.110000e+02 4.606673e-27
6.120000e+02 5.414984e-27
6.130000e+02 6.361955e-27
6.140000e+02 7.470829e-27
6.150000e+02 8.768648e-27
6.160000e+02 1.028687e-26
6.170000e+02 1.206208e-26
6.180000e+02 1.413675e-26
6.190000e+02 1.656075e-26
6.200000e+02 1.939056e-26
6.210000e+02 2.269291e-26
6.220000e+02 2.654501e-26
6.230000e+02 3.103618e-26
6.240000e+02 3.627031e-26
6.250000e+02 4.236710e-26
6.260000e+02 4.946559e-26
6.270000e+02 5.772646e-26
6.280000e+02 6.733596e-26
6.290000e+02 7.850985e-26
6.300000e+02 9.148260e-26
6.310000e+02 1.050883e-25
6.320000e+02 1.240462e-25
6.330000e+02 1.441452e-25
6.340000e+02 1.680012e-25
6.350000e+02 1.952830e-25
6.360000e+02 2.270106e-25
6.370000e+02 2.637557e-25
6.380000e+02 3.062764e-25
6.390000e+02 3.554956e-25
6.400000e+02 4.124439e-25
6.410000e+02 4.783066e-25
6.420000e+02 5.544466e-25
6.430000e+02 6.424298e-25
6.440000e+02 7.440552e-25
6.450000e+02 8.613533e-25
6.460000e+02 9.968019e-25
6.470000e+02 1.153012e-24
6.480000e+02 1.333133e-24
6.490000e+02 1.540774e-24
6.500000e+02 1.779697e-24
6.510000e+02 2.055441e-24
6.520000e+02 2.372645e-24
6.530000e+02 2.737598e-24
6.540000e+02 3.157422e-24
6.550000e+02 3.640124e-24
6.560000e+02 4.194916e-24
6.570000e+02 4.831774e-24
6.580000e+02 5.564305e-24
6.590000e+02 6.404622e-24
6.600000e+02 7.368645e-24
6.610000e+02 8.474979e-24
6.620000e+02 9.743233e-24
6.630000e+02 1.119695e-23
6.640000e+02 1.286242e-23
6.650000e+02 1.476970e-23
6.660000e+02 1.695355e-23
6.670000e+02 1.945257e-23
6.680000e+02 2.231151e-23
6.690000e+02 2.558070e-23
6.700000e+02 2.931772e-23
6.710000e+02 3.358789e-23
6.720000e+02 3.846544e-23
6.730000e+02 4.403471e-23
6.740000e+02 5.039142e-23
6.750000e+02 5.764421e-23
6.760000e+02 6.591636e-23
6.770000e+02 7.534824e-23
6.780000e+02 8.609726e-23
6.790000e+02 9.834347e-23
6.800000e+02 1.122908e-22
6.810000e+02 1.281692e-22
6.820000e+02 1.462399e-22
6.830000e+02 1.667982e-22
6.840000e+02 1.901780e-22
6.850000e+02 2.167505e-22
6.860000e+02 2.469634e-22
6.870000e+02 2.812788e-22
6.880000e+02 3.202492e-22
6.890000e+02 3.644911e-22
6.900000e+02 4.147021e-22
6.910000e+02 4.716614e-22
6.920000e+02 5.362575e-22
6.930000e+02 6.094894e-22
6.940000e+02 6.924831e-22
6.950000e+02 7.865080e-22
6.960000e+02 8.929940e-22
6.970000e+02 1.013509e-21
6.980000e+02 1.149996e-21
6.990000e+02 1.304367e-21
7.000000e+02 1.478964e-21
7.010000e+02 1.676368e-21
7.020000e+02 1.899488e-21
7.030000e+02 2.151141e-21
7.040000e+02 2.436360e-21
7.050000e+02 2.757885e-21
7.060000e+02 3.120768e-21
7.070000e+02 3.530381e-21
7.080000e+02 3.992375e-21
7.090000e+02 4.513223e-21
7.100000e+02 5.100700e-21
7.110000e+02 5.762602e-21
7.120000e+02 6.508310e-21
7.130000e+02 7.348172e-21
7.140000e+02 8.293772e-21
7.150000e+02 9.357996e-21
7.160000e+02 1.055575e-20
7.170000e+02 1.190274e-20
7.180000e+02 1.341726e-20
7.190000e+02 1.512058e-20
7.200000e+02 1.703433e-20
7.210000e+02 1.918440e-20
7.220000e+02 2.159917e-20
7.230000e+02 2.431042e-20
7.240000e+02 2.735365e-20
7.250000e+02 3.076845e-20
7.260000e+02 3.459632e-20
7.270000e+02 3.889480e-20
7.280000e+02 4.371114e-20
7.290000e+02 4.910867e-20
7.300000e+02 5.515622e-20
7.310000e+02 6.193009e-20
7.320000e+02 6.951522e-20
7.330000e+02 7.800630e-20
7.340000e+02 8.750879e-20
7.350000e+02 9.814004e-20
7.360000e+02 1.100275e-19
7.370000e+02 1.233261e-19
7.380000e+02 1.381882e-19
7.390000e+02 1.547971e-19
7.400000e+02 1.733488e-19
7.410000e+02 1.940744e-19
7.420000e+02 2.172088e-19
7.430000e+02 2.430398e-19
7.440000e+02 2.718611e-19
7.450000e+02 3.040144e-19
7.460000e+02 3.398748e-19
7.470000e+02 3.798593e-19
7.480000e+02 4.244284e-19
7.490000e+02 4.740947e-19
7.500000e+02 5.294262e-19
7.510000e+02 5.910520e-19
7.520000e+02 6.596696e-19
7.530000e+02 7.360512e-19
7.540000e+02 8.210522e-19
7.550000e+02 9.156202e-19
7.560000e+02 1.020803e-18
7.570000e+02 1.137613e-18
7.580000e+02 1.267776e-18
7.590000e+02 1.412255e-18
7.600000e+02 1.572820e-18
7.610000e+02 1.751143e-18
7.620000e+02 1.949177e-18
7.630000e+02 2.169026e-18
7.640000e+02 2.413040e-18
7.650000e+02 2.683757e-18
7.660000e+02 2.984144e-18
7.670000e+02 3.317240e-18
7.680000e+02 3.686478e-18
7.690000e+02 4.039123e-18
7.700000e+02 4.549609e-18
7.710000e+02 5.052217e-18
7.720000e+02 5.608918e-18
7.730000e+02 6.225364e-18
7.740000e+02 6.907801e-18
7.750000e+02 7.663105e-18
7.760000e+02 8.491751e-18
7.770000e+02 9.423357e-18
7.780000e+02 1.044582e-17
7.790000e+02 1.157633e-17
7.800000e+02 1.282598e-17
7.810000e+02 1.420703e-17
7.820000e+02 1.573286e-17
7.830000e+02 1.741827e-17
7.840000e+02 1.927948e-17
7.850000e+02 2.133434e-17
7.860000e+02 2.360221e-17
7.870000e+02 2.610729e-17
7.880000e+02 2.886878e-17
7.890000e+02 3.191465e-17
7.900000e+02 3.527338e-17
7.910000e+02 3.897622e-17
7.920000e+02 4.305747e-17
7.930000e+02 4.755472e-17
7.940000e+02 5.250919e-17
7.950000e+02 5.796611e-17
7.960000e+02 6.397502e-17
7.970000e+02 7.059022e-17
7.980000e+02 7.787130e-17
7.990000e+02 8.588279e-17
8.000000e+02 9.469734e-17
8.010000e+02 1.043910e-16
8.020000e+02 1.150522e-16
8.030000e+02 1.267718e-16
8.040000e+02 1.396532e-16
8.050000e+02 1.538083e-16
8.060000e+02 1.693594e-16
8.070000e+02 1.864405e-16
8.080000e+02 2.051977e-16
8.090000e+02 2.257909e-16
8.100000e+02 2.483949e-16
8.110000e+02 2.732004e-16
8.120000e+02 3.004152e-16
8.130000e+02 3.302687e-16
8.140000e+02 3.630078e-16
8.150000e+02 3.989032e-16
8.160000e+02 4.382511e-16
8.170000e+02 4.813668e-16
8.180000e+02 5.286246e-16
8.190000e+02 5.803860e-16
8.200000e+02 6.370767e-16
8.210000e+02 6.991525e-16
8.220000e+02 7.671112e-16
8.230000e+02 8.414936e-16
8.240000e+02 9.228896e-16
8.250000e+02 1.011942e-15
8.260000e+02 1.109350e-15
8.270000e+02 1.215875e-15
8.280000e+02 1.332345e-15
8.290000e+02 1.459666e-15
8.300000e+02 1.598813e-15
8.310000e+02 1.750856e-15
8.320000e+02 1.916956e-15
8.330000e+02 2.098374e-15
8.340000e+02 2.296483e-15
8.350000e+02 2.509498e-15
8.360000e+02 2.748836e-15
8.370000e+02 3.006518e-15
8.380000e+02 3.287167e-15
8.390000e+02 3.594291e-15
8.400000e+02 3.928797e-15
8.410000e+02 4.293525e-15
8.420000e+02 4.691028e-15
8.430000e+02 5.124581e-15
8.440000e+02 5.596924e-15
8.450000e+02 6.111566e-15
8.460000e+02 6.672189e-15
8.470000e+02 7.282782e-15
8.480000e+02 7.947665e-15
8.490000e+02 8.671526e-15
8.500000e+02 9.459440e-15
8.510000e+02 1.031691e-14
8.520000e+02 1.124983e-14
8.530000e+02 1.226482e-14
8.540000e+02 1.336888e-14
8.550000e+02 1.456930e-14
8.560000e+02 1.587434e-14
8.570000e+02 1.729308e-14
8.580000e+02 1.881429e-14
8.590000e+02 2.051026e-14
8.600000e+02 2.233032e-14
8.610000e+02 2.430723e-14
8.620000e+02 2.645410e-14
8.630000e+02 2.878489e-14
8.640000e+02 3.131559e-14
8.650000e+02 3.405899e-14
8.660000e+02 3.704242e-14
8.670000e+02 4.027599e-14
8.680000e+02 4.378362e-14
8.690000e+02 4.758784e-14
8.700000e+02 5.171294e-14
8.710000e+02 5.618523e-14
8.720000e+02 6.103302e-14
8.730000e+02 6.628675e-14
8.740000e+02 7.197959e-14
8.750000e+02 7.814695e-14
8.760000e+02 8.482722e-14
8.770000e+02 9.206045e-14
8.780000e+02 9.989463e-14
8.790000e+02 1.083754e-13
8.800000e+02 1.175544e-13
8.810000e+02 1.274878e-13
8.820000e+02 1.382358e-13
8.830000e+02 1.498631e-13
8.840000e+02 1.624394e-13
8.850000e+02 1.760397e-13
8.860000e+02 1.907447e-13
8.870000e+02 2.066416e-13
8.880000e+02 2.238239e-13
8.890000e+02 2.423927e-13
8.900000e+02 2.624558e-13
8.910000e+02 2.841298e-13
8.920000e+02 3.074490e-13
8.930000e+02 3.328213e-13
8.940000e+02 3.601185e-13
8.950000e+02 3.895873e-13
8.960000e+02 4.213951e-13
8.970000e+02 4.557215e-13
8.980000e+02 4.927599e-13
8.990000e+02 5.327178e-13
9.000000e+02 5.758177e-13
9.010000e+02 6.222993e-13
9.020000e+02 6.724193e-13
9.030000e+02 7.264499e-13
9.040000e+02 7.846984e-13
9.050000e+02 8.474637e-13
9.060000e+02 9.151117e-13
9.070000e+02 9.879443e-13
9.080000e+02 1.066489e-12
9.090000e+02 1.151037e-12
9.100000e+02 1.242084e-12
9.110000e+02 1.340150e-12
9.120000e+02 1.446135e-12
9.130000e+02 1.357650e-12
9.140000e+02 7.275958e-12
9.150000e+02 2.302011e-04
9.160000e+02 6.401388e-04
9.170000e+02 6.694219e-04
9.180000e+02 6.971690e-04
9.190000e+02 7.331452e-04
9.200000e+02 7.667369e-04
9.210000e+02 2.512213e-12
9.220000e+02 8.326846e-04
9.230000e+02 8.654423e-04
9.240000e+02 8.761268e-04
9.250000e+02 8.983695e-04
9.260000e+02 9.838117e-04
9.270000e+02 1.034885e-03
9.280000e+02 1.099762e-03
9.290000e+02 7.083954e-05
9.300000e+02 7.235880e-04
9.310000e+02 1.185554e-03
9.320000e+02 1.309934e-03
9.330000e+02 1.362261e-03
9.340000e+02 1.317369e-03
9.350000e+02 1.129229e-07
9.360000e+02 1.441590e-03
9.370000e+02 1.760964e-08
9.380000e+02 9.844034e-07
9.390000e+02 1.499927e-03
9.400000e+02 1.822422e-03
9.410000e+02 5.919137e-07
9.420000e+02 1.982872e-03
9.430000e+02 1.367401e-03
9.440000e+02 1.255093e-03
9.450000e+02 2.223315e-03
9.460000e+02 2.304743e-03
9.470000e+02 1.387711e-05
9.480000e+02 1.793134e-05
9.490000e+02 2.481126e-03
9.500000e+02 1.426088e-08
9.510000e+02 2.761073e-03
9.520000e+02 3.018162e-03
9.530000e+02 1.648974e-03
9.540000e+02 8.472195e-05
9.550000e+02 3.063826e-03
9.560000e+02 2.010027e-06
9.570000e+02 9.280839e-05
9.580000e+02 7.773656e-05
9.590000e+02 4.325281e-03
9.600000e+02 7.636845e-08
9.610000e+02 4.371802e-03
9.620000e+02 4.694170e-03
9.630000e+02 4.147485e-03
9.640000e+02 3.725290e-09
9.650000e+02 7.122969e-04
9.660000e+02 5.312604e-03
9.670000e+02 3.511953e-03
9.680000e+02 3.042272e-03
9.690000e+02 5.914669e-03
9.700000e+02 6.492068e-03
9.710000e+02 4.271934e-03
9.720000e+02 1.800774e-03
9.730000e+02 2.724545e-03
9.740000e+02 6.449666e-03
9.750000e+02 6.973330e-03
9.760000e+02 8.875777e-03
9.770000e+02 9.408785e-03
9.780000e+02 9.386472e-03
9.790000e+02 1.041570e-02
9.800000e+02 1.083863e-02
9.810000e+02 1.108267e-02
9.820000e+02 1.032946e-02
9.830000e+02 1.229291e-02
9.840000e+02 9.401652e-05
9.850000e+02 4.231621e-03
9.860000e+02 1.146740e-02
9.870000e+02 1.478575e-02
9.880000e+02 1.575756e-03
9.890000e+02 1.198668e-02
9.900000e+02 5.687151e-06
9.910000e+02 8.259153e-03
9.920000e+02 5.991943e-05
9.930000e+02 9.895870e-03
9.940000e+02 3.911555e-08
9.950000e+02 1.102347e-04
9.960000e+02 4.810559e-03
9.970000e+02 2.169982e-07
9.980000e+02 2.251029e-02
9.990000e+02 5.148002e-03
1.000000e+03 2.202836e-02
1.001000e+03 2.744130e-02
1.002000e+03 2.900764e-02
1.003000e+03 2.252716e-02
1.004000e+03 3.976495e-03
1.005000e+03 2.694503e-02
1.006000e+03 3.448270e-02
1.007000e+03 3.518986e-02
1.008000e+03 3.581585e-02
1.009000e+03 2.453207e-02
1.010000e+03 4.078878e-02
1.011000e+03 4.254492e-02
1.012000e+03 4.427055e-02
1.013000e+03 4.616462e-02
1.014000e+03 1.332834e-04
1.015000e+03 2.755947e-03
1.016000e+03 3.866776e-02
1.017000e+03 1.663938e-04
1.018000e+03 4.415147e-02
1.019000e+03 5.270675e-03
1.020000e+03 5.848752e-02
1.021000e+03 5.448237e-05
1.022000e+03 1.263272e-02
1.023000e+03 1.084514e-02
1.024000e+03 4.977472e-04
1.025000e+03 4.104868e-05
1.026000e+03 2.655224e-05
1.027000e+03 2.354085e-03
1.028000e+03 2.786517e-06
1.029000e+03 2.445579e-04
1.030000e+03 3.705763e-02
1.031000e+03 8.374036e-02
1.032000e+03 4.097343e-02
1.033000e+03 1.071692e-04
1.034000e+03 9.975203e-02
1.035000e+03 9.313226e-07
1.036000e+03 5.715489e-04
1.037000e+03 1.220692e-01
1.038000e+03 1.290551e-01
1.039000e+03 1.234609e-01
1.040000e+03 1.398527e-01
1.041000e+03 1.009991e-01
1.042000e+03 1.524646e-01
1.043000e+03 8.460018e-02
1.044000e+03 1.654302e-01
1.045000e+03 1.713716e-01
1.046000e+03 1.787390e-01
1.047000e+03 1.782537e-01
1.048000e+03 7.176626e-02
1.049000e+03 1.290755e-01
1.050000e+03 1.763279e-01
1.051000e+03 1.613544e-01
1.052000e+03 2.264414e-01
1.053000e+03 2.347774e-01
1.054000e+03 8.013248e-04
1.055000e+03 4.585743e-03
1.056000e+03 2.671528e-01
1.057000e+03 2.676798e-01
1.058000e+03 2.505903e-01
1.059000e+03 2.144947e-01
1.060000e+03 8.404092e-02
1.061000e+03 3.231649e-01
1.062000e+03 2.591150e-01
1.063000e+03 8.515504e-06
1.064000e+03 8.940697e-07
1.065000e+03 2.119958e-03
1.066000e+03 3.720224e-04
1.067000e+03 4.758217e-02
1.068000e+03 4.267588e-01
1.069000e+03 5.400513e-02
1.070000e+03 4.417449e-01
1.071000e+03 4.783940e-01
1.072000e+03 4.970180e-01
1.073000e+03 1.026517e-02
1.074000e+03 5.229505e-01
1.075000e+03 5.199885e-01
1.076000e+03 2.315079e-01
1.077000e+03 1.136661e-04
1.078000e+03 4.983013e-01
1.079000e+03 6.076803e-01
1.080000e+03 5.814092e-01
1.081000e+03 6.882329e-01
1.082000e+03 6.733742e-01
1.083000e+03 5.231507e-01
1.084000e+03 6.704572e-01
1.085000e+03 6.015241e-02
1.086000e+03 8.264837e-01
1.087000e+03 5.210508e-01
1.088000e+03 8.464971e-01
1.089000e+03 9.124805e-01
1.090000e+03 8.427117e-01
1.091000e+03 6.841987e-01
1.092000e+03 2.195104e-01
1.093000e+03 9.808609e-01
1.094000e+03 1.026217e+00
1.095000e+03 1.101471e+00
1.096000e+03 4.534763e-02
1.097000e+03 2.729180e-01
1.098000e+03 9.782398e-02
1.099000e+03 1.149828e+00
1.100000e+03 4.538901e-02
1.101000e+03 5.012938e-01
1.102000e+03 1.603424e+00
1.103000e+03 2.529400e+00
1.104000e+03 2.200993e+00
1.105000e+03 1.407078e+00
1.106000e+03 3.768035e+00
1.107000e+03 4.838777e-01
1.108000e+03 3.259318e+00
1.109000e+03 1.003680e+00
1.110000e+03 2.082528e+00
1.111000e+03 2.298713e+00
1.112000e+03 3.654088e+00
1.113000e+03 3.894547e+00
1.114000e+03 1.194657e+00
1.115000e+03 2.919579e+00
1.116000e+03 2.491531e+00
1.117000e+03 1.739320e+00
1.118000e+03 1.820208e+00
1.119000e+03 4.682823e+00
1.120000e+03 3.081986e+00
1.121000e+03 4.726894e+00
1.122000e+03 7.917356e-02
1.123000e+03 2.027135e+00
1.124000e+03 5.066160e+00
1.125000e+03 4.042044e+00
1.126000e+03 5.234523e+00
1.127000e+03 5.012429e+00
1.128000e+03 3.404278e+00
1.129000e+03 5.241021e+00
1.130000e+03 2.435755e+00
1.131000e+03 5.229781e+00
1.132000e+03 5.309820e-02
1.133000e+03 4.489537e+00
1.134000e+03 3.361962e+00
1.135000e+03 4.734993e-04
1.136000e+03 5.434375e+00
1.137000e+03 6.100726e+00
1.138000e+03 6.097906e+00
1.139000e+03 6.252592e+00
1.140000e+03 9.998999e-01
1.141000e+03 6.470945e+00
1.142000e+03 6.561165e+00
1.143000e+03 6.065056e+00
1.144000e+03 6.367698e+00
1.145000e+03 1.745043e+00
1.146000e+03 6.930931e+00
1.147000e+03 6.903866e+00
1.148000e+03 5.906582e+00
1.149000e+03 7.225132e+00
1.150000e+03 7.096983e+00
1.151000e+03 7.393323e+00
1.152000e+03 7.568608e+00
1.153000e+03 4.467348e+00
1.154000e+03 7.343844e+00
1.155000e+03 7.796149e+00
1.156000e+03 5.005360e-02
1.157000e+03 7.859936e+00
1.158000e+03 1.081532e+00
1.159000e+03 7.024830e+00
1.160000e+03 8.326068e+00
1.161000e+03 8.530438e+00
1.162000e+03 1.849955e+00
1.163000e+03 8.417753e+00
1.164000e+03 1.439095e-03
1.165000e+03 9.026431e+00
1.166000e+03 9.213206e+00
1.167000e+03 9.405574e+00
1.168000e+03 9.539230e+00
1.169000e+03 5.575925e+00
1.170000e+03 9.890134e+00
1.171000e+03 1.022078e+01
1.172000e+03 1.039522e+01
1.173000e+03 1.065713e+01
1.174000e+03 6.336769e+00
1.175000e+03 1.727104e-03
1.176000e+03 4.053116e-04
1.177000e+03 1.150276e+01
1.178000e+03 1.162945e+01
1.179000e+03 1.192135e+01
1.180000e+03 1.095477e+01
1.181000e+03 1.218773e+01
1.182000e+03 1.253163e+01
1.183000e+03 1.282686e+01
1.184000e+03 1.260081e+01
1.185000e+03 1.324039e+01
1.186000e+03 8.442375e+00
1.187000e+03 1.338766e+01
1.188000e+03 1.323488e+01
1.189000e+03 3.015309e+00
1.190000e+03 7.692460e+00
1.191000e+03 1.402758e+01
1.192000e+03 1.400364e+01
1.193000e+03 5.974102e-01
1.194000e+03 4.014812e+00
1.195000e+03 1.355354e+01
1.196000e+03 1.392467e+01
1.197000e+03 3.537098e+01
1.198000e+03 3.196111e+01
1.199000e+03 3.076658e+01
1.200000e+03 2.564738e+01
1.201000e+03 2.766137e+01
1.202000e+03 2.634956e+01
1.203000e+03 4.243295e+01
1.204000e+03 3.369987e+01
1.205000e+03 2.948325e+01
1.206000e+03 2.697220e+01
1.207000e+03 1.504803e-01
1.208000e+03 1.352802e+01
1.209000e+03 7.742793e+00
1.210000e+03 2.400398e-03
1.211000e+03 2.275729e+00
1.212000e+03 7.959162e-01
1.213000e+03 2.481990e-01
1.214000e+03 4.214083e-02
1.215000e+03 3.083320e-03
1.216000e+03 5.941985e-04
1.217000e+03 2.131305e-02
1.218000e+03 1.694839e-01
1.219000e+03 7.129331e-01
1.220000e+03 2.153973e+00
1.221000e+03 4.583785e+00
1.222000e+03 9.404480e+00
1.223000e+03 1.441940e+01
1.224000e+03 2.195877e+01
1.225000e+03 3.201332e+01
1.226000e+03 4.475630e+01
1.227000e+03 5.024262e+01
1.228000e+03 7.578284e+01
1.229000e+03 9.117529e+01
1.230000e+03 6.486821e-02
1.231000e+03 9.455959e+01
1.232000e+03 1.375887e+02
1.233000e+03 1.579030e+02
1.234000e+03 7.837945e+01
1.235000e+03 1.911895e+02
1.236000e+03 2.015714e+02
1.237000e+03 2.223180e+02
1.238000e+03 2.374601e+02
1.239000e+03 2.447551e+02
1.240000e+03 1.616605e+01
1.241000e+03 2.664433e+02
1.242000e+03 2.770236e+02
1.243000e+03 3.095663e+02
1.244000e+03 2.778628e+02
1.245000e+03 1.707997e+02
1.246000e+03 3.633816e+02
1.247000e+03 3.661610e+02
1.248000e+03 3.866159e+01
1.249000e+03 3.321284e+02
1.250000e+03 3.422925e+02
1.251000e+03 4.331822e+02
1.252000e+03 4.072035e+02
1.253000e+03 4.576382e+02
1.254000e+03 4.533499e+02
1.255000e+03 4.095969e+01
1.256000e+03 4.093898e+02
1.257000e+03 3.722421e+02
1.258000e+03 4.162273e+02
1.259000e+03 5.240137e+02
1.260000e+03 4.861963e+02
1.261000e+03 2.785877e+00
1.262000e+03 3.801795e+02
1.263000e+03 2.604943e+02
1.264000e+03 4.672222e+02
1.265000e+03 1.080170e-01
1.266000e+03 6.040798e+02
1.267000e+03 6.190005e+02
