# wavelength_A flux
5.000000e+02 1.681444e-03
5.010000e+02 1.865672e-03
5.020000e+02 2.069192e-03
5.030000e+02 2.293887e-03
5.040000e+02 2.541936e-03
5.050000e+02 2.822696e-03
5.060000e+02 3.124938e-03
5.070000e+02 3.458097e-03
5.080000e+02 3.825179e-03
5.090000e+02 4.230169e-03
5.100000e+02 4.674654e-03
5.110000e+02 5.164497e-03
5.120000e+02 5.703044e-03
5.130000e+02 6.295388e-03
5.140000e+02 6.946641e-03
5.150000e+02 7.662097e-03
5.160000e+02 8.448032e-03
5.170000e+02 9.310541e-03
5.180000e+02 1.025766e-02
5.190000e+02 1.129648e-02
5.200000e+02 1.243568e-02
5.210000e+02 1.368449e-02
5.220000e+02 1.505213e-02
5.230000e+02 1.655143e-02
5.240000e+02 1.819227e-02
5.250000e+02 1.998890e-02
5.260000e+02 2.195459e-02
5.270000e+02 2.410458e-02
5.280000e+02 2.645535e-02
5.290000e+02 2.902181e-02
5.300000e+02 3.183190e-02
5.310000e+02 3.489787e-02
5.320000e+02 3.824538e-02
5.330000e+02 4.189888e-02
5.340000e+02 4.588497e-02
5.350000e+02 5.023238e-02
5.360000e+02 5.497057e-02
5.370000e+02 6.007895e-02
5.380000e+02 6.576432e-02
5.390000e+02 7.189522e-02
5.400000e+02 7.856925e-02
5.410000e+02 8.583109e-02
5.420000e+02 9.373692e-02
5.430000e+02 1.023343e-01
5.440000e+02 1.116819e-01
5.450000e+02 1.218424e-01
5.460000e+02 1.328742e-01
5.470000e+02 1.448754e-01
5.480000e+02 1.578993e-01
5.490000e+02 1.720345e-01
5.500000e+02 1.873755e-01
5.510000e+02 2.040136e-01
5.520000e+02 2.220614e-01
5.530000e+02 2.416290e-01
5.540000e+02 2.628367e-01
5.550000e+02 2.858148e-01
5.560000e+02 3.106991e-01
5.570000e+02 3.376483e-01
5.580000e+02 3.668094e-01
5.590000e+02 3.983769e-01
5.600000e+02 4.325271e-01
5.610000e+02 4.694602e-01
5.620000e+02 5.093910e-01
5.630000e+02 5.525497e-01
5.640000e+02 5.991834e-01
5.650000e+02 6.495574e-01
5.660000e+02 7.039551e-01
5.670000e+02 7.626811e-01
5.680000e+02 8.260611e-01
5.690000e+02 8.944442e-01
5.700000e+02 9.682039e-01
5.710000e+02 1.047729e+00
5.720000e+02 1.133473e+00
5.730000e+02 1.225873e+00
5.740000e+02 1.325428e+00
5.750000e+02 1.432660e+00
5.760000e+02 1.548086e+00
5.770000e+02 1.672386e+00
5.780000e+02 1.806155e+00
5.790000e+02 1.950016e+00
5.800000e+02 2.104811e+00
5.810000e+02 2.271271e+00
5.820000e+02 2.450222e+00
5.830000e+02 2.642548e+00
5.840000e+02 2.849194e+00
5.850000e+02 3.071168e+00
5.860000e+02 3.309542e+00
5.870000e+02 3.565470e+00
5.880000e+02 3.840150e+00
5.890000e+02 4.134894e+00
5.900000e+02 4.451091e+00
5.910000e+02 4.790208e+00
5.920000e+02 5.153813e+00
5.930000e+02 5.543575e+00
5.940000e+02 5.961271e+00
5.950000e+02 6.408815e+00
5.960000e+02 6.888138e+00
5.970000e+02 7.401453e+00
5.980000e+02 7.950741e+00
5.990000e+02 8.538713e+00
6.000000e+02 9.168097e+00
6.010000e+02 9.841416e+00
6.020000e+02 1.056156e+01
6.030000e+02 1.133157e+01
6.040000e+02 1.215476e+01
6.050000e+02 1.303456e+01
6.060000e+02 1.397464e+01
6.070000e+02 1.497890e+01
6.080000e+02 1.605142e+01
6.090000e+02 1.719665e+01
6.100000e+02 1.841920e+01
6.110000e+02 1.972397e+01
6.120000e+02 2.111618e+01
6.130000e+02 2.260135e+01
6.140000e+02 2.418531e+01
6.150000e+02 2.587426e+01
6.160000e+02 2.767341e+01
6.170000e+02 2.959229e+01
6.180000e+02 3.163697e+01
6.190000e+02 3.381521e+01
6.200000e+02 3.613426e+01
6.210000e+02 3.860465e+01
6.220000e+02 4.123456e+01
6.230000e+02 4.403388e+01
6.240000e+02 4.701278e+01
6.250000e+02 5.018208e+01
6.260000e+02 5.355322e+01
6.270000e+02 5.713829e+01
6.280000e+02 6.094836e+01
6.290000e+02 6.500017e+01
6.300000e+02 6.930636e+01
6.310000e+02 7.388168e+01
6.320000e+02 7.874269e+01
6.330000e+02 8.390224e+01
6.340000e+02 8.938428e+01
6.350000e+02 9.520443e+01
6.360000e+02 1.014281e+02
6.370000e+02 1.079383e+02
6.380000e+02 1.148945e+02
6.390000e+02 1.222734e+02
6.400000e+02 1.300996e+02
6.410000e+02 1.383946e+02
6.420000e+02 1.471924e+02
6.430000e+02 1.565177e+02
6.440000e+02 1.664002e+02
6.450000e+02 1.768712e+02
6.460000e+02 1.879632e+02
6.470000e+02 1.997113e+02
6.480000e+02 2.121511e+02
6.490000e+02 2.253215e+02
6.500000e+02 2.392532e+02
6.510000e+02 2.540126e+02
6.520000e+02 2.696236e+02
6.530000e+02 2.861386e+02
6.540000e+02 3.036060e+02
6.550000e+02 3.220739e+02
6.560000e+02 3.416048e+02
6.570000e+02 3.622520e+02
6.580000e+02 3.840726e+02
6.590000e+02 4.071318e+02
6.600000e+02 4.314822e+02
6.610000e+02 4.572166e+02
6.620000e+02 4.843959e+02
6.630000e+02 5.130961e+02
6.640000e+02 5.433962e+02
6.650000e+02 5.753569e+02
6.660000e+02 6.091113e+02
6.670000e+02 6.447278e+02
6.680000e+02 6.823048e+02
6.690000e+02 7.219420e+02
6.700000e+02 7.637452e+02
6.710000e+02 8.078305e+02
6.720000e+02 8.583823e+02
6.730000e+02 9.032823e+02
6.740000e+02 9.549087e+02
6.750000e+02 1.009309e+03
6.760000e+02 1.066622e+03
6.770000e+02 1.126994e+03
6.780000e+02 1.190542e+03
6.790000e+02 1.257495e+03
6.800000e+02 1.327983e+03
6.810000e+02 1.402126e+03
6.820000e+02 1.480221e+03
6.830000e+02 1.562401e+03
6.840000e+02 1.648867e+03
6.850000e+02 1.739827e+03
6.860000e+02 1.835443e+03
6.870000e+02 1.936061e+03
6.880000e+02 2.041836e+03
6.890000e+02 2.153050e+03
6.900000e+02 2.269910e+03
6.910000e+02 2.392755e+03
6.920000e+02 2.521846e+03
6.930000e+02 2.657472e+03
6.940000e+02 2.799941e+03
6.950000e+02 2.949512e+03
6.960000e+02 3.106548e+03
6.970000e+02 3.271552e+03
6.980000e+02 3.444724e+03
6.990000e+02 3.626519e+03
7.000000e+02 3.817310e+03
7.010000e+02 4.017505e+03
7.020000e+02 4.227549e+03
7.030000e+02 4.447869e+03
7.040000e+02 4.678969e+03
7.050000e+02 4.921322e+03
7.060000e+02 5.175439e+03
7.070000e+02 5.441848e+03
7.080000e+02 5.721105e+03
7.090000e+02 6.013789e+03
7.100000e+02 6.320493e+03
7.110000e+02 6.641840e+03
7.120000e+02 6.978496e+03
7.130000e+02 7.330897e+03
7.140000e+02 7.700203e+03
7.150000e+02 8.086925e+03
7.160000e+02 8.491827e+03
7.170000e+02 8.915718e+03
7.180000e+02 9.359441e+03
7.190000e+02 9.823710e+03
7.200000e+02 1.030960e+04
7.210000e+02 1.081798e+04
7.220000e+02 1.134981e+04
7.230000e+02 1.190590e+04
7.240000e+02 1.248767e+04
7.250000e+02 1.309603e+04
7.260000e+02 1.373211e+04
7.270000e+02 1.439691e+04
7.280000e+02 1.509197e+04
7.290000e+02 1.581787e+04
7.300000e+02 1.658185e+04
7.310000e+02 1.737007e+04
7.320000e+02 1.820077e+04
7.330000e+02 1.906413e+04
7.340000e+02 1.996809e+04
7.350000e+02 2.091231e+04
7.360000e+02 2.189780e+04
7.370000e+02 2.292614e+04
7.380000e+02 2.400035e+04
7.390000e+02 2.512153e+04
7.400000e+02 2.629165e+04
7.410000e+02 2.751262e+04
7.420000e+02 2.878654e+04
7.430000e+02 3.011549e+04
7.440000e+02 3.150169e+04
7.450000e+02 3.294690e+04
7.460000e+02 3.445455e+04
7.470000e+02 3.602660e+04
7.480000e+02 3.766548e+04
7.490000e+02 3.937391e+04
7.500000e+02 4.115477e+04
7.510000e+02 4.301047e+04
7.520000e+02 4.494430e+04
7.530000e+02 4.695838e+04
7.540000e+02 4.905749e+04
7.550000e+02 5.124411e+04
7.560000e+02 5.352143e+04
7.570000e+02 5.589334e+04
7.580000e+02 5.836282e+04
7.590000e+02 6.093424e+04
7.600000e+02 6.361098e+04
7.610000e+02 6.639734e+04
7.620000e+02 6.929741e+04
7.630000e+02 7.231542e+04
7.640000e+02 7.545587e+04
7.650000e+02 7.872330e+04
7.660000e+02 8.212239e+04
7.670000e+02 8.565816e+04
7.680000e+02 8.933594e+04
7.690000e+02 9.315995e+04
7.700000e+02 9.713668e+04
7.710000e+02 1.012714e+05
7.720000e+02 1.055698e+05
7.730000e+02 1.100380e+05
7.740000e+02 1.146820e+05
7.750000e+02 1.195083e+05
7.760000e+02 1.245262e+05
7.770000e+02 1.297339e+05
7.780000e+02 1.351475e+05
7.790000e+02 1.407712e+05
7.800000e+02 1.466123e+05
7.810000e+02 1.526758e+05
7.820000e+02 1.589753e+05
7.830000e+02 1.655110e+05
7.840000e+02 1.723019e+05
7.850000e+02 1.793517e+05
7.860000e+02 1.866695e+05
7.870000e+02 1.942645e+05
7.880000e+02 2.021466e+05
7.890000e+02 2.103257e+05
7.900000e+02 2.188123e+05
7.910000e+02 2.276162e+05
7.920000e+02 2.367490e+05
7.930000e+02 2.462222e+05
7.940000e+02 2.560471e+05
7.950000e+02 2.662358e+05
7.960000e+02 2.768008e+05
7.970000e+02 2.877545e+05
7.980000e+02 2.991107e+05
7.990000e+02 3.108820e+05
8.000000e+02 3.230833e+05
8.010000e+02 3.357287e+05
8.020000e+02 3.488328e+05
8.030000e+02 3.624115e+05
8.040000e+02 3.764797e+05
8.050000e+02 3.910545e+05
8.060000e+02 4.061519e+05
8.070000e+02 4.217888e+05
8.080000e+02 4.379753e+05
8.090000e+02 4.547468e+05
8.100000e+02 4.721143e+05
8.110000e+02 4.900951e+05
8.120000e+02 5.087107e+05
8.130000e+02 5.279794e+05
8.140000e+02 5.479248e+05
8.150000e+02 5.685697e+05
8.160000e+02 5.899309e+05
8.170000e+02 6.120375e+05
8.180000e+02 6.349095e+05
8.190000e+02 6.585730e+05
8.200000e+02 6.830529e+05
8.210000e+02 7.083746e+05
8.220000e+02 7.345644e+05
8.230000e+02 7.616509e+05
8.240000e+02 7.896596e+05
8.250000e+02 8.185930e+05
8.260000e+02 8.485352e+05
8.270000e+02 8.794909e+05
8.280000e+02 9.114906e+05
8.290000e+02 9.445665e+05
8.300000e+02 9.787516e+05
8.310000e+02 1.014080e+06
8.320000e+02 1.050585e+06
8.330000e+02 1.088285e+06
8.340000e+02 1.127255e+06
8.350000e+02 1.167521e+06
8.360000e+02 1.209114e+06
8.370000e+02 1.252062e+06
8.380000e+02 1.296427e+06
8.390000e+02 1.342244e+06
8.400000e+02 1.389546e+06
8.410000e+02 1.438399e+06
8.420000e+02 1.488915e+06
8.430000e+02 1.540901e+06
8.440000e+02 1.594649e+06
8.450000e+02 1.650127e+06
8.460000e+02 1.707386e+06
8.470000e+02 1.766476e+06
8.480000e+02 1.827453e+06
8.490000e+02 1.890370e+06
8.500000e+02 1.955281e+06
8.510000e+02 2.022251e+06
8.520000e+02 2.091338e+06
8.530000e+02 2.162600e+06
8.540000e+02 2.236096e+06
8.550000e+02 2.311896e+06
8.560000e+02 2.390062e+06
8.570000e+02 2.470609e+06
8.580000e+02 2.553714e+06
8.590000e+02 2.639392e+06
8.600000e+02 2.727718e+06
8.610000e+02 2.818759e+06
8.620000e+02 2.912605e+06
8.630000e+02 3.009218e+06
8.640000e+02 3.108893e+06
8.650000e+02 3.211604e+06
8.660000e+02 3.317439e+06
8.670000e+02 3.426485e+06
8.680000e+02 3.538829e+06
8.690000e+02 3.654562e+06
8.700000e+02 3.773796e+06
8.710000e+02 3.896566e+06
8.720000e+02 4.022966e+06
8.730000e+02 4.153202e+06
8.740000e+02 4.287315e+06
8.750000e+02 4.425409e+06
8.760000e+02 4.567592e+06
8.770000e+02 4.713972e+06
8.780000e+02 4.864666e+06
8.790000e+02 5.019783e+06
8.800000e+02 5.179323e+06
8.810000e+02 5.343646e+06
8.820000e+02 5.512760e+06
8.830000e+02 5.686787e+06
8.840000e+02 5.865860e+06
8.850000e+02 6.050113e+06
8.860000e+02 6.239689e+06
8.870000e+02 6.434687e+06
8.880000e+02 6.635296e+06
8.890000e+02 6.841644e+06
8.900000e+02 7.053882e+06
8.910000e+02 7.272159e+06
8.920000e+02 7.519301e+06
8.930000e+02 7.727464e+06
8.940000e+02 7.964813e+06
8.950000e+02 8.208816e+06
8.960000e+02 8.459690e+06
8.970000e+02 8.717608e+06
8.980000e+02 8.982734e+06
8.990000e+02 9.254901e+06
9.000000e+02 9.534985e+06
9.010000e+02 9.822834e+06
9.020000e+02 1.011840e+07
9.030000e+02 1.042236e+07
9.040000e+02 1.073501e+07
9.050000e+02 1.105560e+07
9.060000e+02 1.138568e+07
9.070000e+02 1.172458e+07
9.080000e+02 1.207231e+07
9.090000e+02 1.242969e+07
9.100000e+02 1.279676e+07
9.110000e+02 1.317374e+07
9.120000e+02 1.356100e+07
9.130000e+02 1.392484e+07
9.140000e+02 1.443345e+07
9.150000e+02 3.511624e+07
9.160000e+02 1.706565e+08
9.170000e+02 2.160920e+08
9.180000e+02 1.586509e+08
9.190000e+02 3.909963e+08
9.200000e+02 5.198891e+08
9.210000e+02 1.781720e+07
9.220000e+02 6.016897e+08
9.230000e+02 2.097882e+08
9.240000e+02 3.796889e+08
9.250000e+02 6.530629e+08
9.260000e+02 3.326881e+08
9.270000e+02 6.625791e+08
9.280000e+02 7.353730e+08
9.290000e+02 4.742068e+08
9.300000e+02 6.885468e+08
9.310000e+02 4.047208e+08
9.320000e+02 7.907847e+08
9.330000e+02 8.203641e+08
9.340000e+02 8.487414e+08
9.350000e+02 2.733223e+08
9.360000e+02 8.697480e+08
9.370000e+02 1.733367e+08
9.380000e+02 3.098144e+08
9.390000e+02 9.069995e+08
9.400000e+02 9.553654e+08
9.410000e+02 6.712159e+08
9.420000e+02 9.997303e+08
9.430000e+02 1.019669e+09
9.440000e+02 4.934817e+08
9.450000e+02 1.057002e+09
9.460000e+02 1.081335e+09
9.470000e+02 6.558843e+08
9.480000e+02 1.093805e+09
9.490000e+02 1.010641e+09
9.500000e+02 2.141038e+08
9.510000e+02 1.007313e+09
9.520000e+02 1.211033e+09
9.530000e+02 1.236229e+09
9.540000e+02 8.897836e+08
9.550000e+02 1.295549e+09
9.560000e+02 1.314039e+09
9.570000e+02 1.100719e+09
9.580000e+02 1.351898e+09
9.590000e+02 1.407897e+09
9.600000e+02 2.906531e+08
9.610000e+02 1.468744e+09
9.620000e+02 1.472074e+09
9.630000e+02 1.525521e+09
9.640000e+02 5.871898e+07
9.650000e+02 1.314390e+09
9.660000e+02 1.613460e+09
9.670000e+02 1.638070e+09
9.680000e+02 1.630735e+09
9.690000e+02 1.680513e+09
9.700000e+02 1.716565e+09
9.710000e+02 1.695838e+09
9.720000e+02 1.243233e+09
9.730000e+02 1.166313e+09
9.740000e+02 1.772777e+09
9.750000e+02 1.882341e+09
9.760000e+02 1.937108e+09
9.770000e+02 1.975597e+09
9.780000e+02 2.012579e+09
9.790000e+02 2.057261e+09
9.800000e+02 2.097107e+09
9.810000e+02 2.137379e+09
9.820000e+02 2.122987e+09
9.830000e+02 2.214906e+09
9.840000e+02 4.208927e+08
9.850000e+02 2.299708e+09
9.860000e+02 2.341224e+09
9.870000e+02 2.377608e+09
9.880000e+02 2.380819e+09
9.890000e+02 1.075794e+09
9.900000e+02 1.310010e+08
9.910000e+02 2.520744e+09
9.920000e+02 2.414975e+09
9.930000e+02 2.437304e+09
9.940000e+02 2.800950e+08
9.950000e+02 2.822873e+08
9.960000e+02 3.456919e+08
9.970000e+02 3.958108e+08
9.980000e+02 2.881403e+09
9.990000e+02 2.853530e+09
1.000000e+03 3.007153e+09
1.001000e+03 3.061171e+09
1.002000e+03 3.110498e+09
1.003000e+03 2.231022e+09
1.004000e+03 3.225203e+09
1.005000e+03 2.537204e+09
1.006000e+03 3.338172e+09
1.007000e+03 3.396363e+09
1.008000e+03 3.449539e+09
1.009000e+03 3.088502e+09
1.010000e+03 3.572713e+09
1.011000e+03 3.633502e+09
1.012000e+03 3.690522e+09
1.013000e+03 3.756008e+09
1.014000e+03 3.819590e+09
1.015000e+03 3.682429e+09
1.016000e+03 3.929243e+09
1.017000e+03 4.003811e+09
1.018000e+03 4.063817e+09
1.019000e+03 4.121194e+09
1.020000e+03 4.168507e+09
1.021000e+03 3.525588e+09
1.022000e+03 4.121369e+09
1.023000e+03 4.169431e+09
1.024000e+03 3.782682e+09
1.025000e+03 2.110137e+09
1.026000e+03 6.603729e+08
1.027000e+03 3.475336e+09
1.028000e+03 1.232072e+09
1.029000e+03 4.727867e+09
1.030000e+03 4.725569e+09
1.031000e+03 5.052617e+09
1.032000e+03 5.012570e+09
1.033000e+03 2.923976e+09
1.034000e+03 5.375875e+09
1.035000e+03 9.789148e+08
1.036000e+03 5.466597e+09
1.037000e+03 3.536169e+08
1.038000e+03 5.756045e+09
1.039000e+03 5.732126e+09
1.040000e+03 5.962792e+09
1.041000e+03 6.040503e+09
1.042000e+03 5.482076e+09
1.043000e+03 6.185208e+09
1.044000e+03 6.289378e+09
1.045000e+03 6.453234e+09
1.046000e+03 6.570611e+09
1.047000e+03 6.681090e+09
1.048000e+03 6.593950e+09
1.049000e+03 6.832260e+09
1.050000e+03 7.018278e+09
1.051000e+03 7.131049e+09
1.052000e+03 7.244288e+09
1.053000e+03 6.845884e+09
1.054000e+03 7.474240e+09
1.055000e+03 7.593072e+09
1.056000e+03 7.716301e+09
1.057000e+03 7.825991e+09
1.058000e+03 7.955183e+09
1.059000e+03 8.084667e+09
1.060000e+03 8.212471e+09
1.061000e+03 8.341382e+09
1.062000e+03 8.470506e+09
1.063000e+03 5.993486e+09
1.064000e+03 1.327868e+09
1.065000e+03 9.206370e+09
1.066000e+03 9.211230e+09
1.067000e+03 8.044732e+09
1.068000e+03 9.647751e+09
1.069000e+03 9.796388e+09
1.070000e+03 9.321437e+09
1.071000e+03 1.012335e+10
1.072000e+03 1.027177e+10
1.073000e+03 1.043401e+10
1.074000e+03 1.058734e+10
1.075000e+03 1.072288e+10
1.076000e+03 1.091364e+10
1.077000e+03 1.104833e+10
1.078000e+03 1.124149e+10
1.079000e+03 1.130063e+10
1.080000e+03 1.153315e+10
1.081000e+03 1.175887e+10
1.082000e+03 1.192112e+10
1.083000e+03 1.210658e+10
1.084000e+03 7.222640e+09
1.085000e+03 1.000689e+10
1.086000e+03 1.266019e+10
1.087000e+03 1.283177e+10
1.088000e+03 1.294572e+10
1.089000e+03 1.320460e+10
1.090000e+03 1.337475e+10
1.091000e+03 1.361489e+10
1.092000e+03 1.380959e+10
1.093000e+03 1.398816e+10
1.094000e+03 1.421920e+10
1.095000e+03 1.434437e+10
1.096000e+03 1.462454e+10
1.097000e+03 1.463249e+10
1.098000e+03 1.452573e+10
1.099000e+03 1.522632e+10
1.100000e+03 1.510773e+10
1.101000e+03 1.428203e+10
1.102000e+03 3.138152e+10
1.103000e+03 9.017219e+10
1.104000e+03 3.542293e+10
1.105000e+03 1.526895e+10
1.106000e+03 1.846059e+11
1.107000e+03 1.792950e+11
1.108000e+03 1.891072e+11
1.109000e+03 9.239315e+10
1.110000e+03 1.877751e+10
1.111000e+03 3.348608e+10
1.112000e+03 1.724992e+11
1.113000e+03 1.993599e+11
1.114000e+03 1.126082e+10
1.115000e+03 1.940722e+11
1.116000e+03 2.022464e+11
1.117000e+03 1.149280e+10
1.118000e+03 1.750006e+11
1.119000e+03 2.075983e+11
1.120000e+03 2.114029e+11
1.121000e+03 1.169667e+11
1.122000e+03 2.056569e+09
1.123000e+03 2.987279e+10
1.124000e+03 2.170206e+11
1.125000e+03 6.415154e+10
1.126000e+03 2.234915e+11
1.127000e+03 2.122168e+11
1.128000e+03 1.016071e+11
1.129000e+03 2.270425e+11
1.130000e+03 1.245220e+11
1.131000e+03 2.376953e+11
1.132000e+03 5.899092e+09
1.133000e+03 2.252469e+11
1.134000e+03 2.327253e+11
1.135000e+03 3.607314e+09
1.136000e+03 2.360815e+11
1.137000e+03 2.521525e+11
1.138000e+03 2.578125e+11
1.139000e+03 2.537914e+11
1.140000e+03 4.476797e+09
1.141000e+03 2.658851e+11
1.142000e+03 2.178616e+11
1.143000e+03 2.687732e+11
1.144000e+03 2.725029e+11
1.145000e+03 2.011494e+11
1.146000e+03 2.747744e+11
1.147000e+03 2.731705e+11
1.148000e+03 2.775333e+11
1.149000e+03 2.856708e+11
1.150000e+03 2.528745e+11
1.151000e+03 2.875648e+11
1.152000e+03 2.843407e+11
1.153000e+03 5.283042e+10
1.154000e+03 8.315601e+09
1.155000e+03 2.361544e+11
1.156000e+03 1.028648e+11
1.157000e+03 3.068397e+11
1.158000e+03 7.602513e+09
1.159000e+03 2.643121e+11
1.160000e+03 3.096261e+11
1.161000e+03 3.213552e+11
1.162000e+03 2.492845e+10
1.163000e+03 2.902219e+11
1.164000e+03 1.484385e+10
1.165000e+03 3.323338e+11
1.166000e+03 3.192848e+11
1.167000e+03 2.628014e+11
1.168000e+03 3.408423e+11
1.169000e+03 3.306310e+11
1.170000e+03 3.473690e+11
1.171000e+03 3.501556e+11
1.172000e+03 2.974995e+11
1.173000e+03 3.528559e+11
1.174000e+03 3.355526e+11
1.175000e+03 1.411983e+10
1.176000e+03 8.954380e+09
1.177000e+03 3.479587e+11
1.178000e+03 2.909067e+11
1.179000e+03 3.660316e+11
1.180000e+03 2.463250e+11
1.181000e+03 3.467115e+11
1.182000e+03 3.722858e+11
1.183000e+03 3.723151e+11
1.184000e+03 3.741474e+11
1.185000e+03 3.353995e+11
1.186000e+03 3.739555e+11
1.187000e+03 3.738695e+11
1.188000e+03 3.299541e+11
1.189000e+03 8.925757e+09
1.190000e+03 8.249496e+10
1.191000e+03 3.517629e+11
1.192000e+03 3.538123e+11
1.193000e+03 6.508642e+09
1.194000e+03 1.030586e+10
1.195000e+03 1.234070e+11
1.196000e+03 3.353515e+11
1.197000e+03 3.381846e+11
1.198000e+03 3.455639e+11
1.199000e+03 3.305582e+11
1.200000e+03 2.862921e+11
1.201000e+03 2.979994e+11
1.202000e+03 2.903381e+11
1.203000e+03 2.823847e+11
1.204000e+03 2.520679e+11
1.205000e+03 2.328370e+11
1.206000e+03 1.598748e+11
1.207000e+03 1.180186e+11
1.208000e+03 1.505545e+11
1.209000e+03 1.122890e+11
1.210000e+03 1.657645e+10
1.211000e+03 6.879669e+10
1.212000e+03 4.642044e+10
1.213000e+03 2.884053e+10
1.214000e+03 1.670822e+10
1.215000e+03 1.009502e+10
1.216000e+03 8.964719e+09
1.217000e+03 1.441947e+10
1.218000e+03 2.567080e+10
1.219000e+03 4.368919e+10
1.220000e+03 6.810009e+10
1.221000e+03 9.784406e+10
1.222000e+03 1.317335e+11
1.223000e+03 1.686339e+11
1.224000e+03 2.074886e+11
1.225000e+03 2.475049e+11
1.226000e+03 2.837124e+11
1.227000e+03 3.265485e+11
1.228000e+03 3.700352e+11
1.229000e+03 4.065595e+11
1.230000e+03 4.443652e+11
1.231000e+03 4.861763e+11
1.232000e+03 5.235764e+11
1.233000e+03 5.592899e+11
1.234000e+03 3.550906e+11
1.235000e+03 6.230215e+11
1.236000e+03 6.581919e+11
1.237000e+03 6.854609e+11
1.238000e+03 7.171961e+11
1.239000e+03 7.464018e+11
1.240000e+03 7.083728e+11
1.241000e+03 1.177333e+12
1.242000e+03 6.883404e+11
1.243000e+03 9.948644e+11
1.244000e+03 4.328912e+11
1.245000e+03 6.473387e+11
1.246000e+03 1.681363e+12
1.247000e+03 1.881160e+12
1.248000e+03 4.770575e+11
1.249000e+03 5.985846e+11
1.250000e+03 2.154318e+12
1.251000e+03 2.164665e+12
1.252000e+03 2.110500e+12
1.253000e+03 2.441650e+12
1.254000e+03 2.486741e+12
1.255000e+03 2.503894e+12
1.256000e+03 2.561529e+12
1.257000e+03 2.771601e+12
1.258000e+03 2.761226e+12
1.259000e+03 2.578090e+12
1.260000e+03 2.127035e+12
1.261000e+03 1.956730e+10
1.262000e+03 2.890030e+11
1.263000e+03 3.091405e+12
1.264000e+03 2.657935e+12
1.265000e+03 1.725471e+10
1.266000e+03 3.230027e+12
1.267000e+03 3.538037e+12
