# wavelength_A flux
5.000000e+02 2.772971e-26
5.010000e+02 3.400693e-26
5.020000e+02 4.167113e-26
5.030000e+02 5.102125e-26
5.040000e+02 6.241948e-26
5.050000e+02 1.123105e-25
5.060000e+02 1.368289e-25
5.070000e+02 1.665721e-25
5.080000e+02 2.026265e-25
5.090000e+02 2.462982e-25
5.100000e+02 2.991569e-25
5.110000e+02 3.630878e-25
5.120000e+02 4.403530e-25
5.130000e+02 5.336649e-25
5.140000e+02 6.462739e-25
5.150000e+02 7.820469e-25
5.160000e+02 9.457158e-25
5.170000e+02 1.142611e-24
5.180000e+02 1.379902e-24
5.190000e+02 1.665033e-24
5.200000e+02 2.007640e-24
5.210000e+02 2.418959e-24
5.220000e+02 2.907607e-24
5.230000e+02 3.504293e-24
5.240000e+02 4.213955e-24
5.250000e+02 5.063447e-24
5.260000e+02 6.079897e-24
5.270000e+02 7.295376e-24
5.280000e+02 8.747885e-24
5.290000e+02 1.047318e-23
5.300000e+02 1.255263e-23
5.310000e+02 1.502144e-23
5.320000e+02 1.796384e-23
5.330000e+02 2.146833e-23
5.340000e+02 2.563948e-23
5.350000e+02 3.060052e-23
5.360000e+02 3.649405e-23
5.370000e+02 3.606989e-23
5.380000e+02 5.181326e-23
5.390000e+02 6.169292e-23
5.400000e+02 7.339680e-23
5.410000e+02 8.720529e-23
5.420000e+02 1.036813e-22
5.430000e+02 1.231206e-22
5.440000e+02 1.461064e-22
5.450000e+02 1.732759e-22
5.460000e+02 2.052266e-22
5.470000e+02 2.432613e-22
5.480000e+02 2.879662e-22
5.490000e+02 3.406802e-22
5.500000e+02 4.028000e-22
5.510000e+02 4.759607e-22
5.520000e+02 5.620735e-22
5.530000e+02 6.633715e-22
5.540000e+02 7.824637e-22
5.550000e+02 9.223919e-22
5.560000e+02 1.086707e-21
5.570000e+02 1.279549e-21
5.580000e+02 1.505739e-21
5.590000e+02 1.770893e-21
5.600000e+02 2.081545e-21
5.610000e+02 2.445299e-21
5.620000e+02 2.870990e-21
5.630000e+02 3.368887e-21
5.640000e+02 3.950913e-21
5.650000e+02 4.630903e-21
5.660000e+02 5.424919e-21
5.670000e+02 6.351562e-21
5.680000e+02 7.432400e-21
5.690000e+02 8.692408e-21
5.700000e+02 1.016049e-20
5.710000e+02 1.187010e-20
5.720000e+02 1.385992e-20
5.730000e+02 1.617460e-20
5.740000e+02 1.886579e-20
5.750000e+02 2.199833e-20
5.760000e+02 2.561249e-20
5.770000e+02 2.984850e-20
5.780000e+02 3.474141e-20
5.790000e+02 4.041531e-20
5.800000e+02 4.699137e-20
5.810000e+02 5.460880e-20
5.820000e+02 6.342672e-20
5.830000e+02 7.362018e-20
5.840000e+02 8.505909e-20
5.850000e+02 9.898864e-20
5.860000e+02 1.148570e-19
5.870000e+02 1.330889e-19
5.880000e+02 1.541265e-19
5.890000e+02 1.783946e-19
5.900000e+02 2.063883e-19
5.910000e+02 2.386530e-19
5.920000e+02 2.758269e-19
5.930000e+02 3.186366e-19
5.940000e+02 3.679129e-19
5.950000e+02 4.246059e-19
5.960000e+02 4.898011e-19
5.970000e+02 5.647382e-19
5.980000e+02 6.508326e-19
5.990000e+02 7.496995e-19
6.000000e+02 8.631810e-19
6.010000e+02 9.933714e-19
6.020000e+02 1.142682e-18
6.030000e+02 1.313822e-18
6.040000e+02 1.509902e-18
6.050000e+02 1.734451e-18
6.060000e+02 1.991484e-18
6.070000e+02 2.285586e-18
6.080000e+02 2.621933e-18
6.090000e+02 3.006431e-18
6.100000e+02 3.445777e-18
6.110000e+02 3.947577e-18
6.120000e+02 4.520457e-18
6.130000e+02 5.174200e-18
6.140000e+02 5.919898e-18
6.150000e+02 6.770117e-18
6.160000e+02 7.739092e-18
6.170000e+02 8.842943e-18
6.180000e+02 1.009990e-17
6.190000e+02 1.153061e-17
6.200000e+02 1.315841e-17
6.210000e+02 1.500963e-17
6.220000e+02 1.711410e-17
6.230000e+02 1.950546e-17
6.240000e+02 2.222170e-17
6.250000e+02 2.530568e-17
6.260000e+02 2.880577e-17
6.270000e+02 3.277647e-17
6.280000e+02 3.727928e-17
6.290000e+02 4.238340e-17
6.300000e+02 4.816681e-17
6.310000e+02 5.421586e-17
6.320000e+02 6.213376e-17
6.330000e+02 7.052249e-17
6.340000e+02 8.002266e-17
6.350000e+02 9.073905e-17
6.360000e+02 1.028985e-16
6.370000e+02 1.166145e-16
6.380000e+02 1.321069e-16
6.390000e+02 1.495993e-16
6.400000e+02 1.693423e-16
6.410000e+02 1.916169e-16
6.420000e+02 2.167384e-16
6.430000e+02 2.450599e-16
6.440000e+02 2.769768e-16
6.450000e+02 3.129322e-16
6.460000e+02 3.534221e-16
6.470000e+02 3.990013e-16
6.480000e+02 4.502906e-16
6.490000e+02 5.079842e-16
6.500000e+02 5.728543e-16
6.510000e+02 6.457785e-16
6.520000e+02 7.277148e-16
6.530000e+02 8.197480e-16
6.540000e+02 9.230834e-16
6.550000e+02 1.039073e-15
6.560000e+02 1.169215e-15
6.570000e+02 1.315130e-15
6.580000e+02 1.478851e-15
6.590000e+02 1.662294e-15
6.600000e+02 1.867830e-15
6.610000e+02 2.098044e-15
6.620000e+02 2.355805e-15
6.630000e+02 2.644311e-15
6.640000e+02 2.967118e-15
6.650000e+02 3.328178e-15
6.660000e+02 3.731898e-15
6.670000e+02 4.183154e-15
6.680000e+02 4.687375e-15
6.690000e+02 5.250590e-15
6.700000e+02 5.879488e-15
6.710000e+02 6.581496e-15
6.720000e+02 7.364854e-15
6.730000e+02 8.238699e-15
6.740000e+02 9.213163e-15
6.750000e+02 1.029948e-14
6.760000e+02 1.151008e-14
6.770000e+02 1.285876e-14
6.780000e+02 1.436078e-14
6.790000e+02 1.603303e-14
6.800000e+02 1.789421e-14
6.810000e+02 1.996501e-14
6.820000e+02 2.226829e-14
6.830000e+02 2.482935e-14
6.840000e+02 2.767615e-14
6.850000e+02 3.083955e-14
6.860000e+02 3.435370e-14
6.870000e+02 3.825626e-14
6.880000e+02 4.258882e-14
6.890000e+02 4.739727e-14
6.900000e+02 5.273226e-14
6.910000e+02 5.864961e-14
6.920000e+02 6.521092e-14
6.930000e+02 7.248405e-14
6.940000e+02 8.054379e-14
6.950000e+02 8.947254e-14
6.960000e+02 9.936103e-14
6.970000e+02 1.103044e-13
6.980000e+02 1.224269e-13
6.990000e+02 1.358352e-13
7.000000e+02 1.506671e-13
7.010000e+02 1.670691e-13
7.020000e+02 1.852020e-13
7.030000e+02 2.052426e-13
7.040000e+02 2.273853e-13
7.050000e+02 2.518435e-13
7.060000e+02 2.788516e-13
7.070000e+02 3.086669e-13
7.080000e+02 3.415719e-13
7.090000e+02 3.778760e-13
7.100000e+02 4.179201e-13
7.110000e+02 4.620760e-13
7.120000e+02 5.107527e-13
7.130000e+02 5.643981e-13
7.140000e+02 6.235030e-13
7.150000e+02 6.886050e-13
7.160000e+02 7.602928e-13
7.170000e+02 8.392066e-13
7.180000e+02 9.260390e-13
7.190000e+02 1.021628e-12
7.200000e+02 1.126744e-12
7.210000e+02 1.242337e-12
7.220000e+02 1.369415e-12
7.230000e+02 1.509085e-12
7.240000e+02 1.662552e-12
7.250000e+02 1.831134e-12
7.260000e+02 2.016272e-12
7.270000e+02 2.219536e-12
7.280000e+02 2.442645e-12
7.290000e+02 2.687470e-12
7.300000e+02 2.956057e-12
7.310000e+02 3.250635e-12
7.320000e+02 3.573636e-12
7.330000e+02 3.927711e-12
7.340000e+02 4.315750e-12
7.350000e+02 4.740902e-12
7.360000e+02 5.206554e-12
7.370000e+02 5.716583e-12
7.380000e+02 6.274920e-12
7.390000e+02 6.886041e-12
7.400000e+02 7.554761e-12
7.410000e+02 8.286355e-12
7.420000e+02 9.086500e-12
7.430000e+02 9.961436e-12
7.440000e+02 1.091789e-11
7.450000e+02 1.196322e-11
7.460000e+02 1.310540e-11
7.470000e+02 1.435310e-11
7.480000e+02 1.571573e-11
7.490000e+02 1.720354e-11
7.500000e+02 1.882761e-11
7.510000e+02 2.060003e-11
7.520000e+02 2.253386e-11
7.530000e+02 2.464331e-11
7.540000e+02 2.694378e-11
7.550000e+02 2.945199e-11
7.560000e+02 3.218605e-11
7.570000e+02 3.516538e-11
7.580000e+02 3.841192e-11
7.590000e+02 4.194786e-11
7.600000e+02 4.579907e-11
7.610000e+02 4.999197e-11
7.620000e+02 5.455610e-11
7.630000e+02 5.952314e-11
7.640000e+02 6.492745e-11
7.650000e+02 7.080617e-11
7.660000e+02 7.719959e-11
7.670000e+02 8.415110e-11
7.680000e+02 9.170698e-11
7.690000e+02 9.979197e-11
7.700000e+02 1.088434e-10
7.710000e+02 1.185385e-10
7.720000e+02 1.290672e-10
7.730000e+02 1.404999e-10
7.740000e+02 1.529113e-10
7.750000e+02 1.663824e-10
7.760000e+02 1.809939e-10
7.770000e+02 1.968598e-10
7.780000e+02 2.140621e-10
7.790000e+02 2.327169e-10
7.800000e+02 2.529426e-10
7.810000e+02 2.748669e-10
7.820000e+02 2.986272e-10
7.830000e+02 3.243721e-10
7.840000e+02 3.522612e-10
7.850000e+02 3.824669e-10
7.860000e+02 4.151748e-10
7.870000e+02 4.505956e-10
7.880000e+02 4.889238e-10
7.890000e+02 5.304011e-10
7.900000e+02 5.752771e-10
7.910000e+02 6.238203e-10
7.920000e+02 6.763196e-10
7.930000e+02 7.330859e-10
7.940000e+02 7.944533e-10
7.950000e+02 8.607817e-10
7.960000e+02 9.324574e-10
7.970000e+02 1.009896e-09
7.980000e+02 1.093545e-09
7.990000e+02 1.183883e-09
8.000000e+02 1.281426e-09
8.010000e+02 1.386728e-09
8.020000e+02 1.500384e-09
8.030000e+02 1.623033e-09
8.040000e+02 1.755360e-09
8.050000e+02 1.898101e-09
8.060000e+02 2.052045e-09
8.070000e+02 2.218040e-09
8.080000e+02 2.396995e-09
8.090000e+02 2.589885e-09
8.100000e+02 2.797754e-09
8.110000e+02 3.021724e-09
8.120000e+02 3.262995e-09
8.130000e+02 3.522855e-09
8.140000e+02 3.802683e-09
8.150000e+02 4.103955e-09
8.160000e+02 4.428260e-09
8.170000e+02 4.777287e-09
8.180000e+02 5.152853e-09
8.190000e+02 5.556902e-09
8.200000e+02 5.991512e-09
8.210000e+02 6.458910e-09
8.220000e+02 6.961478e-09
8.230000e+02 7.501763e-09
8.240000e+02 8.082489e-09
8.250000e+02 8.706574e-09
8.260000e+02 9.377128e-09
8.270000e+02 1.009748e-08
8.280000e+02 1.087120e-08
8.290000e+02 1.170209e-08
8.300000e+02 1.259421e-08
8.310000e+02 1.355190e-08
8.320000e+02 1.457981e-08
8.330000e+02 1.568288e-08
8.340000e+02 1.686641e-08
8.350000e+02 1.812021e-08
8.360000e+02 1.949749e-08
8.370000e+02 2.095810e-08
8.380000e+02 2.252383e-08
8.390000e+02 2.420231e-08
8.400000e+02 2.600134e-08
8.410000e+02 2.792924e-08
8.420000e+02 2.999391e-08
8.430000e+02 3.220779e-08
8.440000e+02 3.457800e-08
8.450000e+02 3.711627e-08
8.460000e+02 3.983408e-08
8.470000e+02 4.274361e-08
8.480000e+02 4.585792e-08
8.490000e+02 4.919083e-08
8.500000e+02 5.275704e-08
8.510000e+02 5.657241e-08
8.520000e+02 6.065338e-08
8.530000e+02 6.501819e-08
8.540000e+02 6.968627e-08
8.550000e+02 7.467620e-08
8.560000e+02 8.001027e-08
8.570000e+02 8.571126e-08
8.580000e+02 9.165464e-08
8.590000e+02 9.831260e-08
8.600000e+02 1.052662e-07
8.610000e+02 1.126757e-07
8.620000e+02 1.206250e-07
8.630000e+02 1.290941e-07
8.640000e+02 1.381354e-07
8.650000e+02 1.477868e-07
8.660000e+02 1.580876e-07
8.670000e+02 1.690791e-07
8.680000e+02 1.808063e-07
8.690000e+02 1.933163e-07
8.700000e+02 2.066575e-07
8.710000e+02 2.208890e-07
8.720000e+02 2.360613e-07
8.730000e+02 2.522369e-07
8.740000e+02 2.694790e-07
8.750000e+02 2.878551e-07
8.760000e+02 3.074370e-07
8.770000e+02 3.283003e-07
8.780000e+02 3.505244e-07
8.790000e+02 3.741999e-07
8.800000e+02 3.994076e-07
8.810000e+02 4.262570e-07
8.820000e+02 4.548393e-07
8.830000e+02 4.852639e-07
8.840000e+02 5.176456e-07
8.850000e+02 5.521082e-07
8.860000e+02 5.887757e-07
8.870000e+02 6.277855e-07
8.880000e+02 6.692802e-07
8.890000e+02 7.134126e-07
8.900000e+02 7.603451e-07
8.910000e+02 8.102450e-07
8.920000e+02 8.628634e-07
8.930000e+02 9.196822e-07
8.940000e+02 9.796104e-07
8.950000e+02 1.043295e-06
8.960000e+02 1.110959e-06
8.970000e+02 1.182841e-06
8.980000e+02 1.259193e-06
8.990000e+02 1.340285e-06
9.000000e+02 1.426394e-06
9.010000e+02 1.517822e-06
9.020000e+02 1.614876e-06
9.030000e+02 1.717830e-06
9.040000e+02 1.827234e-06
9.050000e+02 1.943268e-06
9.060000e+02 2.066379e-06
9.070000e+02 2.196965e-06
9.080000e+02 2.335511e-06
9.090000e+02 2.482435e-06
9.100000e+02 2.638238e-06
9.110000e+02 2.803456e-06
9.120000e+02 2.978931e-06
9.130000e+02 3.004847e-06
9.140000e+02 6.176531e-06
9.150000e+02 1.991260e-01
9.160000e+02 6.302633e-01
9.170000e+02 1.812541e-02
9.180000e+02 5.390300e-01
9.190000e+02 1.257240e+00
9.200000e+02 1.518368e+00
9.210000e+02 4.890113e-06
9.220000e+02 8.685466e-01
9.230000e+02 3.266034e-02
9.240000e+02 3.262818e-02
9.250000e+02 1.982481e-01
9.260000e+02 1.103113e+00
9.270000e+02 1.889048e-02
9.280000e+02 2.140756e+00
9.290000e+02 2.134259e+00
9.300000e+02 2.249062e+00
9.310000e+02 2.566427e-02
9.320000e+02 2.573187e+00
9.330000e+02 7.988639e-01
9.340000e+02 2.989745e-01
9.350000e+02 1.805903e-03
9.360000e+02 3.824571e-02
9.370000e+02 6.255237e-04
9.380000e+02 1.273460e-01
9.390000e+02 8.896464e-02
9.400000e+02 2.946078e+00
9.410000e+02 1.036570e-01
9.420000e+02 3.723609e+00
9.430000e+02 1.320736e-01
9.440000e+02 3.526645e+00
9.450000e+02 4.113195e+00
9.460000e+02 1.849851e+00
9.470000e+02 4.925370e-03
9.480000e+02 3.708241e+00
9.490000e+02 4.094835e+00
9.500000e+02 7.194400e-03
9.510000e+02 1.737792e+00
9.520000e+02 2.456566e+00
9.530000e+02 2.084154e-02
9.540000e+02 5.134197e-03
9.550000e+02 3.879485e-01
9.560000e+02 5.730669e+00
9.570000e+02 8.552408e-02
9.580000e+02 1.423955e-03
9.590000e+02 6.186502e+00
9.600000e+02 2.245545e-03
9.610000e+02 2.200689e+00
9.620000e+02 8.722548e-01
9.630000e+02 3.151445e-01
9.640000e+02 6.860495e-04
9.650000e+02 1.281357e-02
9.660000e+02 4.023371e-01
9.670000e+02 6.503439e-02
9.680000e+02 3.380775e-02
9.690000e+02 2.040297e+00
9.700000e+02 1.708278e+00
9.710000e+02 7.944670e-02
9.720000e+02 7.607841e-02
9.730000e+02 5.165788e+00
9.740000e+02 2.505191e+00
9.750000e+02 6.962423e-01
9.760000e+02 9.144212e+00
9.770000e+02 6.457441e+00
9.780000e+02 2.537359e+00
9.790000e+02 1.523484e+01
9.800000e+02 1.565813e+01
9.810000e+02 2.430573e+00
9.820000e+02 3.803711e-01
9.830000e+02 1.547525e+01
9.840000e+02 3.828690e-01
9.850000e+02 1.188263e+00
9.860000e+02 1.467019e+00
9.870000e+02 1.835137e+01
9.880000e+02 2.535057e-02
9.890000e+02 6.972492e+00
9.900000e+02 1.581181e-01
9.910000e+02 2.243047e-01
9.920000e+02 5.583756e-03
9.930000e+02 2.112456e+01
9.940000e+02 1.467228e-03
9.950000e+02 8.976870e-01
9.960000e+02 8.619499e-02
9.970000e+02 3.068364e-01
9.980000e+02 1.506780e+01
9.990000e+02 3.499243e-01
1.000000e+03 3.135861e+01
1.001000e+03 3.662506e+01
1.002000e+03 3.500539e+01
1.003000e+03 6.658039e-01
1.004000e+03 4.227066e-02
1.005000e+03 1.916988e+00
1.006000e+03 3.578297e+01
1.007000e+03 4.309488e+01
1.008000e+03 2.837856e+01
1.009000e+03 1.007691e+00
1.010000e+03 3.089295e+01
1.011000e+03 4.252096e+01
1.012000e+03 3.438249e+01
1.013000e+03 3.160559e+01
1.014000e+03 1.346397e-02
1.015000e+03 5.269241e-02
1.016000e+03 1.775333e+00
1.017000e+03 1.231384e-02
1.018000e+03 9.978256e-01
1.019000e+03 5.074310e-02
1.020000e+03 6.354276e+01
1.021000e+03 7.760429e-01
1.022000e+03 1.686188e+00
1.023000e+03 1.040649e-01
1.024000e+03 5.219742e+01
1.025000e+03 1.319921e-02
1.026000e+03 4.185666e-01
1.027000e+03 1.173773e+01
1.028000e+03 4.039001e-02
1.029000e+03 2.348709e-02
1.030000e+03 1.195821e+01
1.031000e+03 9.912422e+00
1.032000e+03 5.528483e+01
1.033000e+03 4.878159e-01
1.034000e+03 1.793543e+01
1.035000e+03 2.139282e-02
1.036000e+03 4.117584e-02
1.037000e+03 6.837854e+01
1.038000e+03 1.293485e+02
1.039000e+03 7.723674e+01
1.040000e+03 8.956351e+01
1.041000e+03 1.516052e+02
1.042000e+03 1.354109e+02
1.043000e+03 1.044874e+02
1.044000e+03 1.783249e+02
1.045000e+03 1.048457e+02
1.046000e+03 1.133007e+02
1.047000e+03 2.966751e+01
1.048000e+03 7.676315e-01
1.049000e+03 4.241459e+01
1.050000e+03 1.601416e+01
1.051000e+03 7.951202e+00
1.052000e+03 1.659743e+02
1.053000e+03 2.185744e+02
1.054000e+03 6.607056e-02
1.055000e+03 2.444545e+02
1.056000e+03 2.498004e+02
1.057000e+03 7.258727e+01
1.058000e+03 1.036803e+01
1.059000e+03 4.535645e+00
1.060000e+03 1.127869e+00
1.061000e+03 1.061217e+02
1.062000e+03 4.710146e+00
1.063000e+03 1.625166e+01
1.064000e+03 4.019165e-02
1.065000e+03 1.113281e-01
1.066000e+03 1.312228e+02
1.067000e+03 2.928431e+00
1.068000e+03 3.920315e+02
1.069000e+03 6.770841e-01
1.070000e+03 7.564053e+01
1.071000e+03 3.710298e+02
1.072000e+03 4.069153e+02
1.073000e+03 2.334900e-01
1.074000e+03 7.594078e+01
1.075000e+03 4.531268e+01
1.076000e+03 4.670286e+02
1.077000e+03 1.037125e+00
1.078000e+03 1.052588e+01
1.079000e+03 4.955267e+01
1.080000e+03 1.114271e+02
1.081000e+03 2.892178e+02
1.082000e+03 2.252716e+02
1.083000e+03 1.422957e+02
1.084000e+03 6.511058e+02
1.085000e+03 4.016486e+01
1.086000e+03 6.781791e+02
1.087000e+03 6.975098e+00
1.088000e+03 7.505682e+02
1.089000e+03 7.719647e+02
1.090000e+03 3.092828e+01
1.091000e+03 3.815503e+01
1.092000e+03 7.996600e+02
1.093000e+03 8.343137e+02
1.094000e+03 3.382157e+02
1.095000e+03 9.166880e+02
1.096000e+03 6.706525e+01
1.097000e+03 5.927228e+02
1.098000e+03 9.876510e+02
1.099000e+03 1.295632e+02
1.100000e+03 2.233143e+00
1.101000e+03 6.378794e+00
1.102000e+03 5.928523e+01
1.103000e+03 1.130612e+03
1.104000e+03 1.224568e+03
1.105000e+03 1.172014e+03
1.106000e+03 2.909757e+02
1.107000e+03 2.610107e+00
1.108000e+03 8.903587e+02
1.109000e+03 3.113196e+01
1.110000e+03 1.263004e+03
1.111000e+03 1.271829e+03
1.112000e+03 6.206409e+02
1.113000e+03 1.169450e+03
1.114000e+03 4.154668e+02
1.115000e+03 5.065979e+01
1.116000e+03 2.678571e+01
1.117000e+03 1.260710e+03
1.118000e+03 4.889954e+01
1.119000e+03 8.245786e+02
1.120000e+03 2.865039e+01
1.121000e+03 1.388230e+03
1.122000e+03 2.486444e+02
1.123000e+03 1.621922e+03
1.124000e+03 1.682537e+03
1.125000e+03 1.327504e+03
1.126000e+03 2.033648e+03
1.127000e+03 1.735140e+03
1.128000e+03 1.257249e+03
1.129000e+03 1.216247e+03
1.130000e+03 2.015567e+03
1.131000e+03 1.937206e+03
1.132000e+03 4.581281e+01
1.133000e+03 1.792600e+02
1.134000e+03 1.324990e+03
1.135000e+03 2.845710e+02
1.136000e+03 4.335271e+02
1.137000e+03 2.246369e+03
1.138000e+03 1.250360e+03
1.139000e+03 2.563075e+03
1.140000e+03 1.653050e+03
1.141000e+03 2.564332e+03
1.142000e+03 2.732705e+03
1.143000e+03 1.889926e+03
1.144000e+03 2.824460e+03
1.145000e+03 1.865234e+01
1.146000e+03 3.027040e+03
1.147000e+03 2.972477e+03
1.148000e+03 1.358589e+02
1.149000e+03 2.759771e+03
1.150000e+03 2.360064e+03
1.151000e+03 3.327879e+03
1.152000e+03 3.212833e+03
1.153000e+03 3.147651e+03
1.154000e+03 3.517298e+03
1.155000e+03 2.879500e+03
1.156000e+03 3.677362e+03
1.157000e+03 3.522600e+03
1.158000e+03 2.195363e+03
1.159000e+03 3.793192e+03
1.160000e+03 2.190896e+03
1.161000e+03 3.902185e+03
1.162000e+03 5.080049e+02
1.163000e+03 1.306722e+03
1.164000e+03 7.569092e+00
1.165000e+03 3.971591e+03
1.166000e+03 3.575808e+03
1.167000e+03 3.662870e+03
1.168000e+03 4.636413e+03
1.169000e+03 4.679462e+03
1.170000e+03 3.537221e+03
1.171000e+03 4.632692e+03
1.172000e+03 3.066355e+03
1.173000e+03 5.114120e+03
1.174000e+03 1.095271e+02
1.175000e+03 5.712646e+00
1.176000e+03 2.238037e+00
1.177000e+03 5.639866e+03
1.178000e+03 5.745280e+03
1.179000e+03 5.715177e+03
1.180000e+03 4.213588e+03
1.181000e+03 6.037032e+03
1.182000e+03 6.002342e+03
1.183000e+03 5.060465e+03
1.184000e+03 4.743212e+03
1.185000e+03 5.562995e+03
1.186000e+03 6.148518e+02
1.187000e+03 6.212055e+03
1.188000e+03 3.878138e+03
1.189000e+03 4.685218e+03
1.190000e+03 7.130274e+03
1.191000e+03 6.510066e+03
1.192000e+03 7.158726e+03
1.193000e+03 1.238160e+03
1.194000e+03 5.199772e+03
1.195000e+03 7.296259e+03
1.196000e+03 7.399971e+03
1.197000e+03 1.098225e+04
1.198000e+03 1.650303e+03
1.199000e+03 1.092204e+04
1.200000e+03 3.379484e+03
1.201000e+03 1.060751e+04
1.202000e+03 7.686058e+03
1.203000e+03 1.215839e+04
1.204000e+03 3.039226e+03
1.205000e+03 1.078950e+04
1.206000e+03 1.100384e+04
1.207000e+03 1.166794e+03
1.208000e+03 8.436056e+03
1.209000e+03 7.002925e+03
1.210000e+03 9.131348e+00
1.211000e+03 3.802642e+03
1.212000e+03 1.926203e+03
1.213000e+03 1.003462e+03
1.214000e+03 2.733511e+02
1.215000e+03 2.383740e+01
1.216000e+03 7.469773e+00
1.217000e+03 1.524450e+02
1.218000e+03 7.878994e+02
1.219000e+03 1.988524e+03
1.220000e+03 2.150804e+03
1.221000e+03 6.160499e+03
1.222000e+03 8.215624e+03
1.223000e+03 9.887531e+03
1.224000e+03 1.171289e+04
1.225000e+03 1.961365e+03
1.226000e+03 1.803173e+04
1.227000e+03 1.956628e+04
1.228000e+03 9.261710e+03
1.229000e+03 2.130299e+04
1.230000e+03 2.055578e+04
1.231000e+03 6.758861e+03
1.232000e+03 2.705875e+04
1.233000e+03 2.878807e+04
1.234000e+03 2.110901e+04
1.235000e+03 3.031864e+04
1.236000e+03 1.310039e+04
1.237000e+03 3.297804e+04
1.238000e+03 3.321931e+04
1.239000e+03 3.102386e+04
1.240000e+03 1.198417e+04
1.241000e+03 2.988202e+04
1.242000e+03 3.614819e+04
1.243000e+03 3.851692e+04
1.244000e+03 3.981107e+04
1.245000e+03 4.035364e+04
1.246000e+03 3.891746e+04
1.247000e+03 4.092269e+04
1.248000e+03 3.263769e+04
1.249000e+03 4.499918e+04
1.250000e+03 3.227120e+04
1.251000e+03 4.690339e+04
1.252000e+03 4.477500e+04
1.253000e+03 4.902008e+04
1.254000e+03 4.812250e+04
1.255000e+03 4.900588e+04
1.256000e+03 4.949454e+04
1.257000e+03 3.993733e+04
1.258000e+03 4.472338e+04
1.259000e+03 5.179700e+04
1.260000e+03 5.683956e+04
1.261000e+03 2.564301e+03
1.262000e+03 5.962428e+04
1.263000e+03 5.838716e+04
1.264000e+03 5.381041e+04
1.265000e+03 2.984805e+02
1.266000e+03 6.428060e+04
1.267000e+03 5.927991e+04
