# wavelength_A flux
5.000000e+02 2.856375e-09
5.010000e+02 3.254756e-09
5.020000e+02 3.706700e-09
5.030000e+02 4.219135e-09
5.040000e+02 4.799853e-09
5.050000e+02 5.553011e-09
5.060000e+02 6.309943e-09
5.070000e+02 7.166308e-09
5.080000e+02 8.134671e-09
5.090000e+02 9.229245e-09
5.100000e+02 1.046558e-08
5.110000e+02 1.186150e-08
5.120000e+02 1.343679e-08
5.130000e+02 1.521362e-08
5.140000e+02 1.721677e-08
5.150000e+02 1.947384e-08
5.160000e+02 2.201621e-08
5.170000e+02 2.487738e-08
5.180000e+02 2.809818e-08
5.190000e+02 3.171965e-08
5.200000e+02 3.579055e-08
5.210000e+02 4.036444e-08
5.220000e+02 4.549763e-08
5.230000e+02 5.126707e-08
5.240000e+02 5.773641e-08
5.250000e+02 6.499214e-08
5.260000e+02 7.312503e-08
5.270000e+02 8.223742e-08
5.280000e+02 9.244264e-08
5.290000e+02 1.038497e-07
5.300000e+02 1.166490e-07
5.310000e+02 1.309450e-07
5.320000e+02 1.469271e-07
5.330000e+02 1.647854e-07
5.340000e+02 1.847319e-07
5.350000e+02 2.070009e-07
5.360000e+02 2.318509e-07
5.370000e+02 2.572855e-07
5.380000e+02 2.904771e-07
5.390000e+02 3.249291e-07
5.400000e+02 3.633066e-07
5.410000e+02 4.060196e-07
5.420000e+02 4.536069e-07
5.430000e+02 5.065359e-07
5.440000e+02 5.653987e-07
5.450000e+02 6.308370e-07
5.460000e+02 7.034666e-07
5.470000e+02 7.843312e-07
5.480000e+02 8.740188e-07
5.490000e+02 9.735656e-07
5.500000e+02 1.084006e-06
5.510000e+02 1.206486e-06
5.520000e+02 1.342263e-06
5.530000e+02 1.492721e-06
5.540000e+02 1.659381e-06
5.550000e+02 1.843918e-06
5.560000e+02 2.048167e-06
5.570000e+02 2.274149e-06
5.580000e+02 2.524077e-06
5.590000e+02 2.800386e-06
5.600000e+02 3.105741e-06
5.610000e+02 3.443071e-06
5.620000e+02 3.815582e-06
5.630000e+02 4.226788e-06
5.640000e+02 4.680541e-06
5.650000e+02 5.181053e-06
5.660000e+02 5.732953e-06
5.670000e+02 6.341279e-06
5.680000e+02 7.011561e-06
5.690000e+02 7.749841e-06
5.700000e+02 8.562714e-06
5.710000e+02 9.457424e-06
5.720000e+02 1.044183e-05
5.730000e+02 1.152455e-05
5.740000e+02 1.271498e-05
5.750000e+02 1.402353e-05
5.760000e+02 1.545995e-05
5.770000e+02 1.704002e-05
5.780000e+02 1.877360e-05
5.790000e+02 2.067633e-05
5.800000e+02 2.276400e-05
5.810000e+02 2.505379e-05
5.820000e+02 2.756440e-05
5.830000e+02 3.031603e-05
5.840000e+02 3.332468e-05
5.850000e+02 3.663265e-05
5.860000e+02 4.025083e-05
5.870000e+02 4.420983e-05
5.880000e+02 4.854189e-05
5.890000e+02 5.328024e-05
5.900000e+02 5.846294e-05
5.910000e+02 6.412811e-05
5.920000e+02 7.031934e-05
5.930000e+02 7.708328e-05
5.940000e+02 8.447054e-05
5.950000e+02 9.253478e-05
5.960000e+02 1.013393e-04
5.970000e+02 1.109447e-04
5.980000e+02 1.214222e-04
5.990000e+02 1.328473e-04
6.000000e+02 1.453020e-04
6.010000e+02 1.588705e-04
6.020000e+02 1.736617e-04
6.030000e+02 1.897662e-04
6.040000e+02 2.073007e-04
6.050000e+02 2.263862e-04
6.060000e+02 2.471534e-04
6.070000e+02 2.697449e-04
6.080000e+02 2.943124e-04
6.090000e+02 3.210214e-04
6.100000e+02 3.500499e-04
6.110000e+02 3.815906e-04
6.120000e+02 4.158504e-04
6.130000e+02 4.530532e-04
6.140000e+02 4.934401e-04
6.150000e+02 5.372714e-04
6.160000e+02 5.848270e-04
6.170000e+02 6.364089e-04
6.180000e+02 6.923422e-04
6.190000e+02 7.529768e-04
6.200000e+02 8.186900e-04
6.210000e+02 8.898869e-04
6.220000e+02 9.670042e-04
6.230000e+02 1.050511e-03
6.240000e+02 1.140912e-03
6.250000e+02 1.238750e-03
6.260000e+02 1.344608e-03
6.270000e+02 1.459113e-03
6.280000e+02 1.582937e-03
6.290000e+02 1.716804e-03
6.300000e+02 1.861489e-03
6.310000e+02 2.017725e-03
6.320000e+02 2.186708e-03
6.330000e+02 2.369090e-03
6.340000e+02 2.566013e-03
6.350000e+02 2.778565e-03
6.360000e+02 3.006518e-03
6.370000e+02 3.255400e-03
6.380000e+02 3.522302e-03
6.390000e+02 3.810102e-03
6.400000e+02 4.120357e-03
6.410000e+02 4.454735e-03
6.420000e+02 4.815022e-03
6.430000e+02 5.203130e-03
6.440000e+02 5.621100e-03
6.450000e+02 6.071118e-03
6.460000e+02 6.555531e-03
6.470000e+02 7.076827e-03
6.480000e+02 7.637694e-03
6.490000e+02 8.240974e-03
6.500000e+02 8.889724e-03
6.510000e+02 9.587205e-03
6.520000e+02 1.033690e-02
6.530000e+02 1.114252e-02
6.540000e+02 1.200803e-02
6.550000e+02 1.293767e-02
6.560000e+02 1.393596e-02
6.570000e+02 1.500753e-02
6.580000e+02 1.615808e-02
6.590000e+02 1.739252e-02
6.600000e+02 1.871687e-02
6.610000e+02 2.013740e-02
6.620000e+02 2.166070e-02
6.630000e+02 2.329385e-02
6.640000e+02 2.504438e-02
6.650000e+02 2.692026e-02
6.660000e+02 2.893013e-02
6.670000e+02 3.108297e-02
6.680000e+02 3.338848e-02
6.690000e+02 3.585693e-02
6.700000e+02 3.849926e-02
6.710000e+02 4.132711e-02
6.720000e+02 4.435280e-02
6.730000e+02 4.758959e-02
6.740000e+02 5.105133e-02
6.750000e+02 5.475291e-02
6.760000e+02 5.871009e-02
6.770000e+02 6.293964e-02
6.780000e+02 6.745933e-02
6.790000e+02 7.228805e-02
6.800000e+02 7.744586e-02
6.810000e+02 8.295400e-02
6.820000e+02 8.883508e-02
6.830000e+02 9.511304e-02
6.840000e+02 1.018133e-01
6.850000e+02 1.089626e-01
6.860000e+02 1.165899e-01
6.870000e+02 1.247248e-01
6.880000e+02 1.334005e-01
6.890000e+02 1.426500e-01
6.900000e+02 1.525096e-01
6.910000e+02 1.630176e-01
6.920000e+02 1.742142e-01
6.930000e+02 1.861421e-01
6.940000e+02 1.988469e-01
6.950000e+02 2.123763e-01
6.960000e+02 2.267811e-01
6.970000e+02 2.421124e-01
6.980000e+02 2.584344e-01
6.990000e+02 2.757997e-01
7.000000e+02 2.942742e-01
7.010000e+02 3.139251e-01
7.020000e+02 3.348233e-01
7.030000e+02 3.570436e-01
7.040000e+02 3.806654e-01
7.050000e+02 4.057723e-01
7.060000e+02 4.324526e-01
7.070000e+02 4.607998e-01
7.080000e+02 4.909122e-01
7.090000e+02 5.228932e-01
7.100000e+02 5.568550e-01
7.110000e+02 5.929110e-01
7.120000e+02 6.311843e-01
7.130000e+02 6.718039e-01
7.140000e+02 7.149059e-01
7.150000e+02 7.606335e-01
7.160000e+02 8.091382e-01
7.170000e+02 8.605778e-01
7.180000e+02 9.151176e-01
7.190000e+02 9.729534e-01
7.200000e+02 1.034250e+00
7.210000e+02 1.099211e+00
7.220000e+02 1.168044e+00
7.230000e+02 1.240969e+00
7.240000e+02 1.318213e+00
7.250000e+02 1.400018e+00
7.260000e+02 1.486641e+00
7.270000e+02 1.578347e+00
7.280000e+02 1.675420e+00
7.290000e+02 1.778155e+00
7.300000e+02 1.886865e+00
7.310000e+02 2.001878e+00
7.320000e+02 2.123539e+00
7.330000e+02 2.252210e+00
7.340000e+02 2.388274e+00
7.350000e+02 2.532131e+00
7.360000e+02 2.684201e+00
7.370000e+02 2.844930e+00
7.380000e+02 3.014780e+00
7.390000e+02 3.194241e+00
7.400000e+02 3.383820e+00
7.410000e+02 3.584073e+00
7.420000e+02 3.795543e+00
7.430000e+02 4.018846e+00
7.440000e+02 4.254590e+00
7.450000e+02 4.503433e+00
7.460000e+02 4.766063e+00
7.470000e+02 5.043199e+00
7.480000e+02 5.335597e+00
7.490000e+02 5.644049e+00
7.500000e+02 5.969387e+00
7.510000e+02 6.312481e+00
7.520000e+02 6.674245e+00
7.530000e+02 7.055636e+00
7.540000e+02 7.457659e+00
7.550000e+02 7.881362e+00
7.560000e+02 8.327851e+00
7.570000e+02 8.798199e+00
7.580000e+02 9.293850e+00
7.590000e+02 9.815813e+00
7.600000e+02 1.036556e+01
7.610000e+02 1.094442e+01
7.620000e+02 1.155385e+01
7.630000e+02 1.219539e+01
7.640000e+02 1.287062e+01
7.650000e+02 1.358120e+01
7.660000e+02 1.432889e+01
7.670000e+02 1.511550e+01
7.680000e+02 1.594290e+01
7.690000e+02 1.681322e+01
7.700000e+02 1.772840e+01
7.710000e+02 1.869067e+01
7.720000e+02 1.970232e+01
7.730000e+02 2.076572e+01
7.740000e+02 2.188336e+01
7.750000e+02 2.305785e+01
7.760000e+02 2.429089e+01
7.770000e+02 2.558835e+01
7.780000e+02 2.695018e+01
7.790000e+02 2.838048e+01
7.800000e+02 2.988249e+01
7.810000e+02 3.145958e+01
7.820000e+02 3.311529e+01
7.830000e+02 3.485328e+01
7.840000e+02 3.667742e+01
7.850000e+02 3.859171e+01
7.860000e+02 4.060031e+01
7.870000e+02 4.270771e+01
7.880000e+02 4.491828e+01
7.890000e+02 4.723686e+01
7.900000e+02 4.966840e+01
7.910000e+02 5.221808e+01
7.920000e+02 5.489127e+01
7.930000e+02 5.769359e+01
7.940000e+02 6.063091e+01
7.950000e+02 6.370930e+01
7.960000e+02 6.693517e+01
7.970000e+02 7.031510e+01
7.980000e+02 7.385603e+01
7.990000e+02 7.756513e+01
8.000000e+02 8.144991e+01
8.010000e+02 8.551810e+01
8.020000e+02 8.977802e+01
8.030000e+02 9.423795e+01
8.040000e+02 9.890676e+01
8.050000e+02 1.037936e+02
8.060000e+02 1.089081e+02
8.070000e+02 1.142601e+02
8.080000e+02 1.198599e+02
8.090000e+02 1.257185e+02
8.100000e+02 1.318468e+02
8.110000e+02 1.382566e+02
8.120000e+02 1.449600e+02
8.130000e+02 1.519696e+02
8.140000e+02 1.592985e+02
8.150000e+02 1.669602e+02
8.160000e+02 1.749692e+02
8.170000e+02 1.833398e+02
8.180000e+02 1.920876e+02
8.190000e+02 2.012284e+02
8.200000e+02 2.107788e+02
8.210000e+02 2.207558e+02
8.220000e+02 2.311774e+02
8.230000e+02 2.420621e+02
8.240000e+02 2.534293e+02
8.250000e+02 2.652987e+02
8.260000e+02 2.776913e+02
8.270000e+02 2.906286e+02
8.280000e+02 3.041330e+02
8.290000e+02 3.182278e+02
8.300000e+02 3.329371e+02
8.310000e+02 3.482859e+02
8.320000e+02 3.643002e+02
8.330000e+02 3.810071e+02
8.340000e+02 3.984346e+02
8.350000e+02 4.165898e+02
8.360000e+02 4.355669e+02
8.370000e+02 4.553359e+02
8.380000e+02 4.759460e+02
8.390000e+02 4.974351e+02
8.400000e+02 5.198350e+02
8.410000e+02 5.431826e+02
8.420000e+02 5.675099e+02
8.430000e+02 5.928743e+02
8.440000e+02 6.192968e+02
8.450000e+02 6.468256e+02
8.460000e+02 6.755040e+02
8.470000e+02 7.053769e+02
8.480000e+02 7.364906e+02
8.490000e+02 7.688934e+02
8.500000e+02 8.026349e+02
8.510000e+02 8.377670e+02
8.520000e+02 8.743422e+02
8.530000e+02 9.124178e+02
8.540000e+02 9.520521e+02
8.550000e+02 9.932999e+02
8.560000e+02 1.036225e+03
8.570000e+02 1.080892e+03
8.580000e+02 1.127365e+03
8.590000e+02 1.175714e+03
8.600000e+02 1.226008e+03
8.610000e+02 1.278320e+03
8.620000e+02 1.332727e+03
8.630000e+02 1.389305e+03
8.640000e+02 1.448138e+03
8.650000e+02 1.509306e+03
8.660000e+02 1.572899e+03
8.670000e+02 1.639003e+03
8.680000e+02 1.707713e+03
8.690000e+02 1.779123e+03
8.700000e+02 1.853331e+03
8.710000e+02 1.930445e+03
8.720000e+02 2.010564e+03
8.730000e+02 2.093799e+03
8.740000e+02 2.180264e+03
8.750000e+02 2.270075e+03
8.760000e+02 2.363353e+03
8.770000e+02 2.460219e+03
8.780000e+02 2.560811e+03
8.790000e+02 2.665252e+03
8.800000e+02 2.773684e+03
8.810000e+02 2.886247e+03
8.820000e+02 3.003088e+03
8.830000e+02 3.124359e+03
8.840000e+02 3.250216e+03
8.850000e+02 3.380820e+03
8.860000e+02 3.516336e+03
8.870000e+02 3.656938e+03
8.880000e+02 3.802802e+03
8.890000e+02 3.954113e+03
8.900000e+02 4.111057e+03
8.910000e+02 4.273831e+03
8.920000e+02 4.439440e+03
8.930000e+02 4.617678e+03
8.940000e+02 4.799173e+03
8.950000e+02 4.987341e+03
8.960000e+02 5.182412e+03
8.970000e+02 5.384617e+03
8.980000e+02 5.594202e+03
8.990000e+02 5.811415e+03
9.000000e+02 6.036515e+03
9.010000e+02 6.269766e+03
9.020000e+02 6.511443e+03
9.030000e+02 6.761830e+03
9.040000e+02 7.021193e+03
9.050000e+02 7.289899e+03
9.060000e+02 7.568197e+03
9.070000e+02 7.856365e+03
9.080000e+02 8.154900e+03
9.090000e+02 8.463976e+03
9.100000e+02 8.783994e+03
9.110000e+02 9.115333e+03
9.120000e+02 9.458438e+03
9.130000e+02 9.755085e+03
9.140000e+02 1.028296e+04
9.150000e+02 4.442223e+04
9.160000e+02 9.941806e+04
9.170000e+02 1.029660e+05
9.180000e+02 9.847116e+04
9.190000e+02 1.190913e+05
9.200000e+02 1.248029e+05
9.210000e+02 1.302104e+04
9.220000e+02 1.329283e+05
9.230000e+02 1.199620e+05
9.240000e+02 1.304234e+05
9.250000e+02 1.437104e+05
9.260000e+02 1.419388e+05
9.270000e+02 1.527448e+05
9.280000e+02 1.598464e+05
9.290000e+02 1.490414e+05
9.300000e+02 1.677421e+05
9.310000e+02 1.636934e+05
9.320000e+02 1.800592e+05
9.330000e+02 1.853845e+05
9.340000e+02 1.911312e+05
9.350000e+02 4.461766e+04
9.360000e+02 1.934880e+05
9.370000e+02 3.679221e+04
9.380000e+02 1.239772e+05
9.390000e+02 2.175750e+05
9.400000e+02 2.278889e+05
9.410000e+02 9.509585e+04
9.420000e+02 2.416896e+05
9.430000e+02 2.465724e+05
9.440000e+02 1.936977e+05
9.450000e+02 2.635239e+05
9.460000e+02 2.709012e+05
9.470000e+02 2.467023e+05
9.480000e+02 2.512338e+05
9.490000e+02 2.925603e+05
9.500000e+02 5.926080e+04
9.510000e+02 3.038160e+05
9.520000e+02 3.217095e+05
9.530000e+02 3.137432e+05
9.540000e+02 2.882252e+05
9.550000e+02 3.493986e+05
9.560000e+02 3.160386e+05
9.570000e+02 2.314141e+05
9.580000e+02 3.376230e+05
9.590000e+02 3.945822e+05
9.600000e+02 7.851994e+04
9.610000e+02 4.168723e+05
9.620000e+02 4.270748e+05
9.630000e+02 4.397488e+05
9.640000e+02 6.004188e+04
9.650000e+02 4.217393e+05
9.660000e+02 4.772688e+05
9.670000e+02 4.829112e+05
9.680000e+02 4.826370e+05
9.690000e+02 5.168846e+05
9.700000e+02 5.321099e+05
9.710000e+02 5.327134e+05
9.720000e+02 5.185067e+05
9.730000e+02 5.255296e+05
9.740000e+02 5.891641e+05
9.750000e+02 6.092852e+05
9.760000e+02 6.313331e+05
9.770000e+02 6.486681e+05
9.780000e+02 6.634288e+05
9.790000e+02 6.862164e+05
9.800000e+02 7.049494e+05
9.810000e+02 7.221224e+05
9.820000e+02 7.319128e+05
9.830000e+02 7.639505e+05
9.840000e+02 3.546005e+05
9.850000e+02 8.019586e+05
9.860000e+02 8.223385e+05
9.870000e+02 8.500068e+05
9.880000e+02 8.267654e+05
9.890000e+02 7.373186e+05
9.900000e+02 1.579342e+05
9.910000e+02 9.086244e+05
9.920000e+02 7.850242e+05
9.930000e+02 9.542189e+05
9.940000e+02 1.779994e+05
9.950000e+02 3.347964e+05
9.960000e+02 8.453989e+05
9.970000e+02 2.694611e+05
9.980000e+02 1.130796e+06
9.990000e+02 1.127727e+06
1.000000e+03 1.195111e+06
1.001000e+03 1.226983e+06
1.002000e+03 1.258351e+06
1.003000e+03 1.215298e+06
1.004000e+03 1.272500e+06
1.005000e+03 1.266089e+06
1.006000e+03 1.394134e+06
1.007000e+03 1.429922e+06
1.008000e+03 1.464929e+06
1.009000e+03 1.467925e+06
1.010000e+03 1.541994e+06
1.011000e+03 1.581933e+06
1.012000e+03 1.621087e+06
1.013000e+03 1.661717e+06
1.014000e+03 1.405067e+06
1.015000e+03 1.618565e+06
1.016000e+03 1.761657e+06
1.017000e+03 1.546169e+06
1.018000e+03 1.859048e+06
1.019000e+03 1.810452e+06
1.020000e+03 1.971518e+06
1.021000e+03 1.149020e+06
1.022000e+03 1.838963e+06
1.023000e+03 1.947809e+06
1.024000e+03 2.018508e+06
1.025000e+03 1.442458e+06
1.026000e+03 8.442998e+05
1.027000e+03 2.081163e+06
1.028000e+03 6.080852e+05
1.029000e+03 2.075965e+06
1.030000e+03 2.482742e+06
1.031000e+03 2.554753e+06
1.032000e+03 2.639704e+06
1.033000e+03 1.104433e+06
1.034000e+03 2.777160e+06
1.035000e+03 6.415952e+05
1.036000e+03 2.432884e+06
1.037000e+03 1.100650e+06
1.038000e+03 3.074197e+06
1.039000e+03 3.130006e+06
1.040000e+03 3.223518e+06
1.041000e+03 3.280034e+06
1.042000e+03 3.361160e+06
1.043000e+03 3.330495e+06
1.044000e+03 3.546714e+06
1.045000e+03 3.628965e+06
1.046000e+03 3.722504e+06
1.047000e+03 3.792468e+06
1.048000e+03 3.734139e+06
1.049000e+03 3.925365e+06
1.050000e+03 4.073752e+06
1.051000e+03 4.151941e+06
1.052000e+03 4.284926e+06
1.053000e+03 4.362371e+06
1.054000e+03 3.743228e+06
1.055000e+03 4.585768e+06
1.056000e+03 4.705510e+06
1.057000e+03 4.800643e+06
1.058000e+03 4.904689e+06
1.059000e+03 4.906904e+06
1.060000e+03 4.960362e+06
1.061000e+03 5.266956e+06
1.062000e+03 5.354042e+06
1.063000e+03 2.253185e+06
1.064000e+03 1.305074e+06
1.065000e+03 5.036454e+06
1.066000e+03 5.167936e+06
1.067000e+03 5.791806e+06
1.068000e+03 6.213268e+06
1.069000e+03 5.772320e+06
1.070000e+03 6.454916e+06
1.071000e+03 6.649900e+06
1.072000e+03 6.799568e+06
1.073000e+03 6.256218e+06
1.074000e+03 7.074054e+06
1.075000e+03 7.214899e+06
1.076000e+03 7.434726e+06
1.077000e+03 7.445264e+06
1.078000e+03 7.714830e+06
1.079000e+03 7.904570e+06
1.080000e+03 8.101293e+06
1.081000e+03 8.292292e+06
1.082000e+03 8.472901e+06
1.083000e+03 8.654278e+06
1.084000e+03 8.865670e+06
1.085000e+03 7.397671e+06
1.086000e+03 9.261774e+06
1.087000e+03 9.215027e+06
1.088000e+03 9.648360e+06
1.089000e+03 9.880933e+06
1.090000e+03 9.999273e+06
1.091000e+03 1.020558e+07
1.092000e+03 1.053627e+07
1.093000e+03 1.075785e+07
1.094000e+03 1.098449e+07
1.095000e+03 1.122902e+07
1.096000e+03 1.145648e+07
1.097000e+03 1.164552e+07
1.098000e+03 1.191375e+07
1.099000e+03 1.218944e+07
1.100000e+03 1.186844e+07
1.101000e+03 1.149903e+07
1.102000e+03 2.450297e+07
1.103000e+03 7.696902e+07
1.104000e+03 2.997022e+07
1.105000e+03 1.289109e+07
1.106000e+03 1.451967e+08
1.107000e+03 4.955433e+07
1.108000e+03 1.615766e+08
1.109000e+03 8.711008e+07
1.110000e+03 4.815610e+07
1.111000e+03 2.823912e+07
1.112000e+03 1.541217e+08
1.113000e+03 1.808026e+08
1.114000e+03 1.088798e+07
1.115000e+03 1.362457e+08
1.116000e+03 1.261917e+08
1.117000e+03 1.133947e+07
1.118000e+03 1.120680e+08
1.119000e+03 1.882978e+08
1.120000e+03 1.381578e+08
1.121000e+03 1.809495e+08
1.122000e+03 4.872160e+06
1.123000e+03 2.821832e+07
1.124000e+03 2.090779e+08
1.125000e+03 1.228972e+08
1.126000e+03 2.200106e+08
1.127000e+03 2.153376e+08
1.128000e+03 8.717627e+07
1.129000e+03 2.134883e+08
1.130000e+03 2.116260e+08
1.131000e+03 2.366050e+08
1.132000e+03 1.439266e+07
1.133000e+03 1.572772e+08
1.134000e+03 2.278751e+08
1.135000e+03 9.241536e+06
1.136000e+03 2.136330e+08
1.137000e+03 2.575697e+08
1.138000e+03 2.447563e+08
1.139000e+03 2.606836e+08
1.140000e+03 8.738560e+06
1.141000e+03 2.730084e+08
1.142000e+03 2.764820e+08
1.143000e+03 2.789749e+08
1.144000e+03 2.889859e+08
1.145000e+03 1.374370e+08
1.146000e+03 2.982656e+08
1.147000e+03 2.971607e+08
1.148000e+03 2.194486e+08
1.149000e+03 3.085073e+08
1.150000e+03 2.978930e+08
1.151000e+03 3.193643e+08
1.152000e+03 3.231278e+08
1.153000e+03 1.248915e+08
1.154000e+03 4.949450e+07
1.155000e+03 3.123672e+08
1.156000e+03 1.223240e+08
1.157000e+03 3.498173e+08
1.158000e+03 1.439329e+07
1.159000e+03 3.143713e+08
1.160000e+03 3.378800e+08
1.161000e+03 3.710700e+08
1.162000e+03 1.045845e+08
1.163000e+03 3.396079e+08
1.164000e+03 1.712755e+07
1.165000e+03 3.939920e+08
1.166000e+03 3.940948e+08
1.167000e+03 3.925585e+08
1.168000e+03 4.166917e+08
1.169000e+03 4.145984e+08
1.170000e+03 4.256042e+08
1.171000e+03 4.333943e+08
1.172000e+03 4.078958e+08
1.173000e+03 4.526135e+08
1.174000e+03 3.139384e+08
1.175000e+03 2.027491e+07
1.176000e+03 1.818477e+07
1.177000e+03 4.830803e+08
1.178000e+03 4.748320e+08
1.179000e+03 4.974087e+08
1.180000e+03 3.766453e+08
1.181000e+03 5.117560e+08
1.182000e+03 5.206503e+08
1.183000e+03 5.216550e+08
1.184000e+03 5.252163e+08
1.185000e+03 5.361630e+08
1.186000e+03 4.864253e+08
1.187000e+03 5.537558e+08
1.188000e+03 5.264087e+08
1.189000e+03 2.399901e+07
1.190000e+03 1.208845e+08
1.191000e+03 5.662595e+08
1.192000e+03 5.787918e+08
1.193000e+03 2.288330e+07
1.194000e+03 2.736314e+07
1.195000e+03 4.531051e+08
1.196000e+03 5.920129e+08
1.197000e+03 8.689946e+08
1.198000e+03 7.811903e+08
1.199000e+03 8.539116e+08
1.200000e+03 7.139937e+08
1.201000e+03 8.043211e+08
1.202000e+03 7.598788e+08
1.203000e+03 9.775563e+08
1.204000e+03 7.626467e+08
1.205000e+03 8.211220e+08
1.206000e+03 7.528097e+08
1.207000e+03 1.363101e+08
1.208000e+03 5.773521e+08
1.209000e+03 4.453745e+08
1.210000e+03 3.765859e+07
1.211000e+03 2.675555e+08
1.212000e+03 1.790597e+08
1.213000e+03 1.130033e+08
1.214000e+03 6.635202e+07
1.215000e+03 4.160882e+07
1.216000e+03 3.787144e+07
1.217000e+03 5.848920e+07
1.218000e+03 1.030113e+08
1.219000e+03 1.759608e+08
1.220000e+03 2.718404e+08
1.221000e+03 3.982140e+08
1.222000e+03 5.355718e+08
1.223000e+03 6.894033e+08
1.224000e+03 8.558794e+08
1.225000e+03 8.873365e+08
1.226000e+03 1.196322e+09
1.227000e+03 1.356704e+09
1.228000e+03 1.409090e+09
1.229000e+03 1.672987e+09
1.230000e+03 1.775758e+09
1.231000e+03 1.768754e+09
1.232000e+03 2.226756e+09
1.233000e+03 2.390343e+09
1.234000e+03 1.496981e+09
1.235000e+03 2.669095e+09
1.236000e+03 2.309525e+09
1.237000e+03 2.954193e+09
1.238000e+03 3.000374e+09
1.239000e+03 3.111638e+09
1.240000e+03 2.933506e+09
1.241000e+03 4.751166e+09
1.242000e+03 2.798670e+09
1.243000e+03 4.460678e+09
1.244000e+03 1.776932e+09
1.245000e+03 2.656558e+09
1.246000e+03 7.511912e+09
1.247000e+03 7.581976e+09
1.248000e+03 1.869139e+09
1.249000e+03 2.465591e+09
1.250000e+03 8.939522e+09
1.251000e+03 9.900605e+09
1.252000e+03 9.461124e+09
1.253000e+03 1.039630e+10
1.254000e+03 9.809975e+09
1.255000e+03 1.101095e+10
1.256000e+03 1.028715e+10
1.257000e+03 1.136135e+10
1.258000e+03 9.056216e+09
1.259000e+03 1.067554e+10
1.260000e+03 9.922984e+09
1.261000e+03 8.766002e+07
1.262000e+03 1.117737e+09
1.263000e+03 1.249281e+10
1.264000e+03 9.762232e+09
1.265000e+03 9.100314e+07
1.266000e+03 1.277927e+10
1.267000e+03 1.161349e+10
