# wavelength_A flux
5.000000e+02 9.085961e-08
5.010000e+02 1.027916e-07
5.020000e+02 1.162312e-07
5.030000e+02 1.313612e-07
5.040000e+02 1.483859e-07
5.050000e+02 1.744811e-07
5.060000e+02 1.968543e-07
5.070000e+02 2.219867e-07
5.080000e+02 2.502051e-07
5.090000e+02 2.818937e-07
5.100000e+02 3.174102e-07
5.110000e+02 3.572391e-07
5.120000e+02 4.018729e-07
5.130000e+02 4.518685e-07
5.140000e+02 5.078434e-07
5.150000e+02 5.704752e-07
5.160000e+02 6.405505e-07
5.170000e+02 7.188415e-07
5.180000e+02 8.064271e-07
5.190000e+02 9.042180e-07
5.200000e+02 1.013404e-06
5.210000e+02 1.135254e-06
5.220000e+02 1.270960e-06
5.230000e+02 1.422745e-06
5.240000e+02 1.591664e-06
5.250000e+02 1.779844e-06
5.260000e+02 1.989416e-06
5.270000e+02 2.222688e-06
5.280000e+02 2.482230e-06
5.290000e+02 2.769830e-06
5.300000e+02 3.091754e-06
5.310000e+02 3.448314e-06
5.320000e+02 3.844375e-06
5.330000e+02 4.284072e-06
5.340000e+02 4.772057e-06
5.350000e+02 5.313394e-06
5.360000e+02 5.913608e-06
5.370000e+02 6.441110e-06
5.380000e+02 7.315778e-06
5.390000e+02 8.132571e-06
5.400000e+02 9.036538e-06
5.410000e+02 1.003566e-05
5.420000e+02 1.114330e-05
5.430000e+02 1.236702e-05
5.440000e+02 1.371956e-05
5.450000e+02 1.521397e-05
5.460000e+02 1.685955e-05
5.470000e+02 1.868684e-05
5.480000e+02 2.069772e-05
5.490000e+02 2.291647e-05
5.500000e+02 2.536322e-05
5.510000e+02 2.805950e-05
5.520000e+02 3.103166e-05
5.530000e+02 3.430565e-05
5.540000e+02 3.791072e-05
5.550000e+02 4.187895e-05
5.560000e+02 4.624532e-05
5.570000e+02 5.104799e-05
5.580000e+02 5.632864e-05
5.590000e+02 6.213265e-05
5.600000e+02 6.850980e-05
5.610000e+02 7.551409e-05
5.620000e+02 8.320446e-05
5.630000e+02 9.164501e-05
5.640000e+02 1.009023e-04
5.650000e+02 1.110591e-04
5.660000e+02 1.221954e-04
5.670000e+02 1.344006e-04
5.680000e+02 1.477737e-04
5.690000e+02 1.624209e-04
5.700000e+02 1.784578e-04
5.710000e+02 1.960115e-04
5.720000e+02 2.152177e-04
5.730000e+02 2.362256e-04
5.740000e+02 2.591934e-04
5.750000e+02 2.843094e-04
5.760000e+02 3.116892e-04
5.770000e+02 3.417033e-04
5.780000e+02 3.744301e-04
5.790000e+02 4.101560e-04
5.800000e+02 4.491429e-04
5.810000e+02 4.916749e-04
5.820000e+02 5.380579e-04
5.830000e+02 5.886165e-04
5.840000e+02 6.434202e-04
5.850000e+02 7.037183e-04
5.860000e+02 7.692070e-04
5.870000e+02 8.404417e-04
5.880000e+02 9.179357e-04
5.890000e+02 1.002290e-03
5.900000e+02 1.094084e-03
5.910000e+02 1.193905e-03
5.920000e+02 1.302427e-03
5.930000e+02 1.420378e-03
5.940000e+02 1.548538e-03
5.950000e+02 1.687619e-03
5.960000e+02 1.838921e-03
5.970000e+02 2.003031e-03
5.980000e+02 2.181108e-03
5.990000e+02 2.374292e-03
6.000000e+02 2.583873e-03
6.010000e+02 2.811098e-03
6.020000e+02 3.057473e-03
6.030000e+02 3.324438e-03
6.040000e+02 3.613661e-03
6.050000e+02 3.926923e-03
6.060000e+02 4.266088e-03
6.070000e+02 4.633269e-03
6.080000e+02 5.030601e-03
6.090000e+02 5.460461e-03
6.100000e+02 5.925379e-03
6.110000e+02 6.428078e-03
6.120000e+02 6.971492e-03
6.130000e+02 7.558748e-03
6.140000e+02 8.193211e-03
6.150000e+02 8.878501e-03
6.160000e+02 9.618475e-03
6.170000e+02 1.041729e-02
6.180000e+02 1.127939e-02
6.190000e+02 1.220956e-02
6.200000e+02 1.321289e-02
6.210000e+02 1.429468e-02
6.220000e+02 1.546114e-02
6.230000e+02 1.671837e-02
6.240000e+02 1.807309e-02
6.250000e+02 1.953247e-02
6.260000e+02 2.110421e-02
6.270000e+02 2.279653e-02
6.280000e+02 2.461821e-02
6.290000e+02 2.657863e-02
6.300000e+02 2.868789e-02
6.310000e+02 3.095642e-02
6.320000e+02 3.339639e-02
6.330000e+02 3.601935e-02
6.340000e+02 3.883862e-02
6.350000e+02 4.186809e-02
6.360000e+02 4.500617e-02
6.370000e+02 4.861838e-02
6.380000e+02 5.237194e-02
6.390000e+02 5.640153e-02
6.400000e+02 6.072541e-02
6.410000e+02 6.536601e-02
6.420000e+02 7.034335e-02
6.430000e+02 7.568265e-02
6.440000e+02 8.140771e-02
6.450000e+02 8.754496e-02
6.460000e+02 9.412295e-02
6.470000e+02 1.011710e-01
6.480000e+02 1.087216e-01
6.490000e+02 1.168088e-01
6.500000e+02 1.254681e-01
6.510000e+02 1.347383e-01
6.520000e+02 1.446602e-01
6.530000e+02 1.552772e-01
6.540000e+02 1.666355e-01
6.550000e+02 1.787840e-01
6.560000e+02 1.917750e-01
6.570000e+02 2.056584e-01
6.580000e+02 2.205093e-01
6.590000e+02 2.363737e-01
6.600000e+02 2.533231e-01
6.610000e+02 2.714286e-01
6.620000e+02 2.907596e-01
6.630000e+02 3.114040e-01
6.640000e+02 3.334423e-01
6.650000e+02 3.569619e-01
6.660000e+02 3.820598e-01
6.670000e+02 4.088338e-01
6.680000e+02 4.373909e-01
6.690000e+02 4.678433e-01
6.700000e+02 5.003092e-01
6.710000e+02 5.349171e-01
6.720000e+02 5.717355e-01
6.730000e+02 6.110950e-01
6.740000e+02 6.529567e-01
6.750000e+02 6.975416e-01
6.760000e+02 7.450177e-01
6.770000e+02 7.955621e-01
6.780000e+02 8.493624e-01
6.790000e+02 9.066166e-01
6.800000e+02 9.675348e-01
6.810000e+02 1.032323e+00
6.820000e+02 1.101246e+00
6.830000e+02 1.174536e+00
6.840000e+02 1.252433e+00
6.850000e+02 1.335255e+00
6.860000e+02 1.423276e+00
6.870000e+02 1.516778e+00
6.880000e+02 1.616156e+00
6.890000e+02 1.721678e+00
6.900000e+02 1.833749e+00
6.910000e+02 1.952736e+00
6.920000e+02 2.079042e+00
6.930000e+02 2.213095e+00
6.940000e+02 2.355344e+00
6.950000e+02 2.506259e+00
6.960000e+02 2.666350e+00
6.970000e+02 2.836035e+00
6.980000e+02 3.016159e+00
6.990000e+02 3.206968e+00
7.000000e+02 3.409272e+00
7.010000e+02 3.623667e+00
7.020000e+02 3.850842e+00
7.030000e+02 4.091511e+00
7.040000e+02 4.346431e+00
7.050000e+02 4.616398e+00
7.060000e+02 4.902249e+00
7.070000e+02 5.204866e+00
7.080000e+02 5.525178e+00
7.090000e+02 5.864149e+00
7.100000e+02 6.222830e+00
7.110000e+02 6.602242e+00
7.120000e+02 7.003581e+00
7.130000e+02 7.428029e+00
7.140000e+02 7.876830e+00
7.150000e+02 8.351297e+00
7.160000e+02 8.852818e+00
7.170000e+02 9.382637e+00
7.180000e+02 9.942472e+00
7.190000e+02 1.053442e+01
7.200000e+02 1.115942e+01
7.210000e+02 1.181950e+01
7.220000e+02 1.251651e+01
7.230000e+02 1.325216e+01
7.240000e+02 1.402897e+01
7.250000e+02 1.484885e+01
7.260000e+02 1.571405e+01
7.270000e+02 1.662691e+01
7.280000e+02 1.758992e+01
7.290000e+02 1.860566e+01
7.300000e+02 1.967680e+01
7.310000e+02 2.080635e+01
7.320000e+02 2.199711e+01
7.330000e+02 2.325229e+01
7.340000e+02 2.457475e+01
7.350000e+02 2.596873e+01
7.360000e+02 2.743735e+01
7.370000e+02 2.898459e+01
7.380000e+02 3.061419e+01
7.390000e+02 3.233035e+01
7.400000e+02 3.413729e+01
7.410000e+02 3.603978e+01
7.420000e+02 3.804226e+01
7.430000e+02 4.014995e+01
7.440000e+02 4.236781e+01
7.450000e+02 4.470137e+01
7.460000e+02 4.715627e+01
7.470000e+02 4.973845e+01
7.480000e+02 5.245409e+01
7.490000e+02 5.530968e+01
7.500000e+02 5.831093e+01
7.510000e+02 6.146699e+01
7.520000e+02 6.478417e+01
7.530000e+02 6.827033e+01
7.540000e+02 7.193348e+01
7.550000e+02 7.578201e+01
7.560000e+02 7.982484e+01
7.570000e+02 8.407007e+01
7.580000e+02 8.853026e+01
7.590000e+02 9.321011e+01
7.600000e+02 9.812636e+01
7.610000e+02 1.032867e+02
7.620000e+02 1.087027e+02
7.630000e+02 1.143864e+02
7.640000e+02 1.203503e+02
7.650000e+02 1.266048e+02
7.660000e+02 1.331683e+02
7.670000e+02 1.400525e+02
7.680000e+02 1.472706e+02
7.690000e+02 1.548421e+02
7.700000e+02 1.627789e+02
7.710000e+02 1.710988e+02
7.720000e+02 1.798194e+02
7.730000e+02 1.889586e+02
7.740000e+02 1.985353e+02
7.750000e+02 2.085690e+02
7.760000e+02 2.190673e+02
7.770000e+02 2.300899e+02
7.780000e+02 2.416208e+02
7.790000e+02 2.536958e+02
7.800000e+02 2.663362e+02
7.810000e+02 2.795721e+02
7.820000e+02 2.934272e+02
7.830000e+02 3.079283e+02
7.840000e+02 3.231039e+02
7.850000e+02 3.389832e+02
7.860000e+02 3.555965e+02
7.870000e+02 3.729778e+02
7.880000e+02 3.911563e+02
7.890000e+02 4.101682e+02
7.900000e+02 4.300477e+02
7.910000e+02 4.508239e+02
7.920000e+02 4.725555e+02
7.930000e+02 4.952719e+02
7.940000e+02 5.190148e+02
7.950000e+02 5.438279e+02
7.960000e+02 5.697559e+02
7.970000e+02 5.968459e+02
7.980000e+02 6.251457e+02
7.990000e+02 6.547081e+02
8.000000e+02 6.855834e+02
8.010000e+02 7.178260e+02
8.020000e+02 7.514945e+02
8.030000e+02 7.866453e+02
8.040000e+02 8.233416e+02
8.050000e+02 8.616452e+02
8.060000e+02 9.016223e+02
8.070000e+02 9.433412e+02
8.080000e+02 9.868727e+02
8.090000e+02 1.032290e+03
8.100000e+02 1.079670e+03
8.110000e+02 1.129091e+03
8.120000e+02 1.180632e+03
8.130000e+02 1.234389e+03
8.140000e+02 1.290439e+03
8.150000e+02 1.348873e+03
8.160000e+02 1.409799e+03
8.170000e+02 1.473299e+03
8.180000e+02 1.539488e+03
8.190000e+02 1.608464e+03
8.200000e+02 1.680337e+03
8.210000e+02 1.755223e+03
8.220000e+02 1.833197e+03
8.230000e+02 1.914463e+03
8.240000e+02 1.999108e+03
8.250000e+02 2.087261e+03
8.260000e+02 2.179059e+03
8.270000e+02 2.274641e+03
8.280000e+02 2.374153e+03
8.290000e+02 2.477744e+03
8.300000e+02 2.585572e+03
8.310000e+02 2.697797e+03
8.320000e+02 2.814585e+03
8.330000e+02 2.936110e+03
8.340000e+02 3.062551e+03
8.350000e+02 3.193440e+03
8.360000e+02 3.330879e+03
8.370000e+02 3.473242e+03
8.380000e+02 3.621260e+03
8.390000e+02 3.775187e+03
8.400000e+02 3.935236e+03
8.410000e+02 4.101630e+03
8.420000e+02 4.274417e+03
8.430000e+02 4.454443e+03
8.440000e+02 4.641339e+03
8.450000e+02 4.835575e+03
8.460000e+02 5.037414e+03
8.470000e+02 5.247140e+03
8.480000e+02 5.465034e+03
8.490000e+02 5.691392e+03
8.500000e+02 5.926521e+03
8.510000e+02 6.170584e+03
8.520000e+02 6.424192e+03
8.530000e+02 6.687567e+03
8.540000e+02 6.961095e+03
8.550000e+02 7.245018e+03
8.560000e+02 7.539765e+03
8.570000e+02 7.845723e+03
8.580000e+02 8.163283e+03
8.590000e+02 8.492863e+03
8.600000e+02 8.834794e+03
8.610000e+02 9.189674e+03
8.620000e+02 9.557874e+03
8.630000e+02 9.939844e+03
8.640000e+02 1.033610e+04
8.650000e+02 1.074708e+04
8.660000e+02 1.117336e+04
8.670000e+02 1.161541e+04
8.680000e+02 1.207380e+04
8.690000e+02 1.254908e+04
8.700000e+02 1.304174e+04
8.710000e+02 1.355263e+04
8.720000e+02 1.408211e+04
8.730000e+02 1.463090e+04
8.740000e+02 1.519966e+04
8.750000e+02 1.578905e+04
8.760000e+02 1.639976e+04
8.770000e+02 1.703247e+04
8.780000e+02 1.768759e+04
8.790000e+02 1.836665e+04
8.800000e+02 1.907002e+04
8.810000e+02 1.979852e+04
8.820000e+02 2.055296e+04
8.830000e+02 2.133423e+04
8.840000e+02 2.214319e+04
8.850000e+02 2.298072e+04
8.860000e+02 2.384782e+04
8.870000e+02 2.474540e+04
8.880000e+02 2.567447e+04
8.890000e+02 2.663606e+04
8.900000e+02 2.763121e+04
8.910000e+02 2.866100e+04
8.920000e+02 2.963185e+04
8.930000e+02 3.082899e+04
8.940000e+02 3.196953e+04
8.950000e+02 3.314935e+04
8.960000e+02 3.436979e+04
8.970000e+02 3.563203e+04
8.980000e+02 3.693745e+04
8.990000e+02 3.828739e+04
9.000000e+02 3.968327e+04
9.010000e+02 4.112653e+04
9.020000e+02 4.261864e+04
9.030000e+02 4.416114e+04
9.040000e+02 4.575325e+04
9.050000e+02 4.740236e+04
9.060000e+02 4.910562e+04
9.070000e+02 5.086475e+04
9.080000e+02 5.268466e+04
9.090000e+02 5.456404e+04
9.100000e+02 5.650577e+04
9.110000e+02 5.851221e+04
9.120000e+02 6.058712e+04
9.130000e+02 6.099875e+04
9.140000e+02 6.685581e+04
9.150000e+02 3.912988e+05
9.160000e+02 1.941552e+06
9.170000e+02 2.112572e+06
9.180000e+02 2.032002e+06
9.190000e+02 2.342707e+06
9.200000e+02 2.431354e+06
9.210000e+02 7.732762e+04
9.220000e+02 2.566380e+06
9.230000e+02 2.405212e+06
9.240000e+02 2.091748e+06
9.250000e+02 2.716638e+06
9.260000e+02 2.743841e+06
9.270000e+02 2.921913e+06
9.280000e+02 3.004287e+06
9.290000e+02 2.350644e+06
9.300000e+02 3.110320e+06
9.310000e+02 3.127991e+06
9.320000e+02 3.342088e+06
9.330000e+02 3.420252e+06
9.340000e+02 3.519066e+06
9.350000e+02 1.064639e+06
9.360000e+02 3.684840e+06
9.370000e+02 7.104280e+05
9.380000e+02 2.618368e+06
9.390000e+02 3.993563e+06
9.400000e+02 4.103953e+06
9.410000e+02 2.761912e+06
9.420000e+02 4.318867e+06
9.430000e+02 4.428486e+06
9.440000e+02 2.674667e+06
9.450000e+02 4.652120e+06
9.460000e+02 4.772742e+06
9.470000e+02 3.238508e+06
9.480000e+02 4.900306e+06
9.490000e+02 5.057259e+06
9.500000e+02 1.082339e+06
9.510000e+02 5.002358e+06
9.520000e+02 5.543100e+06
9.530000e+02 5.661402e+06
9.540000e+02 4.417753e+06
9.550000e+02 5.979136e+06
9.560000e+02 6.065400e+06
9.570000e+02 5.010381e+06
9.580000e+02 6.363736e+06
9.590000e+02 6.630203e+06
9.600000e+02 1.368916e+06
9.610000e+02 6.977222e+06
9.620000e+02 7.126830e+06
9.630000e+02 7.323562e+06
9.640000e+02 3.712590e+05
9.650000e+02 6.655024e+06
9.660000e+02 7.870617e+06
9.670000e+02 8.039780e+06
9.680000e+02 8.159980e+06
9.690000e+02 8.364464e+06
9.700000e+02 8.615226e+06
9.710000e+02 8.709900e+06
9.720000e+02 7.755090e+06
9.730000e+02 7.606772e+06
9.740000e+02 9.287815e+06
9.750000e+02 9.699033e+06
9.760000e+02 9.973819e+06
9.770000e+02 1.021915e+07
9.780000e+02 1.044677e+07
9.790000e+02 1.072862e+07
9.800000e+02 1.098246e+07
9.810000e+02 1.124997e+07
9.820000e+02 1.140797e+07
9.830000e+02 1.177751e+07
9.840000e+02 2.824402e+06
9.850000e+02 1.234454e+07
9.860000e+02 1.263200e+07
9.870000e+02 1.291958e+07
9.880000e+02 1.314376e+07
9.890000e+02 8.173703e+06
9.900000e+02 9.753826e+05
9.910000e+02 1.399637e+07
9.920000e+02 1.339262e+07
9.930000e+02 1.378740e+07
9.940000e+02 1.797515e+06
9.950000e+02 2.208646e+06
9.960000e+02 3.883080e+06
9.970000e+02 2.823783e+06
9.980000e+02 1.651865e+07
9.990000e+02 1.655603e+07
1.000000e+03 1.738187e+07
1.001000e+03 1.777668e+07
1.002000e+03 1.816631e+07
1.003000e+03 1.595991e+07
1.004000e+03 1.899351e+07
1.005000e+03 1.680718e+07
1.006000e+03 1.986245e+07
1.007000e+03 2.030472e+07
1.008000e+03 2.073175e+07
1.009000e+03 2.015197e+07
1.010000e+03 2.167786e+07
1.011000e+03 2.215248e+07
1.012000e+03 2.263054e+07
1.013000e+03 2.312787e+07
1.014000e+03 2.355070e+07
1.015000e+03 2.347022e+07
1.016000e+03 2.459307e+07
1.017000e+03 2.507896e+07
1.018000e+03 2.565951e+07
1.019000e+03 2.614624e+07
1.020000e+03 2.663984e+07
1.021000e+03 2.195268e+07
1.022000e+03 2.644346e+07
1.023000e+03 2.726631e+07
1.024000e+03 2.571009e+07
1.025000e+03 1.646284e+07
1.026000e+03 5.755390e+06
1.027000e+03 2.484980e+07
1.028000e+03 8.284154e+06
1.029000e+03 3.149338e+07
1.030000e+03 3.216320e+07
1.031000e+03 3.371401e+07
1.032000e+03 3.427560e+07
1.033000e+03 1.915351e+07
1.034000e+03 3.622707e+07
1.035000e+03 7.121426e+06
1.036000e+03 3.717776e+07
1.037000e+03 3.374724e+06
1.038000e+03 3.948274e+07
1.039000e+03 3.996047e+07
1.040000e+03 4.122424e+07
1.041000e+03 4.197978e+07
1.042000e+03 4.173670e+07
1.043000e+03 4.328419e+07
1.044000e+03 4.467097e+07
1.045000e+03 4.565356e+07
1.046000e+03 4.670703e+07
1.047000e+03 4.767229e+07
1.048000e+03 4.825367e+07
1.049000e+03 4.904020e+07
1.050000e+03 5.070742e+07
1.051000e+03 5.174812e+07
1.052000e+03 5.281429e+07
1.053000e+03 5.274169e+07
1.054000e+03 5.480263e+07
1.055000e+03 5.609818e+07
1.056000e+03 5.725454e+07
1.057000e+03 5.838719e+07
1.058000e+03 5.956631e+07
1.059000e+03 6.076742e+07
1.060000e+03 6.198150e+07
1.061000e+03 6.326431e+07
1.062000e+03 6.452628e+07
1.063000e+03 4.431458e+07
1.064000e+03 1.172407e+07
1.065000e+03 6.912535e+07
1.066000e+03 6.931237e+07
1.067000e+03 6.870458e+07
1.068000e+03 7.350018e+07
1.069000e+03 7.475522e+07
1.070000e+03 7.518270e+07
1.071000e+03 7.803222e+07
1.072000e+03 7.955202e+07
1.073000e+03 8.097994e+07
1.074000e+03 8.269370e+07
1.075000e+03 8.425966e+07
1.076000e+03 8.596247e+07
1.077000e+03 8.750791e+07
1.078000e+03 8.932047e+07
1.079000e+03 9.057696e+07
1.080000e+03 9.272538e+07
1.081000e+03 9.460950e+07
1.082000e+03 9.634394e+07
1.083000e+03 9.826303e+07
1.084000e+03 9.454526e+07
1.085000e+03 8.087346e+07
1.086000e+03 1.040386e+08
1.087000e+03 1.059378e+08
1.088000e+03 1.074728e+08
1.089000e+03 1.100354e+08
1.090000e+03 1.120118e+08
1.091000e+03 1.142393e+08
1.092000e+03 1.163851e+08
1.093000e+03 1.184329e+08
1.094000e+03 1.208258e+08
1.095000e+03 1.228773e+08
1.096000e+03 1.253548e+08
1.097000e+03 1.263757e+08
1.098000e+03 1.287391e+08
1.099000e+03 1.323647e+08
1.100000e+03 1.323976e+08
1.101000e+03 1.238641e+08
1.102000e+03 3.073416e+08
1.103000e+03 1.119487e+09
1.104000e+03 3.543078e+08
1.105000e+03 1.359421e+08
1.106000e+03 2.852323e+09
1.107000e+03 2.597132e+09
1.108000e+03 2.942334e+09
1.109000e+03 1.667086e+09
1.110000e+03 3.379721e+08
1.111000e+03 3.291343e+08
1.112000e+03 2.725370e+09
1.113000e+03 3.154561e+09
1.114000e+03 1.037215e+08
1.115000e+03 3.044625e+09
1.116000e+03 3.186616e+09
1.117000e+03 1.012324e+08
1.118000e+03 2.783039e+09
1.119000e+03 3.356951e+09
1.120000e+03 3.376558e+09
1.121000e+03 2.359966e+09
1.122000e+03 2.573440e+07
1.123000e+03 3.439392e+08
1.124000e+03 3.569786e+09
1.125000e+03 1.199581e+09
1.126000e+03 3.696170e+09
1.127000e+03 3.493068e+09
1.128000e+03 1.679492e+09
1.129000e+03 3.742800e+09
1.130000e+03 2.857313e+09
1.131000e+03 3.973357e+09
1.132000e+03 8.105011e+07
1.133000e+03 3.663406e+09
1.134000e+03 3.888572e+09
1.135000e+03 5.417446e+07
1.136000e+03 4.121737e+09
1.137000e+03 4.279131e+09
1.138000e+03 4.360588e+09
1.139000e+03 4.273356e+09
1.140000e+03 5.375104e+07
1.141000e+03 4.546107e+09
1.142000e+03 4.261404e+09
1.143000e+03 4.637236e+09
1.144000e+03 4.714763e+09
1.145000e+03 3.339941e+09
1.146000e+03 4.832003e+09
1.147000e+03 4.753859e+09
1.148000e+03 4.793697e+09
1.149000e+03 5.010576e+09
1.150000e+03 4.752276e+09
1.151000e+03 5.074104e+09
1.152000e+03 5.142671e+09
1.153000e+03 1.004229e+09
1.154000e+03 1.264333e+08
1.155000e+03 4.193001e+09
1.156000e+03 1.654676e+09
1.157000e+03 5.508005e+09
1.158000e+03 1.009362e+08
1.159000e+03 4.649219e+09
1.160000e+03 5.659816e+09
1.161000e+03 5.848914e+09
1.162000e+03 5.685120e+08
1.163000e+03 5.777734e+09
1.164000e+03 1.859469e+08
1.165000e+03 6.127580e+09
1.166000e+03 6.070595e+09
1.167000e+03 5.678824e+09
1.168000e+03 6.359633e+09
1.169000e+03 6.133518e+09
1.170000e+03 6.515330e+09
1.171000e+03 6.590968e+09
1.172000e+03 6.267198e+09
1.173000e+03 6.723386e+09
1.174000e+03 6.501084e+09
1.175000e+03 1.856128e+08
1.176000e+03 1.269514e+08
1.177000e+03 6.914207e+09
1.178000e+03 6.257505e+09
1.179000e+03 7.121203e+09
1.180000e+03 5.408932e+09
1.181000e+03 7.027689e+09
1.182000e+03 7.295241e+09
1.183000e+03 7.332666e+09
1.184000e+03 7.378401e+09
1.185000e+03 7.118969e+09
1.186000e+03 7.414697e+09
1.187000e+03 7.447581e+09
1.188000e+03 7.193576e+09
1.189000e+03 1.324744e+08
1.190000e+03 1.366119e+09
1.191000e+03 7.156723e+09
1.192000e+03 7.153767e+09
1.193000e+03 1.067284e+08
1.194000e+03 1.523287e+08
1.195000e+03 3.445155e+09
1.196000e+03 6.873399e+09
1.197000e+03 7.449939e+09
1.198000e+03 7.496325e+09
1.199000e+03 7.155488e+09
1.200000e+03 6.131487e+09
1.201000e+03 6.429335e+09
1.202000e+03 6.271988e+09
1.203000e+03 6.239113e+09
1.204000e+03 5.570282e+09
1.205000e+03 5.077734e+09
1.206000e+03 4.079534e+09
1.207000e+03 2.062406e+09
1.208000e+03 3.196897e+09
1.209000e+03 2.400640e+09
1.210000e+03 2.624765e+08
1.211000e+03 1.374849e+09
1.212000e+03 8.990035e+08
1.213000e+03 5.415707e+08
1.214000e+03 3.077454e+08
1.215000e+03 1.855146e+08
1.216000e+03 1.633643e+08
1.217000e+03 2.675214e+08
1.218000e+03 4.850695e+08
1.219000e+03 8.553769e+08
1.220000e+03 1.384626e+09
1.221000e+03 2.056501e+09
1.222000e+03 2.845564e+09
1.223000e+03 3.727258e+09
1.224000e+03 4.679310e+09
1.225000e+03 5.677279e+09
1.226000e+03 6.675143e+09
1.227000e+03 7.699688e+09
1.228000e+03 8.854097e+09
1.229000e+03 9.905808e+09
1.230000e+03 1.096526e+10
1.231000e+03 1.204211e+10
1.232000e+03 1.310652e+10
1.233000e+03 1.413078e+10
1.234000e+03 8.375670e+09
1.235000e+03 1.608333e+10
1.236000e+03 1.702243e+10
1.237000e+03 1.795778e+10
1.238000e+03 1.887494e+10
1.239000e+03 1.975880e+10
1.240000e+03 1.870316e+10
1.241000e+03 3.277962e+10
1.242000e+03 1.799304e+10
1.243000e+03 2.785101e+10
1.244000e+03 1.124140e+10
1.245000e+03 1.707269e+10
1.246000e+03 5.366941e+10
1.247000e+03 5.828511e+10
1.248000e+03 1.226561e+10
1.249000e+03 1.607099e+10
1.250000e+03 6.907948e+10
1.251000e+03 7.157148e+10
1.252000e+03 7.256991e+10
1.253000e+03 8.027890e+10
1.254000e+03 8.206433e+10
1.255000e+03 8.603406e+10
1.256000e+03 8.854542e+10
1.257000e+03 9.425215e+10
1.258000e+03 9.445087e+10
1.259000e+03 8.911311e+10
1.260000e+03 6.682633e+10
1.261000e+03 3.932303e+08
1.262000e+03 7.350120e+09
1.263000e+03 1.075886e+11
1.264000e+03 8.866497e+10
1.265000e+03 3.544177e+08
1.266000e+03 1.137975e+11
1.267000e+03 1.267659e+11
