# wavelength_A flux
5.000000e+02 7.354827e-40
5.010000e+02 9.647506e-40
5.020000e+02 1.264092e-39
5.030000e+02 1.654502e-39
5.040000e+02 2.163133e-39
5.050000e+02 2.825657e-39
5.060000e+02 3.686341e-39
5.070000e+02 4.804035e-39
5.080000e+02 6.254001e-39
5.090000e+02 8.132989e-39
5.100000e+02 1.056367e-38
5.110000e+02 1.371104e-38
5.120000e+02 1.777471e-38
5.130000e+02 2.301917e-38
5.140000e+02 2.978039e-38
5.150000e+02 3.848833e-38
5.160000e+02 4.969212e-38
5.170000e+02 6.409275e-38
5.180000e+02 8.258392e-38
5.190000e+02 1.063041e-37
5.200000e+02 1.367019e-37
5.210000e+02 1.756192e-37
5.220000e+02 2.253949e-37
5.230000e+02 2.889982e-37
5.240000e+02 3.701910e-37
5.250000e+02 4.737388e-37
5.260000e+02 6.056716e-37
5.270000e+02 7.736109e-37
5.280000e+02 9.871831e-37
5.290000e+02 1.258533e-36
5.300000e+02 1.602973e-36
5.310000e+02 2.039784e-36
5.320000e+02 2.593231e-36
5.330000e+02 3.293816e-36
5.340000e+02 4.179853e-36
5.350000e+02 5.299420e-36
5.360000e+02 6.712796e-36
5.370000e+02 8.495182e-36
5.380000e+02 1.074203e-35
5.390000e+02 1.357058e-35
5.400000e+02 1.712880e-35
5.410000e+02 2.160103e-35
5.420000e+02 2.721715e-35
5.430000e+02 3.426367e-35
5.440000e+02 4.309732e-35
5.450000e+02 5.416187e-35
5.460000e+02 6.800899e-35
5.470000e+02 8.532381e-35
5.480000e+02 1.069566e-34
5.490000e+02 1.339615e-34
5.500000e+02 1.676446e-34
5.510000e+02 2.096229e-34
5.520000e+02 2.618961e-34
5.530000e+02 3.269359e-34
5.540000e+02 4.077944e-34
5.550000e+02 5.082379e-34
5.560000e+02 6.329098e-34
5.570000e+02 7.875307e-34
5.580000e+02 9.791426e-34
5.590000e+02 1.216408e-33
5.600000e+02 1.509972e-33
5.610000e+02 1.872910e-33
5.620000e+02 2.321267e-33
5.630000e+02 2.874719e-33
5.640000e+02 3.557374e-33
5.650000e+02 4.398751e-33
5.660000e+02 5.434963e-33
5.670000e+02 6.710163e-33
5.680000e+02 8.278285e-33
5.690000e+02 1.020518e-32
5.700000e+02 1.257115e-32
5.710000e+02 1.547411e-32
5.720000e+02 1.903330e-32
5.730000e+02 2.339388e-32
5.740000e+02 2.873239e-32
5.750000e+02 3.526338e-32
5.760000e+02 4.324748e-32
5.770000e+02 5.300099e-32
5.780000e+02 6.490751e-32
5.790000e+02 7.943199e-32
5.800000e+02 9.713753e-32
5.810000e+02 1.187057e-31
5.820000e+02 1.449606e-31
5.830000e+02 1.768987e-31
5.840000e+02 2.157231e-31
5.850000e+02 2.628862e-31
5.860000e+02 3.201397e-31
5.870000e+02 3.895950e-31
5.880000e+02 4.737954e-31
5.890000e+02 5.758025e-31
5.900000e+02 6.992990e-31
5.910000e+02 8.487123e-31
5.920000e+02 1.029361e-30
5.930000e+02 1.247631e-30
5.940000e+02 1.511183e-30
5.950000e+02 1.829205e-30
5.960000e+02 2.212702e-30
5.970000e+02 2.674858e-30
5.980000e+02 3.231445e-30
5.990000e+02 3.901330e-30
6.000000e+02 4.707060e-30
6.010000e+02 5.675571e-30
6.020000e+02 6.839012e-30
6.030000e+02 8.235739e-30
6.040000e+02 9.911482e-30
6.050000e+02 1.192073e-29
6.060000e+02 1.432836e-29
6.070000e+02 1.721159e-29
6.080000e+02 2.066226e-29
6.090000e+02 2.478951e-29
6.100000e+02 2.972303e-29
6.110000e+02 3.561675e-29
6.120000e+02 4.265334e-29
6.130000e+02 5.104939e-29
6.140000e+02 6.106158e-29
6.150000e+02 7.299394e-29
6.160000e+02 8.720637e-29
6.170000e+02 1.041246e-28
6.180000e+02 1.242521e-28
6.190000e+02 1.481837e-28
6.200000e+02 1.766220e-28
6.210000e+02 2.103962e-28
6.220000e+02 2.504845e-28
6.230000e+02 2.980405e-28
6.240000e+02 3.544231e-28
6.250000e+02 4.212331e-28
6.260000e+02 5.003544e-28
6.270000e+02 5.940035e-28
6.280000e+02 7.047864e-28
6.290000e+02 8.357653e-28
6.300000e+02 9.905369e-28
6.310000e+02 1.173323e-27
6.320000e+02 1.389078e-27
6.330000e+02 1.643608e-27
6.340000e+02 1.943722e-27
6.350000e+02 2.297392e-27
6.360000e+02 2.713954e-27
6.370000e+02 3.204330e-27
6.380000e+02 3.781295e-27
6.390000e+02 4.459781e-27
6.400000e+02 5.257233e-27
6.410000e+02 6.194021e-27
6.420000e+02 7.293920e-27
6.430000e+02 8.584662e-27
6.440000e+02 1.009858e-26
6.450000e+02 1.187336e-26
6.460000e+02 1.395289e-26
6.470000e+02 1.638826e-26
6.480000e+02 1.923891e-26
6.490000e+02 2.257399e-26
6.500000e+02 2.647388e-26
6.510000e+02 3.103194e-26
6.520000e+02 3.635663e-26
6.530000e+02 4.257381e-26
6.540000e+02 4.982952e-26
6.550000e+02 5.829309e-26
6.560000e+02 6.816081e-26
6.570000e+02 7.966006e-26
6.580000e+02 9.305413e-26
6.590000e+02 1.086478e-25
6.600000e+02 1.267936e-25
6.610000e+02 1.478991e-25
6.620000e+02 1.724356e-25
6.630000e+02 2.009474e-25
6.640000e+02 2.340629e-25
6.650000e+02 2.725076e-25
6.660000e+02 3.171184e-25
6.670000e+02 3.688604e-25
6.680000e+02 4.288458e-25
6.690000e+02 4.983561e-25
6.700000e+02 5.788671e-25
6.710000e+02 6.720772e-25
6.720000e+02 7.799411e-25
6.730000e+02 9.047059e-25
6.740000e+02 1.048956e-24
6.750000e+02 1.215659e-24
6.760000e+02 1.408224e-24
6.770000e+02 1.630567e-24
6.780000e+02 1.887178e-24
6.790000e+02 2.183210e-24
6.800000e+02 2.524570e-24
6.810000e+02 2.918026e-24
6.820000e+02 3.371334e-24
6.830000e+02 3.893374e-24
6.840000e+02 4.494311e-24
6.850000e+02 5.185771e-24
6.860000e+02 5.981055e-24
6.870000e+02 6.895365e-24
6.880000e+02 7.946072e-24
6.890000e+02 9.153019e-24
6.900000e+02 1.053886e-23
6.910000e+02 1.212945e-23
6.920000e+02 1.395429e-23
6.930000e+02 1.604701e-23
6.940000e+02 1.844595e-23
6.950000e+02 2.119481e-23
6.960000e+02 2.434333e-23
6.970000e+02 2.794817e-23
6.980000e+02 3.207380e-23
6.990000e+02 3.679358e-23
7.000000e+02 4.219090e-23
7.010000e+02 4.836059e-23
7.020000e+02 5.541037e-23
7.030000e+02 6.346262e-23
7.040000e+02 7.265627e-23
7.050000e+02 8.314903e-23
7.060000e+02 9.511981e-23
7.070000e+02 1.087715e-22
7.080000e+02 1.243341e-22
7.090000e+02 1.420684e-22
7.100000e+02 1.622696e-22
7.110000e+02 1.852722e-22
7.120000e+02 2.114547e-22
7.130000e+02 2.412454e-22
7.140000e+02 2.751288e-22
7.150000e+02 3.136528e-22
7.160000e+02 3.574367e-22
7.170000e+02 4.071801e-22
7.180000e+02 4.636733e-22
7.190000e+02 5.278087e-22
7.200000e+02 6.005933e-22
7.210000e+02 6.831633e-22
7.220000e+02 7.768005e-22
7.230000e+02 8.829499e-22
7.240000e+02 1.003240e-21
7.250000e+02 1.139505e-21
7.260000e+02 1.293812e-21
7.270000e+02 1.468488e-21
7.280000e+02 1.666151e-21
7.290000e+02 1.889748e-21
7.300000e+02 2.142592e-21
7.310000e+02 2.428408e-21
7.320000e+02 2.751384e-21
7.330000e+02 3.116225e-21
7.340000e+02 3.528215e-21
7.350000e+02 3.993286e-21
7.360000e+02 4.518099e-21
7.370000e+02 5.110125e-21
7.380000e+02 5.777745e-21
7.390000e+02 6.530357e-21
7.400000e+02 7.378495e-21
7.410000e+02 8.333962e-21
7.420000e+02 9.409982e-21
7.430000e+02 1.062136e-20
7.440000e+02 1.198467e-20
7.450000e+02 1.351847e-20
7.460000e+02 1.524350e-20
7.470000e+02 1.718298e-20
7.480000e+02 1.936285e-20
7.490000e+02 2.181210e-20
7.500000e+02 2.456315e-20
7.510000e+02 2.765218e-20
7.520000e+02 3.111960e-20
7.530000e+02 3.501052e-20
7.540000e+02 3.937527e-20
7.550000e+02 4.427001e-20
7.560000e+02 4.975734e-20
7.570000e+02 5.590709e-20
7.580000e+02 6.279705e-20
7.590000e+02 7.051392e-20
7.600000e+02 7.915426e-20
7.610000e+02 8.882557e-20
7.620000e+02 9.964754e-20
7.630000e+02 1.117533e-19
7.640000e+02 1.252912e-19
7.650000e+02 1.404257e-19
7.660000e+02 1.573403e-19
7.670000e+02 1.762386e-19
7.680000e+02 1.973467e-19
7.690000e+02 2.209160e-19
7.700000e+02 2.472257e-19
7.710000e+02 2.765857e-19
7.720000e+02 3.093399e-19
7.730000e+02 3.458698e-19
7.740000e+02 3.865988e-19
7.750000e+02 4.319962e-19
7.760000e+02 4.825825e-19
7.770000e+02 5.389342e-19
7.780000e+02 6.016904e-19
7.790000e+02 6.715586e-19
7.800000e+02 7.493228e-19
7.810000e+02 8.358503e-19
7.820000e+02 9.321013e-19
7.830000e+02 1.039138e-18
7.840000e+02 1.158136e-18
7.850000e+02 1.290394e-18
7.860000e+02 1.437348e-18
7.870000e+02 1.600586e-18
7.880000e+02 1.781862e-18
7.890000e+02 1.983114e-18
7.900000e+02 2.206480e-18
7.910000e+02 2.454323e-18
7.920000e+02 2.729249e-18
7.930000e+02 3.034134e-18
7.940000e+02 3.372153e-18
7.950000e+02 3.746802e-18
7.960000e+02 4.161941e-18
7.970000e+02 4.621822e-18
7.980000e+02 5.131129e-18
7.990000e+02 5.695025e-18
8.000000e+02 6.319194e-18
8.010000e+02 7.009897e-18
8.020000e+02 7.774023e-18
8.030000e+02 8.619156e-18
8.040000e+02 9.553638e-18
8.050000e+02 1.058665e-17
8.060000e+02 1.172827e-17
8.070000e+02 1.298961e-17
8.080000e+02 1.438286e-17
8.090000e+02 1.592140e-17
8.100000e+02 1.761998e-17
8.110000e+02 1.949474e-17
8.120000e+02 2.156344e-17
8.130000e+02 2.384556e-17
8.140000e+02 2.636249e-17
8.150000e+02 2.913770e-17
8.160000e+02 3.219691e-17
8.170000e+02 3.556835e-17
8.180000e+02 3.928296e-17
8.190000e+02 4.337467e-17
8.200000e+02 4.788064e-17
8.210000e+02 5.284159e-17
8.220000e+02 5.830213e-17
8.230000e+02 6.431111e-17
8.240000e+02 7.092200e-17
8.250000e+02 7.819334e-17
8.260000e+02 8.618916e-17
8.270000e+02 9.497956e-17
8.280000e+02 1.046412e-16
8.290000e+02 1.152578e-16
8.300000e+02 1.269211e-16
8.310000e+02 1.397312e-16
8.320000e+02 1.537976e-16
8.330000e+02 1.692398e-16
8.340000e+02 1.861884e-16
8.350000e+02 2.047861e-16
8.360000e+02 2.251884e-16
8.370000e+02 2.475655e-16
8.380000e+02 2.721028e-16
8.390000e+02 2.990025e-16
8.400000e+02 3.284854e-16
8.410000e+02 3.607922e-16
8.420000e+02 3.961854e-16
8.430000e+02 4.349509e-16
8.440000e+02 4.774005e-16
8.450000e+02 5.238738e-16
8.460000e+02 5.747410e-16
8.470000e+02 6.304049e-16
8.480000e+02 6.913044e-16
8.490000e+02 7.579169e-16
8.500000e+02 8.307626e-16
8.510000e+02 9.104070e-16
8.520000e+02 9.974656e-16
8.530000e+02 1.092608e-15
8.540000e+02 1.196561e-15
8.550000e+02 1.310118e-15
8.560000e+02 1.434137e-15
8.570000e+02 1.569555e-15
8.580000e+02 1.717387e-15
8.590000e+02 1.878735e-15
8.600000e+02 2.054800e-15
8.610000e+02 2.246881e-15
8.620000e+02 2.456393e-15
8.630000e+02 2.684867e-15
8.640000e+02 2.933968e-15
8.650000e+02 3.205502e-15
8.660000e+02 3.501427e-15
8.670000e+02 3.823866e-15
8.680000e+02 4.175123e-15
8.690000e+02 4.557694e-15
8.700000e+02 4.974285e-15
8.710000e+02 5.427828e-15
8.720000e+02 5.921499e-15
8.730000e+02 6.458740e-15
8.740000e+02 7.043278e-15
8.750000e+02 7.679146e-15
8.760000e+02 8.370716e-15
8.770000e+02 9.122712e-15
8.780000e+02 9.940253e-15
8.790000e+02 1.082887e-14
8.800000e+02 1.179456e-14
8.810000e+02 1.284379e-14
8.820000e+02 1.398357e-14
8.830000e+02 1.522146e-14
8.840000e+02 1.656566e-14
8.850000e+02 1.802499e-14
8.860000e+02 1.960902e-14
8.870000e+02 2.132807e-14
8.880000e+02 2.319328e-14
8.890000e+02 2.521669e-14
8.900000e+02 2.741131e-14
8.910000e+02 2.979115e-14
8.920000e+02 3.237137e-14
8.930000e+02 3.516829e-14
8.940000e+02 3.819955e-14
8.950000e+02 4.148415e-14
8.960000e+02 4.504261e-14
8.970000e+02 4.889704e-14
8.980000e+02 5.307126e-14
8.990000e+02 5.759097e-14
9.000000e+02 6.248386e-14
9.010000e+02 6.777975e-14
9.020000e+02 7.351079e-14
9.030000e+02 7.971160e-14
9.040000e+02 8.641944e-14
9.050000e+02 9.367445e-14
9.060000e+02 1.015198e-13
9.070000e+02 1.100021e-13
9.080000e+02 1.191713e-13
9.090000e+02 1.290813e-13
9.100000e+02 1.397900e-13
9.110000e+02 1.513597e-13
9.120000e+02 1.638574e-13
9.130000e+02 1.773551e-13
9.140000e+02 1.992677e-13
9.150000e+02 4.179791e-11
9.160000e+02 2.906972e-10
9.170000e+02 4.327532e-12
9.180000e+02 5.485623e-11
9.190000e+02 8.700955e-10
9.200000e+02 2.563394e-09
9.210000e+02 3.319594e-13
9.220000e+02 1.384470e-09
9.230000e+02 5.111388e-12
9.240000e+02 5.478729e-12
9.250000e+02 1.421404e-10
9.260000e+02 8.480958e-11
9.270000e+02 6.587083e-12
9.280000e+02 1.764121e-08
9.290000e+02 1.711893e-08
9.300000e+02 3.493621e-09
9.310000e+02 1.158622e-11
9.320000e+02 1.372015e-08
9.330000e+02 1.464810e-09
9.340000e+02 2.494005e-10
9.350000e+02 2.220898e-11
9.360000e+02 2.995285e-11
9.370000e+02 4.642661e-12
9.380000e+02 1.926870e-11
9.390000e+02 1.347278e-10
9.400000e+02 1.706188e-08
9.410000e+02 2.015855e-09
9.420000e+02 6.742750e-08
9.430000e+02 2.197673e-10
9.440000e+02 7.712981e-08
9.450000e+02 7.108233e-08
9.460000e+02 5.341986e-09
9.470000e+02 3.130274e-12
9.480000e+02 1.789021e-08
9.490000e+02 1.890544e-09
9.500000e+02 3.900188e-11
9.510000e+02 4.273197e-09
9.520000e+02 1.327819e-08
9.530000e+02 4.359968e-11
9.540000e+02 4.408220e-12
9.550000e+02 4.918377e-10
9.560000e+02 8.441173e-08
9.570000e+02 2.309903e-10
9.580000e+02 5.242473e-12
9.590000e+02 2.290100e-08
9.600000e+02 8.542811e-11
9.610000e+02 1.010852e-08
9.620000e+02 2.838170e-09
9.630000e+02 1.930189e-10
9.640000e+02 6.404965e-11
9.650000e+02 1.255884e-11
9.660000e+02 5.184972e-10
9.670000e+02 6.778222e-11
9.680000e+02 4.803979e-11
9.690000e+02 3.058116e-09
9.700000e+02 9.976802e-09
9.710000e+02 1.346603e-10
9.720000e+02 3.745337e-11
9.730000e+02 4.482942e-10
9.740000e+02 6.080586e-09
9.750000e+02 1.418964e-09
9.760000e+02 1.135785e-07
9.770000e+02 4.893318e-08
9.780000e+02 1.949020e-08
9.790000e+02 5.282703e-07
9.800000e+02 4.221438e-07
9.810000e+02 8.051359e-09
9.820000e+02 1.129735e-09
9.830000e+02 4.142873e-07
9.840000e+02 1.253891e-08
9.850000e+02 2.847730e-09
9.860000e+02 5.301791e-09
9.870000e+02 3.374838e-07
9.880000e+02 5.825029e-11
9.890000e+02 7.036876e-08
9.900000e+02 2.984555e-07
9.910000e+02 1.568090e-09
9.920000e+02 5.477219e-11
9.930000e+02 1.087091e-06
9.940000e+02 9.567280e-11
9.950000e+02 2.724499e-08
9.960000e+02 2.602150e-10
9.970000e+02 9.263682e-08
9.980000e+02 3.406158e-07
9.990000e+02 2.319410e-09
1.000000e+03 2.206033e-06
1.001000e+03 1.717739e-06
1.002000e+03 1.362186e-06
1.003000e+03 2.115712e-09
1.004000e+03 1.313083e-10
1.005000e+03 1.165222e-08
1.006000e+03 1.082373e-06
1.007000e+03 1.904470e-06
1.008000e+03 6.192983e-07
1.009000e+03 3.329535e-09
1.010000e+03 5.068049e-07
1.011000e+03 4.571256e-07
1.012000e+03 9.304326e-07
1.013000e+03 9.443398e-07
1.014000e+03 2.293348e-10
1.015000e+03 2.853540e-10
1.016000e+03 1.882358e-08
1.017000e+03 2.771685e-10
1.018000e+03 3.194060e-09
1.019000e+03 3.278728e-10
1.020000e+03 1.105566e-06
1.021000e+03 1.161425e-08
1.022000e+03 1.570584e-08
1.023000e+03 6.469350e-10
1.024000e+03 1.196015e-07
1.025000e+03 4.576672e-10
1.026000e+03 6.617535e-10
1.027000e+03 3.641082e-08
1.028000e+03 3.553794e-09
1.029000e+03 5.863967e-10
1.030000e+03 5.575521e-08
1.031000e+03 2.677054e-07
1.032000e+03 4.402680e-06
1.033000e+03 3.255468e-08
1.034000e+03 2.679279e-07
1.035000e+03 2.768957e-09
1.036000e+03 9.016503e-10
1.037000e+03 3.344634e-06
1.038000e+03 2.440380e-05
1.039000e+03 4.543977e-06
1.040000e+03 1.868044e-06
1.041000e+03 1.850456e-05
1.042000e+03 1.712770e-05
1.043000e+03 2.082658e-05
1.044000e+03 7.575256e-05
1.045000e+03 2.322956e-09
1.046000e+03 2.218549e-06
1.047000e+03 1.277196e-06
1.048000e+03 9.519226e-09
1.049000e+03 8.590362e-07
1.050000e+03 1.259555e-07
1.051000e+03 6.546907e-08
1.052000e+03 2.781512e-05
1.053000e+03 3.817261e-05
1.054000e+03 2.639808e-09
1.055000e+03 4.549825e-05
1.056000e+03 5.709506e-05
1.057000e+03 4.736118e-06
1.058000e+03 5.478437e-08
1.059000e+03 8.251664e-08
1.060000e+03 1.522130e-08
1.061000e+03 1.202845e-05
1.062000e+03 2.925233e-08
1.063000e+03 5.812547e-06
1.064000e+03 6.606570e-09
1.065000e+03 5.000402e-09
1.066000e+03 1.870490e-05
1.067000e+03 6.835347e-08
1.068000e+03 1.483339e-04
1.069000e+03 1.371725e-08
1.070000e+03 8.036004e-07
1.071000e+03 3.002206e-05
1.072000e+03 2.376794e-04
1.073000e+03 7.923518e-09
1.074000e+03 5.580346e-06
1.075000e+03 2.755318e-06
1.076000e+03 2.545091e-04
1.077000e+03 5.116090e-08
1.078000e+03 9.525684e-08
1.079000e+03 5.748385e-07
1.080000e+03 4.937130e-06
1.081000e+03 5.407392e-05
1.082000e+03 2.184891e-05
1.083000e+03 8.842850e-06
1.084000e+03 6.248522e-04
1.085000e+03 1.262990e-06
1.086000e+03 3.091471e-04
1.087000e+03 2.009911e-07
1.088000e+03 6.305929e-04
1.089000e+03 7.335177e-04
1.090000e+03 9.544449e-07
1.091000e+03 1.863926e-06
1.092000e+03 6.317553e-04
1.093000e+03 9.162366e-04
1.094000e+03 1.708100e-05
1.095000e+03 1.150567e-03
1.096000e+03 3.440815e-05
1.097000e+03 3.218055e-04
1.098000e+03 9.437950e-04
1.099000e+03 4.018773e-06
1.100000e+03 4.604044e-08
1.101000e+03 1.310852e-07
1.102000e+03 3.245884e-06
1.103000e+03 1.461537e-03
1.104000e+03 1.245685e-03
1.105000e+03 1.535999e-03
1.106000e+03 2.339575e-05
1.107000e+03 1.050648e-07
1.108000e+03 3.341512e-04
1.109000e+03 1.757871e-06
1.110000e+03 1.405326e-03
1.111000e+03 1.161674e-03
1.112000e+03 1.089823e-04
1.113000e+03 1.202890e-03
1.114000e+03 4.701331e-05
1.115000e+03 1.729652e-06
1.116000e+03 3.655015e-07
1.117000e+03 1.638547e-03
1.118000e+03 3.268200e-06
1.119000e+03 8.852498e-05
1.120000e+03 8.182833e-07
1.121000e+03 8.975339e-04
1.122000e+03 4.669056e-03
1.123000e+03 2.623527e-03
1.124000e+03 3.408202e-03
1.125000e+03 1.286899e-03
1.126000e+03 7.445578e-03
1.127000e+03 1.160011e-03
1.128000e+03 3.124822e-03
1.129000e+03 4.297856e-04
1.130000e+03 3.393051e-03
1.131000e+03 2.955041e-03
1.132000e+03 1.563545e-06
1.133000e+03 3.235089e-05
1.134000e+03 7.763335e-04
1.135000e+03 3.220846e-03
1.136000e+03 6.354542e-05
1.137000e+03 2.027337e-03
1.138000e+03 5.068904e-04
1.139000e+03 2.991991e-03
1.140000e+03 2.366282e-03
1.141000e+03 3.055413e-03
1.142000e+03 3.053057e-03
1.143000e+03 4.108388e-04
1.144000e+03 3.087509e-03
1.145000e+03 1.058565e-06
1.146000e+03 3.142141e-03
1.147000e+03 3.035536e-03
1.148000e+03 1.151208e-05
1.149000e+03 2.013499e-03
1.150000e+03 1.726845e-03
1.151000e+03 2.894154e-03
1.152000e+03 1.770975e-03
1.153000e+03 2.867744e-03
1.154000e+03 3.026387e-03
1.155000e+03 1.996642e-03
1.156000e+03 2.136815e-03
1.157000e+03 2.622406e-03
1.158000e+03 5.433813e-04
1.159000e+03 2.665420e-03
1.160000e+03 9.317211e-04
1.161000e+03 2.412170e-03
1.162000e+03 6.464752e-05
1.163000e+03 3.600961e-04
1.164000e+03 5.849171e-06
1.165000e+03 1.143298e-03
1.166000e+03 6.075324e-04
1.167000e+03 4.321104e-04
1.168000e+03 2.781849e-03
1.169000e+03 2.960326e-03
1.170000e+03 3.575265e-04
1.171000e+03 1.256936e-03
1.172000e+03 8.260587e-04
1.173000e+03 8.698233e-04
1.174000e+03 7.507217e-06
1.175000e+03 3.822555e-06
1.176000e+03 1.786073e-06
1.177000e+03 3.834400e-03
1.178000e+03 3.617103e-03
1.179000e+03 3.356162e-03
1.180000e+03 2.387308e-03
1.181000e+03 3.059778e-03
1.182000e+03 2.886224e-03
1.183000e+03 2.078801e-03
1.184000e+03 1.841883e-03
1.185000e+03 1.934973e-03
1.186000e+03 4.459676e-05
1.187000e+03 2.344876e-03
1.188000e+03 1.511528e-03
1.189000e+03 2.345034e-03
1.190000e+03 2.272954e-03
1.191000e+03 2.066268e-03
1.192000e+03 1.930003e-03
1.193000e+03 1.808336e-03
1.194000e+03 1.855031e-03
1.195000e+03 1.765307e-03
1.196000e+03 3.783584e-02
1.197000e+03 4.348657e-02
1.198000e+03 1.779748e-04
1.199000e+03 3.408375e-02
1.200000e+03 9.882981e-04
1.201000e+03 2.398886e-02
1.202000e+03 1.059232e-02
1.203000e+03 1.621789e-02
1.204000e+03 1.258416e-03
1.205000e+03 9.945117e-03
1.206000e+03 7.616910e-03
1.207000e+03 9.969692e-04
1.208000e+03 3.635691e-03
1.209000e+03 2.605043e-03
1.210000e+03 9.864103e-06
1.211000e+03 9.236484e-04
1.212000e+03 4.290996e-04
1.213000e+03 1.916550e-04
1.214000e+03 5.592118e-05
1.215000e+03 1.067077e-05
1.216000e+03 9.546133e-06
1.217000e+03 3.588227e-05
1.218000e+03 1.601695e-04
1.219000e+03 4.468882e-04
1.220000e+03 6.141563e-04
1.221000e+03 2.020515e-03
1.222000e+03 3.405049e-03
1.223000e+03 4.429181e-03
1.224000e+03 7.764028e-03
1.225000e+03 3.855787e-04
1.226000e+03 1.840261e-02
1.227000e+03 2.608447e-02
1.228000e+03 5.618921e-03
1.229000e+03 4.141929e-02
1.230000e+03 3.516693e-02
1.231000e+03 2.364889e-03
1.232000e+03 8.456939e-02
1.233000e+03 1.031944e-01
1.234000e+03 1.123893e-01
1.235000e+03 1.286986e-01
1.236000e+03 1.249494e-02
1.237000e+03 1.802338e-01
1.238000e+03 1.937289e-01
1.239000e+03 9.412909e-02
1.240000e+03 6.271350e-02
1.241000e+03 1.334954e-01
1.242000e+03 2.444097e-01
1.243000e+03 3.211983e-01
1.244000e+03 3.518885e-01
1.245000e+03 3.658772e-01
1.246000e+03 2.584523e-01
1.247000e+03 3.471607e-01
1.248000e+03 3.375467e-01
1.249000e+03 4.901372e-01
1.250000e+03 3.157532e-01
1.251000e+03 5.248666e-01
1.252000e+03 4.562742e-01
1.253000e+03 5.628276e-01
1.254000e+03 4.856701e-01
1.255000e+03 8.421222e-02
1.256000e+03 3.412056e-01
1.257000e+03 2.580771e-01
1.258000e+03 2.504291e-01
1.259000e+03 3.547482e-01
1.260000e+03 6.222949e-01
1.261000e+03 6.260991e-03
1.262000e+03 6.450036e-01
1.263000e+03 5.870772e-01
1.264000e+03 2.996482e-01
1.265000e+03 4.721034e-01
1.266000e+03 7.952461e-01
1.267000e+03 5.660837e-01
