# wavelength_A flux
5.000000e+02 1.262064e-38
5.010000e+02 1.646115e-38
5.020000e+02 2.144721e-38
5.030000e+02 2.791360e-38
5.040000e+02 3.629095e-38
5.050000e+02 4.714160e-38
5.060000e+02 6.115980e-38
5.070000e+02 7.926325e-38
5.080000e+02 1.026191e-37
5.090000e+02 1.327194e-37
5.100000e+02 1.714463e-37
5.110000e+02 2.213150e-37
5.120000e+02 2.853546e-37
5.130000e+02 3.675557e-37
5.140000e+02 4.729597e-37
5.150000e+02 6.079835e-37
5.160000e+02 7.807799e-37
5.170000e+02 1.001699e-36
5.180000e+02 1.283868e-36
5.190000e+02 1.643917e-36
5.200000e+02 2.102899e-36
5.210000e+02 2.687440e-36
5.220000e+02 3.431171e-36
5.230000e+02 4.376566e-36
5.240000e+02 5.577157e-36
5.250000e+02 7.100409e-36
5.260000e+02 9.031240e-36
5.270000e+02 1.147644e-35
5.280000e+02 1.457018e-35
5.290000e+02 1.848090e-35
5.300000e+02 2.341985e-35
5.310000e+02 2.965172e-35
5.320000e+02 3.750791e-35
5.330000e+02 4.740294e-35
5.340000e+02 5.985483e-35
5.350000e+02 7.551043e-35
5.360000e+02 9.517670e-35
5.370000e+02 1.198555e-34
5.380000e+02 1.508115e-34
5.390000e+02 1.895915e-34
5.400000e+02 2.381375e-34
5.410000e+02 2.988569e-34
5.420000e+02 3.747378e-34
5.430000e+02 4.694857e-34
5.440000e+02 5.876923e-34
5.450000e+02 7.350425e-34
5.460000e+02 9.185689e-34
5.470000e+02 1.146964e-33
5.480000e+02 1.430964e-33
5.490000e+02 1.783818e-33
5.500000e+02 2.221861e-33
5.510000e+02 2.765223e-33
5.520000e+02 3.438681e-33
5.530000e+02 4.272718e-33
5.540000e+02 5.304801e-33
5.550000e+02 6.580945e-33
5.560000e+02 8.157622e-33
5.570000e+02 1.010409e-32
5.580000e+02 1.250519e-32
5.590000e+02 1.546484e-32
5.600000e+02 1.911016e-32
5.610000e+02 2.359655e-32
5.620000e+02 2.911386e-32
5.630000e+02 3.589386e-32
5.640000e+02 4.421924e-32
5.650000e+02 5.443458e-32
5.660000e+02 6.695958e-32
5.670000e+02 8.230508e-32
5.680000e+02 1.010923e-31
5.690000e+02 1.240764e-31
5.700000e+02 1.521744e-31
5.710000e+02 1.864990e-31
5.720000e+02 2.283999e-31
5.730000e+02 2.795128e-31
5.740000e+02 3.418181e-31
5.750000e+02 4.177130e-31
5.760000e+02 5.100961e-31
5.770000e+02 6.224704e-31
5.780000e+02 7.590663e-31
5.790000e+02 9.249890e-31
5.800000e+02 1.126396e-30
5.810000e+02 1.370706e-30
5.820000e+02 1.666857e-30
5.830000e+02 2.025604e-30
5.840000e+02 2.459883e-30
5.850000e+02 2.985243e-30
5.860000e+02 3.620358e-30
5.870000e+02 4.387647e-30
5.880000e+02 5.314001e-30
5.890000e+02 6.431657e-30
5.900000e+02 7.779233e-30
5.910000e+02 9.402966e-30
5.920000e+02 1.135818e-29
5.930000e+02 1.371101e-29
5.940000e+02 1.654051e-29
5.950000e+02 1.994107e-29
5.960000e+02 2.402532e-29
5.970000e+02 2.892763e-29
5.980000e+02 3.480813e-29
5.990000e+02 4.185758e-29
6.000000e+02 5.030307e-29
6.010000e+02 6.041479e-29
6.020000e+02 7.251398e-29
6.030000e+02 8.698239e-29
6.040000e+02 1.042733e-28
6.050000e+02 1.249249e-28
6.060000e+02 1.495753e-28
6.070000e+02 1.789811e-28
6.080000e+02 2.140385e-28
6.090000e+02 2.558091e-28
6.100000e+02 3.055485e-28
6.110000e+02 3.647422e-28
6.120000e+02 4.351457e-28
6.130000e+02 5.188330e-28
6.140000e+02 6.182524e-28
6.150000e+02 7.362930e-28
6.160000e+02 8.763618e-28
6.170000e+02 1.042474e-27
6.180000e+02 1.239360e-27
6.190000e+02 1.472588e-27
6.200000e+02 1.748711e-27
6.210000e+02 2.075432e-27
6.220000e+02 2.461809e-27
6.230000e+02 2.918478e-27
6.240000e+02 3.457929e-27
6.250000e+02 4.094817e-27
6.260000e+02 4.846328e-27
6.270000e+02 5.732607e-27
6.280000e+02 6.777253e-27
6.290000e+02 8.007898e-27
6.300000e+02 9.456880e-27
6.310000e+02 1.116202e-26
6.320000e+02 1.316754e-26
6.330000e+02 1.552508e-26
6.340000e+02 1.829500e-26
6.350000e+02 2.154770e-26
6.360000e+02 2.536533e-26
6.370000e+02 2.984368e-26
6.380000e+02 3.509438e-26
6.390000e+02 4.124745e-26
6.400000e+02 4.845427e-26
6.410000e+02 5.689100e-26
6.420000e+02 6.676249e-26
6.430000e+02 7.830692e-26
6.440000e+02 9.180101e-26
6.450000e+02 1.075661e-25
6.460000e+02 1.259752e-25
6.470000e+02 1.474611e-25
6.480000e+02 1.725256e-25
6.490000e+02 2.017504e-25
6.500000e+02 2.358093e-25
6.510000e+02 2.754826e-25
6.520000e+02 3.216734e-25
6.530000e+02 3.754265e-25
6.540000e+02 4.379498e-25
6.550000e+02 5.106396e-25
6.560000e+02 5.951086e-25
6.570000e+02 6.932191e-25
6.580000e+02 8.071204e-25
6.590000e+02 9.392920e-25
6.600000e+02 1.092593e-24
6.610000e+02 1.270318e-24
6.620000e+02 1.476263e-24
6.630000e+02 1.714800e-24
6.640000e+02 1.990959e-24
6.650000e+02 2.310527e-24
6.660000e+02 2.680160e-24
6.670000e+02 3.107509e-24
6.680000e+02 3.601361e-24
6.690000e+02 4.171812e-24
6.700000e+02 4.830447e-24
6.710000e+02 5.590559e-24
6.720000e+02 6.467396e-24
6.730000e+02 7.478438e-24
6.740000e+02 8.643713e-24
6.750000e+02 9.986163e-24
6.760000e+02 1.153206e-23
6.770000e+02 1.331145e-23
6.780000e+02 1.535874e-23
6.790000e+02 1.771324e-23
6.800000e+02 2.041989e-23
6.810000e+02 2.353005e-23
6.820000e+02 2.710235e-23
6.830000e+02 3.120375e-23
6.840000e+02 3.591063e-23
6.850000e+02 4.131012e-23
6.860000e+02 4.750156e-23
6.870000e+02 5.459818e-23
6.880000e+02 6.272896e-23
6.890000e+02 7.204077e-23
6.900000e+02 8.270083e-23
6.910000e+02 9.489937e-23
6.920000e+02 1.088528e-22
6.930000e+02 1.248071e-22
6.940000e+02 1.430420e-22
6.950000e+02 1.638749e-22
6.960000e+02 1.876668e-22
6.970000e+02 2.148271e-22
6.980000e+02 2.458204e-22
6.990000e+02 2.811739e-22
7.000000e+02 3.214851e-22
7.010000e+02 3.674313e-22
7.020000e+02 4.197801e-22
7.030000e+02 4.794006e-22
7.040000e+02 5.472768e-22
7.050000e+02 6.245224e-22
7.060000e+02 7.123971e-22
7.070000e+02 8.123257e-22
7.080000e+02 9.259188e-22
7.090000e+02 1.054996e-21
7.100000e+02 1.201614e-21
7.110000e+02 1.368093e-21
7.120000e+02 1.557055e-21
7.130000e+02 1.771455e-21
7.140000e+02 2.014630e-21
7.150000e+02 2.290340e-21
7.160000e+02 2.602823e-21
7.170000e+02 2.956856e-21
7.180000e+02 3.357819e-21
7.190000e+02 3.811769e-21
7.200000e+02 4.325523e-21
7.210000e+02 4.906753e-21
7.220000e+02 5.564088e-21
7.230000e+02 6.307228e-21
7.240000e+02 7.147077e-21
7.250000e+02 8.095890e-21
7.260000e+02 9.167425e-21
7.270000e+02 1.037714e-20
7.280000e+02 1.174237e-20
7.290000e+02 1.328259e-20
7.300000e+02 1.501961e-20
7.310000e+02 1.697793e-20
7.320000e+02 1.918498e-20
7.330000e+02 2.167150e-20
7.340000e+02 2.447194e-20
7.350000e+02 2.762487e-20
7.360000e+02 3.117346e-20
7.370000e+02 3.516602e-20
7.380000e+02 3.965663e-20
7.390000e+02 4.470571e-20
7.400000e+02 5.038086e-20
7.410000e+02 5.675762e-20
7.420000e+02 6.392037e-20
7.430000e+02 7.196337e-20
7.440000e+02 8.099186e-20
7.450000e+02 9.112334e-20
7.460000e+02 1.024889e-19
7.470000e+02 1.152347e-19
7.480000e+02 1.295238e-19
7.490000e+02 1.455381e-19
7.500000e+02 1.634801e-19
7.510000e+02 1.835756e-19
7.520000e+02 2.060758e-19
7.530000e+02 2.312608e-19
7.540000e+02 2.594419e-19
7.550000e+02 2.909661e-19
7.560000e+02 3.262188e-19
7.570000e+02 3.656290e-19
7.580000e+02 4.096734e-19
7.590000e+02 4.588819e-19
7.600000e+02 5.138434e-19
7.610000e+02 5.752116e-19
7.620000e+02 6.437129e-19
7.630000e+02 7.201534e-19
7.640000e+02 8.054275e-19
7.650000e+02 9.005278e-19
7.660000e+02 1.006555e-18
7.670000e+02 1.124730e-18
7.680000e+02 1.256405e-18
7.690000e+02 1.403080e-18
7.700000e+02 1.566415e-18
7.710000e+02 1.748250e-18
7.720000e+02 1.950622e-18
7.730000e+02 2.175785e-18
7.740000e+02 2.426234e-18
7.750000e+02 2.704728e-18
7.760000e+02 3.014319e-18
7.770000e+02 3.358382e-18
7.780000e+02 3.740647e-18
7.790000e+02 4.165236e-18
7.800000e+02 4.636702e-18
7.810000e+02 5.160074e-18
7.820000e+02 5.740905e-18
7.830000e+02 6.385323e-18
7.840000e+02 7.100092e-18
7.850000e+02 7.892675e-18
7.860000e+02 8.771299e-18
7.870000e+02 9.745040e-18
7.880000e+02 1.082390e-17
7.890000e+02 1.201891e-17
7.900000e+02 1.334220e-17
7.910000e+02 1.480716e-17
7.920000e+02 1.642852e-17
7.930000e+02 1.822249e-17
7.940000e+02 2.020692e-17
7.950000e+02 2.240146e-17
7.960000e+02 2.482770e-17
7.970000e+02 2.750940e-17
7.980000e+02 3.047269e-17
7.990000e+02 3.374627e-17
8.000000e+02 3.736170e-17
8.010000e+02 4.135363e-17
8.020000e+02 4.576015e-17
8.030000e+02 5.062305e-17
8.040000e+02 5.598822e-17
8.050000e+02 6.190604e-17
8.060000e+02 6.843176e-17
8.070000e+02 7.562602e-17
8.080000e+02 8.355529e-17
8.090000e+02 9.229248e-17
8.100000e+02 1.019175e-16
8.110000e+02 1.125179e-16
8.120000e+02 1.241896e-16
8.130000e+02 1.370377e-16
8.140000e+02 1.511774e-16
8.150000e+02 1.667345e-16
8.160000e+02 1.838471e-16
8.170000e+02 2.026659e-16
8.180000e+02 2.233562e-16
8.190000e+02 2.460985e-16
8.200000e+02 2.710904e-16
8.210000e+02 2.985476e-16
8.220000e+02 3.287062e-16
8.230000e+02 3.618240e-16
8.240000e+02 3.981829e-16
8.250000e+02 4.380904e-16
8.260000e+02 4.818825e-16
8.270000e+02 5.299263e-16
8.280000e+02 5.826220e-16
8.290000e+02 6.404066e-16
8.300000e+02 7.037568e-16
8.310000e+02 7.731926e-16
8.320000e+02 8.492809e-16
8.330000e+02 9.326400e-16
8.340000e+02 1.023944e-15
8.350000e+02 1.123926e-15
8.360000e+02 1.233388e-15
8.370000e+02 1.353200e-15
8.380000e+02 1.484312e-15
8.390000e+02 1.627756e-15
8.400000e+02 1.784659e-15
8.410000e+02 1.956244e-15
8.420000e+02 2.143843e-15
8.430000e+02 2.348905e-15
8.440000e+02 2.573007e-15
8.450000e+02 2.817861e-15
8.460000e+02 3.085333e-15
8.470000e+02 3.377446e-15
8.480000e+02 3.696401e-15
8.490000e+02 4.044589e-15
8.500000e+02 4.424607e-15
8.510000e+02 4.839276e-15
8.520000e+02 5.291658e-15
8.530000e+02 5.785077e-15
8.540000e+02 6.323141e-15
8.550000e+02 6.909765e-15
8.560000e+02 7.549196e-15
8.570000e+02 8.246039e-15
8.580000e+02 9.005293e-15
8.590000e+02 9.832370e-15
8.600000e+02 1.073314e-14
8.610000e+02 1.171398e-14
8.620000e+02 1.278176e-14
8.630000e+02 1.394396e-14
8.640000e+02 1.520867e-14
8.650000e+02 1.658466e-14
8.660000e+02 1.808139e-14
8.670000e+02 1.970914e-14
8.680000e+02 2.147902e-14
8.690000e+02 2.340304e-14
8.700000e+02 2.549422e-14
8.710000e+02 2.776661e-14
8.720000e+02 3.023543e-14
8.730000e+02 3.291712e-14
8.740000e+02 3.582945e-14
8.750000e+02 3.899164e-14
8.760000e+02 4.242445e-14
8.770000e+02 4.615030e-14
8.780000e+02 5.019341e-14
8.790000e+02 5.457994e-14
8.800000e+02 5.933814e-14
8.810000e+02 6.449850e-14
8.820000e+02 7.009392e-14
8.830000e+02 7.615992e-14
8.840000e+02 8.273481e-14
8.850000e+02 8.985992e-14
8.860000e+02 9.757982e-14
8.870000e+02 1.059426e-13
8.880000e+02 1.150000e-13
8.890000e+02 1.248080e-13
8.900000e+02 1.354266e-13
8.910000e+02 1.469209e-13
8.920000e+02 1.593606e-13
8.930000e+02 1.728210e-13
8.940000e+02 1.873832e-13
8.950000e+02 2.031345e-13
8.960000e+02 2.201687e-13
8.970000e+02 2.385871e-13
8.980000e+02 2.584983e-13
8.990000e+02 2.800196e-13
9.000000e+02 3.032769e-13
9.010000e+02 3.284057e-13
9.020000e+02 3.555516e-13
9.030000e+02 3.848713e-13
9.040000e+02 4.165332e-13
9.050000e+02 4.507183e-13
9.060000e+02 4.876211e-13
9.070000e+02 5.274505e-13
9.080000e+02 5.704312e-13
9.090000e+02 6.168042e-13
9.100000e+02 6.668286e-13
9.110000e+02 7.207822e-13
9.120000e+02 7.789637e-13
9.130000e+02 8.416934e-13
9.140000e+02 9.274387e-13
9.150000e+02 2.446733e-10
9.160000e+02 1.796889e-09
9.170000e+02 1.613360e-10
9.180000e+02 3.209621e-10
9.190000e+02 5.328233e-09
9.200000e+02 1.595208e-08
9.210000e+02 1.554265e-12
9.220000e+02 1.776130e-08
9.230000e+02 8.972497e-11
9.240000e+02 2.884555e-10
9.250000e+02 5.015831e-09
9.260000e+02 4.949230e-10
9.270000e+02 2.940153e-10
9.280000e+02 1.117391e-07
9.290000e+02 1.060360e-07
9.300000e+02 2.108607e-08
9.310000e+02 2.164644e-10
9.320000e+02 8.373552e-08
9.330000e+02 4.961652e-08
9.340000e+02 1.231938e-08
9.350000e+02 1.803682e-10
9.360000e+02 1.314773e-09
9.370000e+02 5.514567e-11
9.380000e+02 1.137188e-10
9.390000e+02 4.397363e-09
9.400000e+02 2.022893e-07
9.410000e+02 1.074309e-08
9.420000e+02 4.059189e-07
9.430000e+02 8.732769e-09
9.440000e+02 4.667568e-07
9.450000e+02 4.565620e-07
9.460000e+02 1.508044e-07
9.470000e+02 8.871837e-11
9.480000e+02 1.302736e-07
9.490000e+02 1.106866e-08
9.500000e+02 1.393825e-10
9.510000e+02 5.266219e-08
9.520000e+02 1.993329e-07
9.530000e+02 1.569688e-09
9.540000e+02 9.721945e-11
9.550000e+02 1.989594e-08
9.560000e+02 7.234232e-07
9.570000e+02 6.648548e-09
9.580000e+02 3.754508e-11
9.590000e+02 6.769544e-07
9.600000e+02 4.255796e-10
9.610000e+02 3.338369e-07
9.620000e+02 1.146367e-07
9.630000e+02 8.446250e-09
9.640000e+02 1.949012e-09
9.650000e+02 3.583409e-10
9.660000e+02 2.291483e-08
9.670000e+02 2.751278e-09
9.680000e+02 1.863100e-09
9.690000e+02 1.316537e-07
9.700000e+02 1.983393e-07
9.710000e+02 4.376009e-09
9.720000e+02 8.504406e-10
9.730000e+02 2.301288e-09
9.740000e+02 8.205415e-08
9.750000e+02 4.986204e-08
9.760000e+02 1.119426e-06
9.770000e+02 9.995380e-07
9.780000e+02 5.416086e-07
9.790000e+02 3.173375e-06
9.800000e+02 3.392072e-06
9.810000e+02 3.206248e-07
9.820000e+02 4.333924e-08
9.830000e+02 4.020700e-06
9.840000e+02 8.162345e-08
9.850000e+02 1.186959e-07
9.860000e+02 1.786403e-07
9.870000e+02 4.689314e-06
9.880000e+02 1.368790e-09
9.890000e+02 1.989931e-06
9.900000e+02 3.313436e-06
9.910000e+02 4.902591e-08
9.920000e+02 3.212328e-10
9.930000e+02 6.560022e-06
9.940000e+02 3.988703e-10
9.950000e+02 2.462149e-07
9.960000e+02 7.464678e-09
9.970000e+02 7.863768e-08
9.980000e+02 5.640438e-06
9.990000e+02 7.474920e-08
1.000000e+03 1.236830e-05
1.001000e+03 1.064558e-05
1.002000e+03 1.251664e-05
1.003000e+03 7.508083e-08
1.004000e+03 2.125489e-09
1.005000e+03 4.081030e-07
1.006000e+03 1.286928e-05
1.007000e+03 1.582723e-05
1.008000e+03 1.046564e-05
1.009000e+03 1.013123e-07
1.010000e+03 1.014571e-05
1.011000e+03 1.080641e-05
1.012000e+03 1.319025e-05
1.013000e+03 1.325492e-05
1.014000e+03 1.323315e-09
1.015000e+03 4.848516e-09
1.016000e+03 4.876310e-07
1.017000e+03 1.227818e-09
1.018000e+03 1.104518e-07
1.019000e+03 4.118192e-09
1.020000e+03 1.091718e-05
1.021000e+03 2.340430e-07
1.022000e+03 3.762971e-07
1.023000e+03 1.492458e-08
1.024000e+03 6.047381e-07
1.025000e+03 1.873044e-09
1.026000e+03 2.760860e-09
1.027000e+03 2.517383e-07
1.028000e+03 1.738249e-08
1.029000e+03 2.718480e-09
1.030000e+03 1.838656e-06
1.031000e+03 6.427459e-06
1.032000e+03 3.495673e-05
1.033000e+03 2.260385e-07
1.034000e+03 7.650905e-06
1.035000e+03 1.025910e-08
1.036000e+03 5.471520e-09
1.037000e+03 8.000794e-05
1.038000e+03 2.072319e-04
1.039000e+03 1.022343e-04
1.040000e+03 7.488020e-05
1.041000e+03 2.453116e-04
1.042000e+03 2.391900e-04
1.043000e+03 1.721852e-04
1.044000e+03 4.015868e-04
1.045000e+03 1.236543e-08
1.046000e+03 8.082372e-05
1.047000e+03 3.350418e-05
1.048000e+03 2.536981e-07
1.049000e+03 2.914899e-05
1.050000e+03 4.252055e-06
1.051000e+03 1.861219e-06
1.052000e+03 3.863705e-04
1.053000e+03 5.016670e-04
1.054000e+03 1.250010e-08
1.055000e+03 5.091091e-04
1.056000e+03 5.963672e-04
1.057000e+03 1.067582e-04
1.058000e+03 1.863228e-06
1.059000e+03 1.260138e-06
1.060000e+03 3.576570e-07
1.061000e+03 2.674968e-04
1.062000e+03 9.153273e-07
1.063000e+03 1.170217e-05
1.064000e+03 2.933666e-08
1.065000e+03 2.235174e-08
1.066000e+03 2.963399e-04
1.067000e+03 1.722101e-06
1.068000e+03 1.186944e-03
1.069000e+03 3.074609e-07
1.070000e+03 2.990151e-05
1.071000e+03 7.233601e-04
1.072000e+03 1.456042e-03
1.073000e+03 5.261973e-08
1.074000e+03 1.483664e-04
1.075000e+03 7.584447e-05
1.076000e+03 1.261690e-03
1.077000e+03 6.874325e-07
1.078000e+03 2.842164e-06
1.079000e+03 1.973171e-05
1.080000e+03 1.241086e-04
1.081000e+03 9.830832e-04
1.082000e+03 5.173518e-04
1.083000e+03 2.447093e-04
1.084000e+03 2.623944e-03
1.085000e+03 3.377604e-05
1.086000e+03 2.523164e-03
1.087000e+03 4.698988e-06
1.088000e+03 3.090348e-03
1.089000e+03 3.249899e-03
1.090000e+03 2.591691e-05
1.091000e+03 4.880200e-05
1.092000e+03 3.432284e-03
1.093000e+03 3.801286e-03
1.094000e+03 4.941233e-04
1.095000e+03 4.289594e-03
1.096000e+03 9.310781e-05
1.097000e+03 3.106004e-03
1.098000e+03 4.343554e-03
1.099000e+03 1.064711e-04
1.100000e+03 8.017341e-07
1.101000e+03 2.909389e-06
1.102000e+03 8.219233e-05
1.103000e+03 5.746453e-03
1.104000e+03 5.896773e-03
1.105000e+03 6.211862e-03
1.106000e+03 5.839284e-04
1.107000e+03 2.093613e-06
1.108000e+03 4.216233e-03
1.109000e+03 4.001893e-05
1.110000e+03 7.557868e-03
1.111000e+03 6.455603e-03
1.112000e+03 2.241484e-03
1.113000e+03 5.258019e-03
1.114000e+03 1.057853e-03
1.115000e+03 3.944658e-05
1.116000e+03 9.696740e-06
1.117000e+03 8.854684e-03
1.118000e+03 7.296167e-05
1.119000e+03 2.227792e-03
1.120000e+03 1.956243e-05
1.121000e+03 8.279252e-03
1.122000e+03 1.371059e-02
1.123000e+03 1.459481e-02
1.124000e+03 1.792973e-02
1.125000e+03 1.179560e-02
1.126000e+03 1.830863e-02
1.127000e+03 1.157276e-02
1.128000e+03 1.115748e-02
1.129000e+03 6.124280e-03
1.130000e+03 1.320627e-02
1.131000e+03 1.039774e-02
1.132000e+03 3.515463e-05
1.133000e+03 6.305808e-04
1.134000e+03 7.578043e-03
1.135000e+03 9.578921e-03
1.136000e+03 1.200499e-03
1.137000e+03 9.243958e-03
1.138000e+03 5.747051e-03
1.139000e+03 1.119170e-02
1.140000e+03 1.051374e-02
1.141000e+03 1.083732e-02
1.142000e+03 1.096123e-02
1.143000e+03 5.466705e-03
1.144000e+03 1.076618e-02
1.145000e+03 2.014264e-05
1.146000e+03 1.148691e-02
1.147000e+03 1.151360e-02
1.148000e+03 2.419073e-04
1.149000e+03 1.039395e-02
1.150000e+03 9.880825e-03
1.151000e+03 1.114823e-02
1.152000e+03 1.000978e-02
1.153000e+03 1.080507e-02
1.154000e+03 1.072767e-02
1.155000e+03 9.711715e-03
1.156000e+03 8.014101e-03
1.157000e+03 9.825734e-03
1.158000e+03 6.080936e-03
1.159000e+03 1.016418e-02
1.160000e+03 7.377246e-03
1.161000e+03 9.373807e-03
1.162000e+03 1.092564e-03
1.163000e+03 3.856418e-03
1.164000e+03 2.124766e-05
1.165000e+03 5.277786e-03
1.166000e+03 2.811369e-03
1.167000e+03 1.883409e-03
1.168000e+03 1.069255e-02
1.169000e+03 1.094609e-02
1.170000e+03 1.902059e-03
1.171000e+03 4.999667e-03
1.172000e+03 3.880512e-03
1.173000e+03 3.465883e-03
1.174000e+03 1.431410e-04
1.175000e+03 1.743343e-05
1.176000e+03 6.565824e-06
1.177000e+03 1.410460e-02
1.178000e+03 1.334599e-02
1.179000e+03 1.264940e-02
1.180000e+03 1.101095e-02
1.181000e+03 1.150233e-02
1.182000e+03 1.114077e-02
1.183000e+03 9.943566e-03
1.184000e+03 9.439147e-03
1.185000e+03 9.315756e-03
1.186000e+03 8.149685e-04
1.187000e+03 9.285613e-03
1.188000e+03 8.057014e-03
1.189000e+03 8.976015e-03
1.190000e+03 8.740500e-03
1.191000e+03 8.211763e-03
1.192000e+03 7.489750e-03
1.193000e+03 7.363621e-03
1.194000e+03 7.205262e-03
1.195000e+03 6.893119e-03
1.196000e+03 1.154948e-01
1.197000e+03 1.122553e-01
1.198000e+03 3.800772e-03
1.199000e+03 9.488444e-02
1.200000e+03 1.586396e-02
1.201000e+03 7.469147e-02
1.202000e+03 5.496412e-02
1.203000e+03 5.465012e-02
1.204000e+03 1.504957e-02
1.205000e+03 3.596963e-02
1.206000e+03 2.801953e-02
1.207000e+03 3.683088e-03
1.208000e+03 1.324339e-02
1.209000e+03 9.737665e-03
1.210000e+03 3.677513e-05
1.211000e+03 3.491869e-03
1.212000e+03 1.701197e-03
1.213000e+03 7.088841e-04
1.214000e+03 1.985143e-04
1.215000e+03 3.459538e-05
1.216000e+03 3.074196e-05
1.217000e+03 1.237754e-04
1.218000e+03 5.834627e-04
1.219000e+03 1.671506e-03
1.220000e+03 3.349138e-03
1.221000e+03 7.464202e-03
1.222000e+03 1.317316e-02
1.223000e+03 2.012104e-02
1.224000e+03 2.895202e-02
1.225000e+03 5.967580e-03
1.226000e+03 6.301071e-02
1.227000e+03 8.629412e-02
1.228000e+03 5.695282e-02
1.229000e+03 1.375733e-01
1.230000e+03 1.273308e-01
1.231000e+03 3.663068e-02
1.232000e+03 2.358599e-01
1.233000e+03 2.753522e-01
1.234000e+03 2.596114e-01
1.235000e+03 3.484659e-01
1.236000e+03 1.504912e-01
1.237000e+03 4.308723e-01
1.238000e+03 4.703670e-01
1.239000e+03 4.395134e-01
1.240000e+03 8.966345e-02
1.241000e+03 4.843349e-01
1.242000e+03 6.213292e-01
1.243000e+03 6.736906e-01
1.244000e+03 7.180968e-01
1.245000e+03 7.513207e-01
1.246000e+03 7.430897e-01
1.247000e+03 8.063598e-01
1.248000e+03 6.582968e-01
1.249000e+03 9.150384e-01
1.250000e+03 7.410735e-01
1.251000e+03 9.965878e-01
1.252000e+03 9.760765e-01
1.253000e+03 1.053659e+00
1.254000e+03 1.036172e+00
1.255000e+03 2.494922e-01
1.256000e+03 9.034396e-01
1.257000e+03 6.502909e-01
1.258000e+03 9.880801e-01
1.259000e+03 1.082633e+00
1.260000e+03 1.225837e+00
1.261000e+03 2.319181e-02
1.262000e+03 1.274194e+00
1.263000e+03 1.214801e+00
1.264000e+03 1.106887e+00
1.265000e+03 8.661241e-01
1.266000e+03 1.526478e+00
1.267000e+03 1.542695e+00
