# wavelength_A flux
5.000000e+02 2.468769e-07
5.010000e+02 2.788293e-07
5.020000e+02 3.147584e-07
5.030000e+02 3.551393e-07
5.040000e+02 4.005012e-07
5.050000e+02 4.578450e-07
5.060000e+02 5.157525e-07
5.070000e+02 5.807008e-07
5.080000e+02 6.535110e-07
5.090000e+02 7.351001e-07
5.100000e+02 8.264747e-07
5.110000e+02 9.287652e-07
5.120000e+02 1.043222e-06
5.130000e+02 1.171232e-06
5.140000e+02 1.314335e-06
5.150000e+02 1.474229e-06
5.160000e+02 1.652828e-06
5.170000e+02 1.852157e-06
5.180000e+02 2.074678e-06
5.190000e+02 2.322821e-06
5.200000e+02 2.599468e-06
5.210000e+02 2.907754e-06
5.220000e+02 3.250938e-06
5.230000e+02 3.633487e-06
5.240000e+02 4.058989e-06
5.250000e+02 4.532379e-06
5.260000e+02 5.058734e-06
5.270000e+02 5.643768e-06
5.280000e+02 6.293744e-06
5.290000e+02 7.014616e-06
5.300000e+02 7.816845e-06
5.310000e+02 8.705947e-06
5.320000e+02 9.692104e-06
5.330000e+02 1.078543e-05
5.340000e+02 1.199709e-05
5.350000e+02 1.333934e-05
5.360000e+02 1.482559e-05
5.370000e+02 1.635713e-05
5.380000e+02 1.829088e-05
5.390000e+02 2.030437e-05
5.400000e+02 2.253015e-05
5.410000e+02 2.498868e-05
5.420000e+02 2.770697e-05
5.430000e+02 3.070767e-05
5.440000e+02 3.401974e-05
5.450000e+02 3.767429e-05
5.460000e+02 4.170097e-05
5.470000e+02 4.614946e-05
5.480000e+02 5.104762e-05
5.490000e+02 5.644416e-05
5.500000e+02 6.238735e-05
5.510000e+02 6.893021e-05
5.520000e+02 7.613056e-05
5.530000e+02 8.405155e-05
5.540000e+02 9.276210e-05
5.550000e+02 1.023374e-04
5.560000e+02 1.128595e-04
5.570000e+02 1.244179e-04
5.580000e+02 1.371100e-04
5.590000e+02 1.510421e-04
5.600000e+02 1.663298e-04
5.610000e+02 1.830992e-04
5.620000e+02 2.014873e-04
5.630000e+02 2.216436e-04
5.640000e+02 2.437301e-04
5.650000e+02 2.679233e-04
5.660000e+02 2.944155e-04
5.670000e+02 3.234147e-04
5.680000e+02 3.551475e-04
5.690000e+02 3.898600e-04
5.700000e+02 4.278187e-04
5.710000e+02 4.693144e-04
5.720000e+02 5.146604e-04
5.730000e+02 5.641982e-04
5.740000e+02 6.182971e-04
5.750000e+02 6.773636e-04
5.760000e+02 7.417861e-04
5.770000e+02 8.121443e-04
5.780000e+02 8.888430e-04
5.790000e+02 9.724681e-04
5.800000e+02 1.063616e-03
5.810000e+02 1.162931e-03
5.820000e+02 1.271111e-03
5.830000e+02 1.388904e-03
5.840000e+02 1.516919e-03
5.850000e+02 1.656648e-03
5.860000e+02 1.808525e-03
5.870000e+02 1.973653e-03
5.880000e+02 2.153181e-03
5.890000e+02 2.348301e-03
5.900000e+02 2.560339e-03
5.910000e+02 2.790654e-03
5.920000e+02 3.040760e-03
5.930000e+02 3.312278e-03
5.940000e+02 3.606953e-03
5.950000e+02 3.926647e-03
5.960000e+02 4.273440e-03
5.970000e+02 4.649460e-03
5.980000e+02 5.057071e-03
5.990000e+02 5.498801e-03
6.000000e+02 5.977368e-03
6.010000e+02 6.495671e-03
6.020000e+02 7.056924e-03
6.030000e+02 7.664437e-03
6.040000e+02 8.321861e-03
6.050000e+02 9.033108e-03
6.060000e+02 9.802343e-03
6.070000e+02 1.063411e-02
6.080000e+02 1.153321e-02
6.090000e+02 1.250482e-02
6.100000e+02 1.355452e-02
6.110000e+02 1.468827e-02
6.120000e+02 1.591248e-02
6.130000e+02 1.723399e-02
6.140000e+02 1.866016e-02
6.150000e+02 2.019887e-02
6.160000e+02 2.185857e-02
6.170000e+02 2.364829e-02
6.180000e+02 2.557771e-02
6.190000e+02 2.765719e-02
6.200000e+02 2.989783e-02
6.210000e+02 3.231147e-02
6.220000e+02 3.491082e-02
6.230000e+02 3.770945e-02
6.240000e+02 4.072186e-02
6.250000e+02 4.396356e-02
6.260000e+02 4.745112e-02
6.270000e+02 5.120226e-02
6.280000e+02 5.523587e-02
6.290000e+02 5.957215e-02
6.300000e+02 6.423265e-02
6.310000e+02 6.923398e-02
6.320000e+02 7.461993e-02
6.330000e+02 8.039729e-02
6.340000e+02 8.660087e-02
6.350000e+02 9.325980e-02
6.360000e+02 1.003924e-01
6.370000e+02 1.080745e-01
6.380000e+02 1.162998e-01
6.390000e+02 1.251209e-01
6.400000e+02 1.345787e-01
6.410000e+02 1.447168e-01
6.420000e+02 1.555816e-01
6.430000e+02 1.672225e-01
6.440000e+02 1.796920e-01
6.450000e+02 1.930460e-01
6.460000e+02 2.073442e-01
6.470000e+02 2.226494e-01
6.480000e+02 2.390293e-01
6.490000e+02 2.565551e-01
6.500000e+02 2.753028e-01
6.510000e+02 2.953531e-01
6.520000e+02 3.167917e-01
6.530000e+02 3.397098e-01
6.540000e+02 3.642038e-01
6.550000e+02 3.903767e-01
6.560000e+02 4.183371e-01
6.570000e+02 4.481979e-01
6.580000e+02 4.800903e-01
6.590000e+02 5.141358e-01
6.600000e+02 5.504751e-01
6.610000e+02 5.892548e-01
6.620000e+02 6.306297e-01
6.630000e+02 6.747640e-01
6.640000e+02 7.218323e-01
6.650000e+02 7.720183e-01
6.660000e+02 8.255186e-01
6.670000e+02 8.825392e-01
6.680000e+02 9.432995e-01
6.690000e+02 1.008031e+00
6.700000e+02 1.076980e+00
6.710000e+02 1.150406e+00
6.720000e+02 1.228583e+00
6.730000e+02 1.311803e+00
6.740000e+02 1.400372e+00
6.750000e+02 1.494616e+00
6.760000e+02 1.594878e+00
6.770000e+02 1.701521e+00
6.780000e+02 1.814930e+00
6.790000e+02 1.935509e+00
6.800000e+02 2.063687e+00
6.810000e+02 2.199917e+00
6.820000e+02 2.344675e+00
6.830000e+02 2.498466e+00
6.840000e+02 2.661822e+00
6.850000e+02 2.835305e+00
6.860000e+02 3.019508e+00
6.870000e+02 3.215053e+00
6.880000e+02 3.422608e+00
6.890000e+02 3.642860e+00
6.900000e+02 3.876545e+00
6.910000e+02 4.124438e+00
6.920000e+02 4.387351e+00
6.930000e+02 4.666144e+00
6.940000e+02 4.961721e+00
6.950000e+02 5.275037e+00
6.960000e+02 5.607095e+00
6.970000e+02 5.958911e+00
6.980000e+02 6.331720e+00
6.990000e+02 6.726572e+00
7.000000e+02 7.144742e+00
7.010000e+02 7.587528e+00
7.020000e+02 8.056294e+00
7.030000e+02 8.552479e+00
7.040000e+02 9.077593e+00
7.050000e+02 9.633224e+00
7.060000e+02 1.022105e+01
7.070000e+02 1.084281e+01
7.080000e+02 1.150038e+01
7.090000e+02 1.219567e+01
7.100000e+02 1.293074e+01
7.110000e+02 1.370772e+01
7.120000e+02 1.452887e+01
7.130000e+02 1.539655e+01
7.140000e+02 1.631324e+01
7.150000e+02 1.728155e+01
7.160000e+02 1.830421e+01
7.170000e+02 1.938408e+01
7.180000e+02 2.052412e+01
7.190000e+02 2.172775e+01
7.200000e+02 2.299799e+01
7.210000e+02 2.433843e+01
7.220000e+02 2.575271e+01
7.230000e+02 2.724467e+01
7.240000e+02 2.881831e+01
7.250000e+02 3.047783e+01
7.260000e+02 3.222765e+01
7.270000e+02 3.407238e+01
7.280000e+02 3.601687e+01
7.290000e+02 3.806618e+01
7.300000e+02 4.022562e+01
7.310000e+02 4.250077e+01
7.320000e+02 4.489743e+01
7.330000e+02 4.742171e+01
7.340000e+02 5.008001e+01
7.350000e+02 5.287898e+01
7.360000e+02 5.582562e+01
7.370000e+02 5.892729e+01
7.380000e+02 6.219160e+01
7.390000e+02 6.562657e+01
7.400000e+02 6.924055e+01
7.410000e+02 7.304240e+01
7.420000e+02 7.704115e+01
7.430000e+02 8.124649e+01
7.440000e+02 8.566835e+01
7.450000e+02 9.031723e+01
7.460000e+02 9.520406e+01
7.470000e+02 1.003403e+02
7.480000e+02 1.057378e+02
7.490000e+02 1.114091e+02
7.500000e+02 1.173672e+02
7.510000e+02 1.236257e+02
7.520000e+02 1.301988e+02
7.530000e+02 1.371014e+02
7.540000e+02 1.443489e+02
7.550000e+02 1.519574e+02
7.560000e+02 1.599440e+02
7.570000e+02 1.683256e+02
7.580000e+02 1.771219e+02
7.590000e+02 1.863506e+02
7.600000e+02 1.960328e+02
7.610000e+02 2.061886e+02
7.620000e+02 2.168400e+02
7.630000e+02 2.280095e+02
7.640000e+02 2.397209e+02
7.650000e+02 2.519986e+02
7.660000e+02 2.648685e+02
7.670000e+02 2.783571e+02
7.680000e+02 2.924921e+02
7.690000e+02 3.073034e+02
7.700000e+02 3.228203e+02
7.710000e+02 3.390745e+02
7.720000e+02 3.560989e+02
7.730000e+02 3.739276e+02
7.740000e+02 3.925961e+02
7.750000e+02 4.121415e+02
7.760000e+02 4.325982e+02
7.770000e+02 4.540184e+02
7.780000e+02 4.764318e+02
7.790000e+02 4.998857e+02
7.800000e+02 5.244254e+02
7.810000e+02 5.500977e+02
7.820000e+02 5.769517e+02
7.830000e+02 6.050380e+02
7.840000e+02 6.344097e+02
7.850000e+02 6.651216e+02
7.860000e+02 6.972307e+02
7.870000e+02 7.307972e+02
7.880000e+02 7.658816e+02
7.890000e+02 8.025486e+02
7.900000e+02 8.408648e+02
7.910000e+02 8.808996e+02
7.920000e+02 9.227249e+02
7.930000e+02 9.664155e+02
7.940000e+02 1.012049e+03
7.950000e+02 1.059706e+03
7.960000e+02 1.109470e+03
7.970000e+02 1.161428e+03
7.980000e+02 1.215671e+03
7.990000e+02 1.272292e+03
8.000000e+02 1.331388e+03
8.010000e+02 1.393061e+03
8.020000e+02 1.457415e+03
8.030000e+02 1.524558e+03
8.040000e+02 1.594604e+03
8.050000e+02 1.667670e+03
8.060000e+02 1.743876e+03
8.070000e+02 1.823349e+03
8.080000e+02 1.906219e+03
8.090000e+02 1.992622e+03
8.100000e+02 2.082697e+03
8.110000e+02 2.176590e+03
8.120000e+02 2.274453e+03
8.130000e+02 2.376440e+03
8.140000e+02 2.482715e+03
8.150000e+02 2.593443e+03
8.160000e+02 2.708803e+03
8.170000e+02 2.828970e+03
8.180000e+02 2.954133e+03
8.190000e+02 3.084484e+03
8.200000e+02 3.220225e+03
8.210000e+02 3.361562e+03
8.220000e+02 3.508710e+03
8.230000e+02 3.661891e+03
8.240000e+02 3.821336e+03
8.250000e+02 3.987282e+03
8.260000e+02 4.159977e+03
8.270000e+02 4.339675e+03
8.280000e+02 4.526640e+03
8.290000e+02 4.721146e+03
8.300000e+02 4.923475e+03
8.310000e+02 5.133920e+03
8.320000e+02 5.352783e+03
8.330000e+02 5.580377e+03
8.340000e+02 5.817027e+03
8.350000e+02 6.062919e+03
8.360000e+02 6.318831e+03
8.370000e+02 6.584709e+03
8.380000e+02 6.861040e+03
8.390000e+02 7.148218e+03
8.400000e+02 7.446637e+03
8.410000e+02 7.756704e+03
8.420000e+02 8.078799e+03
8.430000e+02 8.413492e+03
8.440000e+02 8.761099e+03
8.450000e+02 9.122129e+03
8.460000e+02 9.497065e+03
8.470000e+02 9.886403e+03
8.480000e+02 1.029066e+04
8.490000e+02 1.071035e+04
8.500000e+02 1.114605e+04
8.510000e+02 1.159829e+04
8.520000e+02 1.206768e+04
8.530000e+02 1.255482e+04
8.540000e+02 1.306033e+04
8.550000e+02 1.358483e+04
8.560000e+02 1.412901e+04
8.570000e+02 1.469353e+04
8.580000e+02 1.527912e+04
8.590000e+02 1.588649e+04
8.600000e+02 1.651639e+04
8.610000e+02 1.716961e+04
8.620000e+02 1.784694e+04
8.630000e+02 1.854920e+04
8.640000e+02 1.927724e+04
8.650000e+02 2.003194e+04
8.660000e+02 2.081421e+04
8.670000e+02 2.162497e+04
8.680000e+02 2.246519e+04
8.690000e+02 2.333585e+04
8.700000e+02 2.423796e+04
8.710000e+02 2.517263e+04
8.720000e+02 2.614088e+04
8.730000e+02 2.714385e+04
8.740000e+02 2.818269e+04
8.750000e+02 2.925858e+04
8.760000e+02 3.037276e+04
8.770000e+02 3.152647e+04
8.780000e+02 3.272103e+04
8.790000e+02 3.395775e+04
8.800000e+02 3.523802e+04
8.810000e+02 3.656325e+04
8.820000e+02 3.793490e+04
8.830000e+02 3.935448e+04
8.840000e+02 4.082353e+04
8.850000e+02 4.234364e+04
8.860000e+02 4.391646e+04
8.870000e+02 4.554366e+04
8.880000e+02 4.722698e+04
8.890000e+02 4.896823e+04
8.900000e+02 5.076921e+04
8.910000e+02 5.263185e+04
8.920000e+02 5.454197e+04
8.930000e+02 5.654988e+04
8.940000e+02 5.860935e+04
8.950000e+02 6.073858e+04
8.960000e+02 6.293978e+04
8.970000e+02 6.521516e+04
8.980000e+02 6.756705e+04
8.990000e+02 6.999780e+04
9.000000e+02 7.250987e+04
9.010000e+02 7.510575e+04
9.020000e+02 7.778802e+04
9.030000e+02 8.055934e+04
9.040000e+02 8.342237e+04
9.050000e+02 8.638006e+04
9.060000e+02 8.943516e+04
9.070000e+02 9.259045e+04
9.080000e+02 9.584955e+04
9.090000e+02 9.921504e+04
9.100000e+02 1.026903e+05
9.110000e+02 1.062787e+05
9.120000e+02 1.099839e+05
9.130000e+02 1.135999e+05
9.140000e+02 1.182072e+05
9.150000e+02 2.979273e+05
9.160000e+02 6.267967e+05
9.170000e+02 6.583340e+05
9.180000e+02 5.457473e+05
9.190000e+02 1.074164e+06
9.200000e+02 1.337522e+06
9.210000e+02 1.487931e+05
9.220000e+02 1.499514e+06
9.230000e+02 7.018871e+05
9.240000e+02 1.355933e+06
9.250000e+02 1.602246e+06
9.260000e+02 1.035683e+06
9.270000e+02 1.526332e+06
9.280000e+02 1.880333e+06
9.290000e+02 1.706171e+06
9.300000e+02 1.859892e+06
9.310000e+02 1.195184e+06
9.320000e+02 2.081750e+06
9.330000e+02 2.116077e+06
9.340000e+02 2.157796e+06
9.350000e+02 4.582842e+05
9.360000e+02 1.889096e+06
9.370000e+02 3.838083e+05
9.380000e+02 1.065952e+06
9.390000e+02 2.102153e+06
9.400000e+02 2.614500e+06
9.410000e+02 1.145531e+06
9.420000e+02 2.772006e+06
9.430000e+02 2.479696e+06
9.440000e+02 2.247828e+06
9.450000e+02 3.004050e+06
9.460000e+02 3.031976e+06
9.470000e+02 2.279854e+06
9.480000e+02 3.004008e+06
9.490000e+02 3.079853e+06
9.500000e+02 6.552356e+05
9.510000e+02 3.232813e+06
9.520000e+02 3.510665e+06
9.530000e+02 2.442155e+06
9.540000e+02 2.545090e+06
9.550000e+02 3.654913e+06
9.560000e+02 3.817170e+06
9.570000e+02 2.297564e+06
9.580000e+02 2.196226e+06
9.590000e+02 4.338633e+06
9.600000e+02 7.727712e+05
9.610000e+02 4.437298e+06
9.620000e+02 4.349750e+06
9.630000e+02 4.565242e+06
9.640000e+02 6.072070e+05
9.650000e+02 3.568474e+06
9.660000e+02 4.813884e+06
9.670000e+02 4.377814e+06
9.680000e+02 3.724503e+06
9.690000e+02 5.253022e+06
9.700000e+02 5.298244e+06
9.710000e+02 4.541250e+06
9.720000e+02 4.622609e+06
9.730000e+02 4.808266e+06
9.740000e+02 5.910426e+06
9.750000e+02 5.949418e+06
9.760000e+02 6.588519e+06
9.770000e+02 6.694028e+06
9.780000e+02 6.548135e+06
9.790000e+02 7.191101e+06
9.800000e+02 7.370986e+06
9.810000e+02 7.244347e+06
9.820000e+02 6.608754e+06
9.830000e+02 7.904491e+06
9.840000e+02 3.524579e+06
9.850000e+02 7.792309e+06
9.860000e+02 7.867500e+06
9.870000e+02 8.704710e+06
9.880000e+02 6.118182e+06
9.890000e+02 7.054171e+06
9.900000e+02 1.512585e+06
9.910000e+02 7.053669e+06
9.920000e+02 4.768982e+06
9.930000e+02 9.758438e+06
9.940000e+02 1.628344e+06
9.950000e+02 3.182480e+06
9.960000e+02 7.397032e+06
9.970000e+02 2.820918e+06
9.980000e+02 1.108709e+07
9.990000e+02 9.689706e+06
1.000000e+03 1.191366e+07
1.001000e+03 1.222022e+07
1.002000e+03 1.245596e+07
1.003000e+03 1.058891e+07
1.004000e+03 9.620884e+06
1.005000e+03 1.126381e+07
1.006000e+03 1.365622e+07
1.007000e+03 1.402278e+07
1.008000e+03 1.420955e+07
1.009000e+03 1.295713e+07
1.010000e+03 1.487130e+07
1.011000e+03 1.531721e+07
1.012000e+03 1.552586e+07
1.013000e+03 1.580841e+07
1.014000e+03 7.606393e+06
1.015000e+03 1.076576e+07
1.016000e+03 1.448920e+07
1.017000e+03 8.536794e+06
1.018000e+03 1.585634e+07
1.019000e+03 1.218895e+07
1.020000e+03 1.875285e+07
1.021000e+03 1.063307e+07
1.022000e+03 1.541986e+07
1.023000e+03 1.268205e+07
1.024000e+03 1.913849e+07
1.025000e+03 8.706788e+06
1.026000e+03 7.572286e+06
1.027000e+03 1.879183e+07
1.028000e+03 5.143311e+06
1.029000e+03 1.148626e+07
1.030000e+03 2.231888e+07
1.031000e+03 2.102717e+07
1.032000e+03 2.417133e+07
1.033000e+03 9.182803e+06
1.034000e+03 2.457020e+07
1.035000e+03 5.388578e+06
1.036000e+03 1.381374e+07
1.037000e+03 1.779481e+07
1.038000e+03 2.812528e+07
1.039000e+03 2.829041e+07
1.040000e+03 2.902427e+07
1.041000e+03 2.998885e+07
1.042000e+03 3.031556e+07
1.043000e+03 3.008702e+07
1.044000e+03 3.214090e+07
1.045000e+03 3.250027e+07
1.046000e+03 3.348574e+07
1.047000e+03 3.206939e+07
1.048000e+03 2.512970e+07
1.049000e+03 3.456924e+07
1.050000e+03 3.478820e+07
1.051000e+03 3.371888e+07
1.052000e+03 3.781435e+07
1.053000e+03 3.859450e+07
1.054000e+03 1.944660e+07
1.055000e+03 4.065950e+07
1.056000e+03 4.156566e+07
1.057000e+03 4.074144e+07
1.058000e+03 4.117756e+07
1.059000e+03 3.431469e+07
1.060000e+03 3.328854e+07
1.061000e+03 4.447593e+07
1.062000e+03 4.282846e+07
1.063000e+03 2.313205e+07
1.064000e+03 1.038032e+07
1.065000e+03 2.689773e+07
1.066000e+03 4.716578e+07
1.067000e+03 3.865043e+07
1.068000e+03 5.369437e+07
1.069000e+03 3.230407e+07
1.070000e+03 5.397778e+07
1.071000e+03 5.706198e+07
1.072000e+03 5.809888e+07
1.073000e+03 3.473105e+07
1.074000e+03 5.632314e+07
1.075000e+03 5.593521e+07
1.076000e+03 6.306393e+07
1.077000e+03 5.518329e+07
1.078000e+03 6.061798e+07
1.079000e+03 6.409554e+07
1.080000e+03 6.622839e+07
1.081000e+03 6.821482e+07
1.082000e+03 6.968609e+07
1.083000e+03 7.029281e+07
1.084000e+03 7.422412e+07
1.085000e+03 6.363734e+07
1.086000e+03 7.716815e+07
1.087000e+03 6.196442e+07
1.088000e+03 8.019697e+07
1.089000e+03 8.194592e+07
1.090000e+03 7.496718e+07
1.091000e+03 7.523353e+07
1.092000e+03 8.674557e+07
1.093000e+03 8.837386e+07
1.094000e+03 8.881970e+07
1.095000e+03 9.200400e+07
1.096000e+03 9.310734e+07
1.097000e+03 9.351794e+07
1.098000e+03 9.707279e+07
1.099000e+03 9.611355e+07
1.100000e+03 7.406326e+07
1.101000e+03 8.012302e+07
1.102000e+03 1.478437e+08
1.103000e+03 5.937140e+08
1.104000e+03 2.356569e+08
1.105000e+03 1.040850e+08
1.106000e+03 6.149033e+08
1.107000e+03 1.038844e+08
1.108000e+03 8.943803e+08
1.109000e+03 2.260977e+08
1.110000e+03 3.618165e+08
1.111000e+03 2.218409e+08
1.112000e+03 7.845447e+08
1.113000e+03 1.252317e+09
1.114000e+03 8.638790e+07
1.115000e+03 4.087296e+08
1.116000e+03 3.313605e+08
1.117000e+03 8.676134e+07
1.118000e+03 2.947674e+08
1.119000e+03 9.650988e+08
1.120000e+03 3.731049e+08
1.121000e+03 1.089628e+09
1.122000e+03 3.524877e+07
1.123000e+03 2.383412e+08
1.124000e+03 1.263151e+09
1.125000e+03 7.957375e+08
1.126000e+03 1.547451e+09
1.127000e+03 1.414701e+09
1.128000e+03 5.150298e+08
1.129000e+03 1.030607e+09
1.130000e+03 1.307232e+09
1.131000e+03 1.569192e+09
1.132000e+03 1.132731e+08
1.133000e+03 4.080852e+08
1.134000e+03 1.054878e+09
1.135000e+03 7.738611e+07
1.136000e+03 7.320585e+08
1.137000e+03 1.628164e+09
1.138000e+03 1.079955e+09
1.139000e+03 1.676933e+09
1.140000e+03 6.252970e+07
1.141000e+03 1.636612e+09
1.142000e+03 1.845770e+09
1.143000e+03 1.609911e+09
1.144000e+03 1.939112e+09
1.145000e+03 3.173126e+08
1.146000e+03 2.028449e+09
1.147000e+03 1.878754e+09
1.148000e+03 5.887224e+08
1.149000e+03 1.899222e+09
1.150000e+03 1.421361e+09
1.151000e+03 2.141395e+09
1.152000e+03 2.016289e+09
1.153000e+03 9.244534e+08
1.154000e+03 7.327186e+08
1.155000e+03 1.763969e+09
1.156000e+03 9.984527e+08
1.157000e+03 2.320691e+09
1.158000e+03 1.070192e+08
1.159000e+03 1.944318e+09
1.160000e+03 1.421318e+09
1.161000e+03 2.327394e+09
1.162000e+03 5.290040e+08
1.163000e+03 1.266441e+09
1.164000e+03 1.125441e+08
1.165000e+03 2.480419e+09
1.166000e+03 2.216733e+09
1.167000e+03 2.047585e+09
1.168000e+03 2.684840e+09
1.169000e+03 2.674798e+09
1.170000e+03 2.453102e+09
1.171000e+03 2.466630e+09
1.172000e+03 1.616428e+09
1.173000e+03 2.829341e+09
1.174000e+03 7.964492e+08
1.175000e+03 1.296229e+08
1.176000e+03 1.173884e+08
1.177000e+03 3.058516e+09
1.178000e+03 3.012660e+09
1.179000e+03 3.013110e+09
1.180000e+03 1.883531e+09
1.181000e+03 3.209975e+09
1.182000e+03 3.013431e+09
1.183000e+03 2.781793e+09
1.184000e+03 2.648096e+09
1.185000e+03 3.050273e+09
1.186000e+03 1.734984e+09
1.187000e+03 3.033256e+09
1.188000e+03 2.128884e+09
1.189000e+03 1.577818e+08
1.190000e+03 9.555654e+08
1.191000e+03 2.934520e+09
1.192000e+03 3.361398e+09
1.193000e+03 1.474565e+08
1.194000e+03 1.784433e+08
1.195000e+03 2.544964e+09
1.196000e+03 3.272678e+09
1.197000e+03 4.757127e+09
1.198000e+03 2.802088e+09
1.199000e+03 4.674102e+09
1.200000e+03 2.748130e+09
1.201000e+03 4.391622e+09
1.202000e+03 3.240205e+09
1.203000e+03 4.765017e+09
1.204000e+03 2.349120e+09
1.205000e+03 3.974274e+09
1.206000e+03 3.817395e+09
1.207000e+03 8.633567e+08
1.208000e+03 3.028992e+09
1.209000e+03 2.478258e+09
1.210000e+03 2.302840e+08
1.211000e+03 1.543290e+09
1.212000e+03 1.074171e+09
1.213000e+03 7.224710e+08
1.214000e+03 4.351866e+08
1.215000e+03 2.654188e+08
1.216000e+03 2.373520e+08
1.217000e+03 3.808674e+08
1.218000e+03 6.627094e+08
1.219000e+03 1.080969e+09
1.220000e+03 1.418139e+09
1.221000e+03 2.231150e+09
1.222000e+03 2.782554e+09
1.223000e+03 3.544133e+09
1.224000e+03 4.419224e+09
1.225000e+03 2.799100e+09
1.226000e+03 5.908379e+09
1.227000e+03 6.471763e+09
1.228000e+03 4.784283e+09
1.229000e+03 6.817877e+09
1.230000e+03 6.376584e+09
1.231000e+03 5.299533e+09
1.232000e+03 1.001244e+10
1.233000e+03 1.077404e+10
1.234000e+03 8.080909e+09
1.235000e+03 1.141214e+10
1.236000e+03 6.205334e+09
1.237000e+03 1.255036e+10
1.238000e+03 1.120763e+10
1.239000e+03 1.153833e+10
1.240000e+03 1.232076e+10
1.241000e+03 1.303549e+10
1.242000e+03 1.100196e+10
1.243000e+03 1.688760e+10
1.244000e+03 9.240635e+09
1.245000e+03 1.163659e+10
1.246000e+03 1.986691e+10
1.247000e+03 1.938617e+10
1.248000e+03 9.432033e+09
1.249000e+03 1.221985e+10
1.250000e+03 2.351951e+10
1.251000e+03 2.797557e+10
1.252000e+03 2.421847e+10
1.253000e+03 2.772084e+10
1.254000e+03 2.369440e+10
1.255000e+03 2.995293e+10
1.256000e+03 2.498915e+10
1.257000e+03 2.932828e+10
1.258000e+03 1.878976e+10
1.259000e+03 2.573033e+10
1.260000e+03 2.907304e+10
1.261000e+03 5.102467e+08
1.262000e+03 5.761925e+09
1.263000e+03 3.185147e+10
1.264000e+03 2.137840e+10
1.265000e+03 5.295811e+08
1.266000e+03 3.033467e+10
1.267000e+03 2.437332e+10
