# wavelength_A flux
5.000000e+02 1.212372e-30
5.010000e+02 1.524026e-30
5.020000e+02 1.914019e-30
5.030000e+02 2.401596e-30
5.040000e+02 3.010620e-30
5.050000e+02 3.921673e-30
5.060000e+02 4.903207e-30
5.070000e+02 6.122304e-30
5.080000e+02 7.642248e-30
5.090000e+02 9.528298e-30
5.100000e+02 1.139645e-29
5.110000e+02 1.477361e-29
5.120000e+02 1.836499e-29
5.130000e+02 2.282836e-29
5.140000e+02 2.834134e-29
5.150000e+02 3.515566e-29
5.160000e+02 4.357156e-29
5.170000e+02 5.396103e-29
5.180000e+02 6.677020e-29
5.190000e+02 8.255213e-29
5.200000e+02 1.019810e-28
5.210000e+02 1.258798e-28
5.220000e+02 1.552185e-28
5.230000e+02 1.913288e-28
5.240000e+02 2.356023e-28
5.250000e+02 2.898869e-28
5.260000e+02 3.563968e-28
5.270000e+02 4.378219e-28
5.280000e+02 5.374295e-28
5.290000e+02 6.591852e-28
5.300000e+02 8.079004e-28
5.310000e+02 9.894038e-28
5.320000e+02 1.210757e-27
5.330000e+02 1.480503e-27
5.340000e+02 1.808974e-27
5.350000e+02 2.208652e-27
5.360000e+02 2.694587e-27
5.370000e+02 3.242390e-27
5.380000e+02 4.001868e-27
5.390000e+02 4.871614e-27
5.400000e+02 5.925964e-27
5.410000e+02 7.202944e-27
5.420000e+02 8.749428e-27
5.430000e+02 1.061984e-26
5.440000e+02 1.288084e-26
5.450000e+02 1.561205e-26
5.460000e+02 1.890890e-26
5.470000e+02 2.288577e-26
5.480000e+02 2.767954e-26
5.490000e+02 3.345399e-26
5.500000e+02 4.040493e-26
5.510000e+02 4.876629e-26
5.520000e+02 5.881738e-26
5.530000e+02 7.089140e-26
5.540000e+02 8.538553e-26
5.550000e+02 1.027737e-25
5.560000e+02 1.236190e-25
5.570000e+02 1.485924e-25
5.580000e+02 1.784916e-25
5.590000e+02 2.142645e-25
5.600000e+02 2.570367e-25
5.610000e+02 3.081444e-25
5.620000e+02 3.691723e-25
5.630000e+02 4.419986e-25
5.640000e+02 5.288485e-25
5.650000e+02 6.323560e-25
5.660000e+02 7.556373e-25
5.670000e+02 9.023769e-25
5.680000e+02 1.076928e-24
5.690000e+02 1.284432e-24
5.700000e+02 1.530957e-24
5.710000e+02 1.823656e-24
5.720000e+02 2.170965e-24
5.730000e+02 2.582818e-24
5.740000e+02 3.070913e-24
5.750000e+02 3.649010e-24
5.760000e+02 4.333293e-24
5.770000e+02 5.142849e-24
5.780000e+02 6.099876e-24
5.790000e+02 7.230653e-24
5.800000e+02 8.565931e-24
5.810000e+02 1.014176e-23
5.820000e+02 1.200038e-23
5.830000e+02 1.419117e-23
5.840000e+02 1.676934e-23
5.850000e+02 1.981053e-23
5.860000e+02 2.338735e-23
5.870000e+02 2.759311e-23
5.880000e+02 3.253642e-23
5.890000e+02 3.834341e-23
5.900000e+02 4.516114e-23
5.910000e+02 5.316105e-23
5.920000e+02 6.254289e-23
5.930000e+02 7.353928e-23
5.940000e+02 8.642095e-23
5.950000e+02 1.015028e-22
5.960000e+02 1.191510e-22
5.970000e+02 1.397910e-22
5.980000e+02 1.639169e-22
5.990000e+02 1.921022e-22
6.000000e+02 2.250123e-22
6.010000e+02 2.634187e-22
6.020000e+02 3.082155e-22
6.030000e+02 3.604386e-22
6.040000e+02 4.212869e-22
6.050000e+02 4.921478e-22
6.060000e+02 5.746261e-22
6.070000e+02 6.705767e-22
6.080000e+02 7.821425e-22
6.090000e+02 9.117983e-22
6.100000e+02 1.062400e-21
6.110000e+02 1.237244e-21
6.120000e+02 1.440128e-21
6.130000e+02 1.675432e-21
6.140000e+02 1.948199e-21
6.150000e+02 2.264236e-21
6.160000e+02 2.630227e-21
6.170000e+02 3.053857e-21
6.180000e+02 3.543963e-21
6.190000e+02 4.110701e-21
6.200000e+02 4.765732e-21
6.210000e+02 5.522447e-21
6.220000e+02 6.396210e-21
6.230000e+02 7.404641e-21
6.240000e+02 8.567942e-21
6.250000e+02 9.909259e-21
6.260000e+02 1.145510e-20
6.270000e+02 1.323583e-20
6.280000e+02 1.528616e-20
6.290000e+02 1.764581e-20
6.300000e+02 2.036019e-20
6.310000e+02 2.347780e-20
6.320000e+02 2.706810e-20
6.330000e+02 3.118855e-20
6.340000e+02 3.591977e-20
6.350000e+02 4.134966e-20
6.360000e+02 4.757913e-20
6.370000e+02 5.472214e-20
6.380000e+02 6.290922e-20
6.390000e+02 7.228880e-20
6.400000e+02 8.302984e-20
6.410000e+02 9.532454e-20
6.420000e+02 1.093915e-19
6.430000e+02 1.254791e-19
6.440000e+02 1.438697e-19
6.450000e+02 1.648839e-19
6.460000e+02 1.888856e-19
6.470000e+02 2.162879e-19
6.480000e+02 2.475592e-19
6.490000e+02 2.832307e-19
6.500000e+02 3.239044e-19
6.510000e+02 3.702622e-19
6.520000e+02 4.230766e-19
6.530000e+02 4.832216e-19
6.540000e+02 5.516866e-19
6.550000e+02 6.295901e-19
6.560000e+02 7.181971e-19
6.570000e+02 8.189370e-19
6.580000e+02 9.334247e-19
6.590000e+02 1.063484e-18
6.600000e+02 1.211172e-18
6.610000e+02 1.378813e-18
6.620000e+02 1.569026e-18
6.630000e+02 1.784763e-18
6.640000e+02 2.029354e-18
6.650000e+02 2.306549e-18
6.660000e+02 2.620572e-18
6.670000e+02 2.976174e-18
6.680000e+02 3.378705e-18
6.690000e+02 3.834184e-18
6.700000e+02 4.349376e-18
6.710000e+02 4.931886e-18
6.720000e+02 5.590261e-18
6.730000e+02 6.334097e-18
6.740000e+02 7.174171e-18
6.750000e+02 8.122578e-18
6.760000e+02 9.192885e-18
6.770000e+02 1.040031e-17
6.780000e+02 1.176192e-17
6.790000e+02 1.329683e-17
6.800000e+02 1.502646e-17
6.810000e+02 1.697481e-17
6.820000e+02 1.916872e-17
6.830000e+02 2.163826e-17
6.840000e+02 2.441704e-17
6.850000e+02 2.754267e-17
6.860000e+02 3.105718e-17
6.870000e+02 3.500754e-17
6.880000e+02 3.944624e-17
6.890000e+02 4.443187e-17
6.900000e+02 5.002986e-17
6.910000e+02 5.631322e-17
6.920000e+02 6.336340e-17
6.930000e+02 7.127124e-17
6.940000e+02 8.013801e-17
6.950000e+02 9.007657e-17
6.960000e+02 1.012126e-16
6.970000e+02 1.136863e-16
6.980000e+02 1.276534e-16
6.990000e+02 1.432875e-16
7.000000e+02 1.607816e-16
7.010000e+02 1.803506e-16
7.020000e+02 2.022331e-16
7.030000e+02 2.266945e-16
7.040000e+02 2.540298e-16
7.050000e+02 2.845664e-16
7.060000e+02 3.186679e-16
7.070000e+02 3.567389e-16
7.080000e+02 3.992266e-16
7.090000e+02 4.466285e-16
7.100000e+02 4.994957e-16
7.110000e+02 5.584396e-16
7.120000e+02 6.241376e-16
7.130000e+02 6.973403e-16
7.140000e+02 7.788790e-16
7.150000e+02 8.696745e-16
7.160000e+02 9.707458e-16
7.170000e+02 1.083221e-15
7.180000e+02 1.208347e-15
7.190000e+02 1.347504e-15
7.200000e+02 1.502217e-15
7.210000e+02 1.674173e-15
7.220000e+02 1.865234e-15
7.230000e+02 2.077460e-15
7.240000e+02 2.313121e-15
7.250000e+02 2.574728e-15
7.260000e+02 2.865049e-15
7.270000e+02 3.187139e-15
7.280000e+02 3.544367e-15
7.290000e+02 3.940450e-15
7.300000e+02 4.379483e-15
7.310000e+02 4.865980e-15
7.320000e+02 5.404914e-15
7.330000e+02 6.001762e-15
7.340000e+02 6.662554e-15
7.350000e+02 7.393930e-15
7.360000e+02 8.203194e-15
7.370000e+02 9.098384e-15
7.380000e+02 1.008834e-14
7.390000e+02 1.118278e-14
7.400000e+02 1.239239e-14
7.410000e+02 1.372890e-14
7.420000e+02 1.520522e-14
7.430000e+02 1.683552e-14
7.440000e+02 1.863535e-14
7.450000e+02 2.062178e-14
7.460000e+02 2.281355e-14
7.470000e+02 2.523122e-14
7.480000e+02 2.789735e-14
7.490000e+02 3.083665e-14
7.500000e+02 3.407624e-14
7.510000e+02 3.764581e-14
7.520000e+02 4.157792e-14
7.530000e+02 4.590823e-14
7.540000e+02 5.067577e-14
7.550000e+02 5.592328e-14
7.560000e+02 6.169755e-14
7.570000e+02 6.804978e-14
7.580000e+02 7.503596e-14
7.590000e+02 8.271734e-14
7.600000e+02 9.116089e-14
7.610000e+02 1.004398e-13
7.620000e+02 1.106341e-13
7.630000e+02 1.218311e-13
7.640000e+02 1.341264e-13
7.650000e+02 1.476241e-13
7.660000e+02 1.624382e-13
7.670000e+02 1.786927e-13
7.680000e+02 1.965232e-13
7.690000e+02 2.160777e-13
7.700000e+02 2.375174e-13
7.710000e+02 2.610181e-13
7.720000e+02 2.867715e-13
7.730000e+02 3.149866e-13
7.740000e+02 3.458909e-13
7.750000e+02 3.797325e-13
7.760000e+02 4.167814e-13
7.770000e+02 4.573315e-13
7.780000e+02 5.017030e-13
7.790000e+02 5.502443e-13
7.800000e+02 6.033341e-13
7.810000e+02 6.613848e-13
7.820000e+02 7.248448e-13
7.830000e+02 7.942014e-13
7.840000e+02 8.699844e-13
7.850000e+02 9.527698e-13
7.860000e+02 1.043183e-12
7.870000e+02 1.141904e-12
7.880000e+02 1.249670e-12
7.890000e+02 1.367282e-12
7.900000e+02 1.495612e-12
7.910000e+02 1.635602e-12
7.920000e+02 1.788276e-12
7.930000e+02 1.954747e-12
7.940000e+02 2.136218e-12
7.950000e+02 2.333996e-12
7.960000e+02 2.549499e-12
7.970000e+02 2.784259e-12
7.980000e+02 3.039942e-12
7.990000e+02 3.318349e-12
8.000000e+02 3.621431e-12
8.010000e+02 3.951302e-12
8.020000e+02 4.310250e-12
8.030000e+02 4.700752e-12
8.040000e+02 5.125486e-12
8.050000e+02 5.587331e-12
8.060000e+02 6.089489e-12
8.070000e+02 6.635286e-12
8.080000e+02 7.228411e-12
8.090000e+02 7.872827e-12
8.100000e+02 8.572822e-12
8.110000e+02 9.333022e-12
8.120000e+02 1.015843e-11
8.130000e+02 1.105445e-11
8.140000e+02 1.202691e-11
8.150000e+02 1.308212e-11
8.160000e+02 1.422687e-11
8.170000e+02 1.546849e-11
8.180000e+02 1.681491e-11
8.190000e+02 1.827466e-11
8.200000e+02 1.985696e-11
8.210000e+02 2.157174e-11
8.220000e+02 2.342970e-11
8.230000e+02 2.544239e-11
8.240000e+02 2.762225e-11
8.250000e+02 2.998268e-11
8.260000e+02 3.253812e-11
8.270000e+02 3.530412e-11
8.280000e+02 3.829742e-11
8.290000e+02 4.153605e-11
8.300000e+02 4.503942e-11
8.310000e+02 4.882841e-11
8.320000e+02 5.292550e-11
8.330000e+02 5.735485e-11
8.340000e+02 6.214248e-11
8.350000e+02 6.731632e-11
8.360000e+02 7.290647e-11
8.370000e+02 7.894522e-11
8.380000e+02 8.546731e-11
8.390000e+02 9.251006e-11
8.400000e+02 1.001136e-10
8.410000e+02 1.083209e-10
8.420000e+02 1.171783e-10
8.430000e+02 1.267355e-10
8.440000e+02 1.370457e-10
8.450000e+02 1.481662e-10
8.460000e+02 1.601584e-10
8.470000e+02 1.730882e-10
8.480000e+02 1.870263e-10
8.490000e+02 2.020485e-10
8.500000e+02 2.182361e-10
8.510000e+02 2.356763e-10
8.520000e+02 2.544626e-10
8.530000e+02 2.746951e-10
8.540000e+02 2.964811e-10
8.550000e+02 3.199356e-10
8.560000e+02 3.451818e-10
8.570000e+02 3.723517e-10
8.580000e+02 4.015865e-10
8.590000e+02 4.330375e-10
8.600000e+02 4.668666e-10
8.610000e+02 5.032471e-10
8.620000e+02 5.423645e-10
8.630000e+02 5.844171e-10
8.640000e+02 6.296172e-10
8.650000e+02 6.781919e-10
8.660000e+02 7.303839e-10
8.670000e+02 7.864527e-10
8.680000e+02 8.466757e-10
8.690000e+02 9.113495e-10
8.700000e+02 9.807908e-10
8.710000e+02 1.055339e-09
8.720000e+02 1.135354e-09
8.730000e+02 1.221224e-09
8.740000e+02 1.313361e-09
8.750000e+02 1.412205e-09
8.760000e+02 1.518227e-09
8.770000e+02 1.631928e-09
8.780000e+02 1.753845e-09
8.790000e+02 1.884548e-09
8.800000e+02 2.024648e-09
8.810000e+02 2.174795e-09
8.820000e+02 2.335684e-09
8.830000e+02 2.508052e-09
8.840000e+02 2.692691e-09
8.850000e+02 2.890439e-09
8.860000e+02 3.102194e-09
8.870000e+02 3.328910e-09
8.880000e+02 3.571605e-09
8.890000e+02 3.831363e-09
8.900000e+02 4.109339e-09
8.910000e+02 4.406762e-09
8.920000e+02 4.724941e-09
8.930000e+02 5.065270e-09
8.940000e+02 5.429235e-09
8.950000e+02 5.818413e-09
8.960000e+02 6.234486e-09
8.970000e+02 6.679242e-09
8.980000e+02 7.154584e-09
8.990000e+02 7.662535e-09
9.000000e+02 8.205246e-09
9.010000e+02 8.785007e-09
9.020000e+02 9.404252e-09
9.030000e+02 1.006556e-08
9.040000e+02 1.077170e-08
9.050000e+02 1.152557e-08
9.060000e+02 1.233029e-08
9.070000e+02 1.318915e-08
9.080000e+02 1.410565e-08
9.090000e+02 1.508352e-08
9.100000e+02 1.612671e-08
9.110000e+02 1.723941e-08
9.120000e+02 1.842607e-08
9.130000e+02 1.969143e-08
9.140000e+02 2.314857e-08
9.150000e+02 7.054535e-06
9.160000e+02 2.445730e-05
9.170000e+02 2.087228e-07
9.180000e+02 9.195090e-06
9.190000e+02 6.879834e-05
9.200000e+02 1.591118e-04
9.210000e+02 3.331854e-08
9.220000e+02 1.977391e-05
9.230000e+02 3.261124e-07
9.240000e+02 3.218738e-07
9.250000e+02 2.953760e-06
9.260000e+02 1.140913e-05
9.270000e+02 2.863505e-07
9.280000e+02 4.840900e-04
9.290000e+02 6.812784e-04
9.300000e+02 2.002399e-04
9.310000e+02 4.653184e-07
9.320000e+02 5.993936e-04
9.330000e+02 1.524115e-05
9.340000e+02 4.536705e-06
9.350000e+02 4.283604e-06
9.360000e+02 8.289532e-07
9.370000e+02 3.084099e-07
9.380000e+02 2.280305e-06
9.390000e+02 2.481862e-06
9.400000e+02 1.519978e-04
9.410000e+02 2.971279e-05
9.420000e+02 1.854645e-03
9.430000e+02 3.550551e-06
9.440000e+02 2.153304e-03
9.450000e+02 1.371605e-03
9.460000e+02 4.804900e-05
9.470000e+02 2.085553e-07
9.480000e+02 4.287069e-04
9.490000e+02 1.330169e-04
9.500000e+02 6.131524e-06
9.510000e+02 5.271309e-05
9.520000e+02 9.789260e-05
9.530000e+02 8.949578e-07
9.540000e+02 2.899801e-07
9.550000e+02 8.906878e-06
9.560000e+02 1.079053e-03
9.570000e+02 5.096772e-06
9.580000e+02 3.371952e-07
9.590000e+02 2.922719e-04
9.600000e+02 1.138669e-05
9.610000e+02 6.916991e-05
9.620000e+02 2.707040e-05
9.630000e+02 5.566340e-06
9.640000e+02 1.457711e-06
9.650000e+02 6.452901e-07
9.660000e+02 9.612821e-06
9.670000e+02 1.918001e-06
9.680000e+02 1.405715e-06
9.690000e+02 5.621114e-05
9.700000e+02 7.429909e-05
9.710000e+02 2.977534e-06
9.720000e+02 1.757471e-06
9.730000e+02 4.952353e-05
9.740000e+02 9.108840e-05
9.750000e+02 2.088237e-05
9.760000e+02 6.872128e-04
9.770000e+02 2.934970e-04
9.780000e+02 1.184493e-04
9.790000e+02 6.536723e-03
9.800000e+02 4.174682e-03
9.810000e+02 7.628277e-05
9.820000e+02 1.520681e-05
9.830000e+02 2.141116e-03
9.840000e+02 5.891745e-04
9.850000e+02 3.710800e-05
9.860000e+02 6.277173e-05
9.870000e+02 2.248996e-03
9.880000e+02 2.257177e-06
9.890000e+02 3.719988e-04
9.900000e+02 1.268378e-03
9.910000e+02 1.638752e-05
9.920000e+02 2.409917e-06
9.930000e+02 1.140894e-02
9.940000e+02 8.574629e-06
9.950000e+02 6.197816e-04
9.960000e+02 5.777925e-06
9.970000e+02 1.139741e-03
9.980000e+02 1.368496e-03
9.990000e+02 2.945783e-05
1.000000e+03 2.376824e-02
1.001000e+03 1.613000e-02
1.002000e+03 7.491626e-03
1.003000e+03 2.977159e-05
1.004000e+03 4.967209e-06
1.005000e+03 1.031253e-04
1.006000e+03 4.530670e-03
1.007000e+03 9.655708e-03
1.008000e+03 2.246722e-03
1.009000e+03 4.805189e-05
1.010000e+03 2.344654e-03
1.011000e+03 3.417004e-03
1.012000e+03 3.315890e-03
1.013000e+03 3.048433e-03
1.014000e+03 7.997383e-06
1.015000e+03 8.983770e-06
1.016000e+03 1.411093e-04
1.017000e+03 9.377487e-06
1.018000e+03 4.677405e-05
1.019000e+03 1.065433e-05
1.020000e+03 8.069968e-03
1.021000e+03 9.292876e-05
1.022000e+03 1.342827e-04
1.023000e+03 1.506787e-05
1.024000e+03 4.496635e-03
1.025000e+03 1.427543e-05
1.026000e+03 3.304718e-05
1.027000e+03 6.549428e-04
1.028000e+03 2.492005e-04
1.029000e+03 1.756893e-05
1.030000e+03 5.234964e-04
1.031000e+03 1.009911e-03
1.032000e+03 1.210546e-02
1.033000e+03 1.650539e-03
1.034000e+03 1.307434e-03
1.035000e+03 1.919782e-04
1.036000e+03 2.517086e-05
1.037000e+03 8.276424e-03
1.038000e+03 5.285890e-02
1.039000e+03 8.597627e-03
1.040000e+03 8.091647e-03
1.041000e+03 5.452149e-02
1.042000e+03 2.792710e-02
1.043000e+03 3.326227e-02
1.044000e+03 2.075936e-01
1.045000e+03 1.219800e-04
1.046000e+03 8.196000e-03
1.047000e+03 3.300469e-03
1.048000e+03 9.531435e-05
1.049000e+03 3.231426e-03
1.050000e+03 1.021746e-03
1.051000e+03 5.797893e-04
1.052000e+03 3.769761e-02
1.053000e+03 7.016541e-02
1.054000e+03 6.193109e-05
1.055000e+03 9.046982e-02
1.056000e+03 1.002028e-01
1.057000e+03 9.395084e-03
1.058000e+03 5.667461e-04
1.059000e+03 5.702898e-04
1.060000e+03 1.567248e-04
1.061000e+03 1.540476e-02
1.062000e+03 3.238850e-04
1.063000e+03 1.547531e-02
1.064000e+03 2.458692e-04
1.065000e+03 1.057163e-04
1.066000e+03 2.280240e-02
1.067000e+03 4.147576e-04
1.068000e+03 2.622647e-01
1.069000e+03 1.607582e-04
1.070000e+03 4.809350e-03
1.071000e+03 6.342482e-02
1.072000e+03 2.212500e-01
1.073000e+03 1.550466e-04
1.074000e+03 1.097274e-02
1.075000e+03 6.533086e-03
1.076000e+03 2.520841e-01
1.077000e+03 5.742712e-04
1.078000e+03 8.395463e-04
1.079000e+03 3.598630e-03
1.080000e+03 1.388606e-02
1.081000e+03 5.653421e-02
1.082000e+03 3.283978e-02
1.083000e+03 1.808375e-02
1.084000e+03 8.505454e-01
1.085000e+03 4.993290e-03
1.086000e+03 4.061951e-01
1.087000e+03 1.100957e-03
1.088000e+03 1.088095e+00
1.089000e+03 1.167226e+00
1.090000e+03 4.000584e-03
1.091000e+03 5.879402e-03
1.092000e+03 7.128108e-01
1.093000e+03 1.042807e+00
1.094000e+03 4.588562e-02
1.095000e+03 1.876785e+00
1.096000e+03 4.004802e-01
1.097000e+03 2.061447e-01
1.098000e+03 1.325533e+00
1.099000e+03 1.473045e-02
1.100000e+03 6.028265e-04
1.101000e+03 1.057986e-03
1.102000e+03 9.937092e-03
1.103000e+03 1.201742e+00
1.104000e+03 2.102375e+00
1.105000e+03 1.617998e+00
1.106000e+03 4.469219e-02
1.107000e+03 8.880496e-04
1.108000e+03 2.623000e-01
1.109000e+03 6.020248e-03
1.110000e+03 2.371649e+00
1.111000e+03 8.468958e-01
1.112000e+03 1.244885e-01
1.113000e+03 1.974230e+00
1.114000e+03 7.820681e-02
1.115000e+03 7.710919e-03
1.116000e+03 3.186840e-03
1.117000e+03 9.618094e-01
1.118000e+03 1.012160e-02
1.119000e+03 1.459736e-01
1.120000e+03 4.412055e-03
1.121000e+03 6.089579e-01
1.122000e+03 4.569468e+00
1.123000e+03 1.319501e+00
1.124000e+03 1.533388e+00
1.125000e+03 6.695173e-01
1.126000e+03 1.204525e+01
1.127000e+03 8.707447e-01
1.128000e+03 5.415062e+00
1.129000e+03 4.235134e-01
1.130000e+03 2.717823e+00
1.131000e+03 5.377545e+00
1.132000e+03 8.154541e-03
1.133000e+03 5.298328e-02
1.134000e+03 5.369658e-01
1.135000e+03 4.578690e+00
1.136000e+03 1.092321e-01
1.137000e+03 1.955080e+00
1.138000e+03 4.545262e-01
1.139000e+03 5.311391e+00
1.140000e+03 4.782014e+00
1.141000e+03 4.443648e+00
1.142000e+03 7.958094e+00
1.143000e+03 6.007299e-01
1.144000e+03 7.569243e+00
1.145000e+03 5.740404e-03
1.146000e+03 9.327342e+00
1.147000e+03 5.567413e+00
1.148000e+03 3.204298e-02
1.149000e+03 2.363862e+00
1.150000e+03 1.604514e+00
1.151000e+03 8.045212e+00
1.152000e+03 3.236260e+00
1.153000e+03 6.212327e+00
1.154000e+03 1.185228e+01
1.155000e+03 2.280120e+00
1.156000e+03 9.509817e+00
1.157000e+03 1.112915e+01
1.158000e+03 7.652807e-01
1.159000e+03 8.227331e+00
1.160000e+03 1.020313e+00
1.161000e+03 6.636249e+00
1.162000e+03 1.400890e-01
1.163000e+03 4.808645e-01
1.164000e+03 1.050203e-01
1.165000e+03 3.060863e+00
1.166000e+03 1.906098e+00
1.167000e+03 1.882471e+00
1.168000e+03 1.094920e+01
1.169000e+03 1.356012e+01
1.170000e+03 1.214902e+00
1.171000e+03 5.517188e+00
1.172000e+03 1.766332e+00
1.173000e+03 5.674069e+00
1.174000e+03 2.944261e-02
1.175000e+03 6.255955e-02
1.176000e+03 2.203715e-02
1.177000e+03 1.709898e+01
1.178000e+03 1.712416e+01
1.179000e+03 1.215826e+01
1.180000e+03 3.671713e+00
1.181000e+03 1.543458e+01
1.182000e+03 1.094790e+01
1.183000e+03 3.880688e+00
1.184000e+03 3.069080e+00
1.185000e+03 4.080763e+00
1.186000e+03 1.391657e-01
1.187000e+03 7.656232e+00
1.188000e+03 2.378896e+00
1.189000e+03 1.328285e+01
1.190000e+03 1.219809e+01
1.191000e+03 7.045942e+00
1.192000e+03 9.873180e+00
1.193000e+03 5.997241e+00
1.194000e+03 9.528296e+00
1.195000e+03 8.857743e+00
1.196000e+03 2.512606e+01
1.197000e+03 8.352256e+01
1.198000e+03 4.060497e-01
1.199000e+03 7.854648e+01
1.200000e+03 1.273718e+00
1.201000e+03 5.013480e+01
1.202000e+03 7.723912e+00
1.203000e+03 3.031830e+01
1.204000e+03 1.405190e+00
1.205000e+03 2.097710e+01
1.206000e+03 2.290426e+01
1.207000e+03 7.707905e+00
1.208000e+03 1.422363e+01
1.209000e+03 1.609739e+01
1.210000e+03 1.078591e-01
1.211000e+03 7.099804e+00
1.212000e+03 2.547405e+00
1.213000e+03 2.134051e+00
1.214000e+03 7.256433e-01
1.215000e+03 1.055570e-01
1.216000e+03 6.046351e-02
1.217000e+03 4.676008e-01
1.218000e+03 1.822639e+00
1.219000e+03 4.254015e+00
1.220000e+03 1.595536e+00
1.221000e+03 1.301658e+01
1.222000e+03 1.260430e+01
1.223000e+03 9.935616e+00
1.224000e+03 3.735207e+01
1.225000e+03 7.321053e-01
1.226000e+03 7.015247e+01
1.227000e+03 6.668013e+01
1.228000e+03 5.022240e+00
1.229000e+03 4.833674e+01
1.230000e+03 3.159678e+01
1.231000e+03 2.840912e+00
1.232000e+03 1.872392e+02
1.233000e+03 2.262894e+02
1.234000e+03 2.354491e+02
1.235000e+03 1.247020e+02
1.236000e+03 7.700592e+00
1.237000e+03 2.474329e+02
1.238000e+03 1.685163e+02
1.239000e+03 4.548768e+01
1.240000e+03 1.741868e+02
1.241000e+03 5.295301e+01
1.242000e+03 1.350823e+02
1.243000e+03 3.416783e+02
1.244000e+03 4.158035e+02
1.245000e+03 2.989996e+02
1.246000e+03 1.063528e+02
1.247000e+03 1.828921e+02
1.248000e+03 4.526741e+02
1.249000e+03 6.142922e+02
1.250000e+03 3.036470e+02
1.251000e+03 4.853161e+02
1.252000e+03 2.355263e+02
1.253000e+03 5.992139e+02
1.254000e+03 2.700436e+02
1.255000e+03 2.022570e+02
1.256000e+03 1.979093e+02
1.257000e+03 3.464026e+02
1.258000e+03 7.573270e+01
1.259000e+03 1.307831e+02
1.260000e+03 5.357892e+02
1.261000e+03 3.257391e+01
1.262000e+03 6.878476e+02
1.263000e+03 3.632966e+02
1.264000e+03 1.038572e+02
1.265000e+03 1.622981e+02
1.266000e+03 5.802205e+02
1.267000e+03 1.720627e+02
