# wavelength_A flux
5.000000e+02 1.141608e-11
5.010000e+02 1.315316e-11
5.020000e+02 1.514572e-11
5.030000e+02 1.743000e-11
5.040000e+02 2.004724e-11
5.050000e+02 2.334129e-11
5.060000e+02 2.681297e-11
5.070000e+02 3.078359e-11
5.080000e+02 3.532237e-11
5.090000e+02 4.050782e-11
5.100000e+02 4.642858e-11
5.110000e+02 5.318540e-11
5.120000e+02 6.089212e-11
5.130000e+02 6.967754e-11
5.140000e+02 7.968728e-11
5.150000e+02 9.108538e-11
5.160000e+02 1.040592e-10
5.170000e+02 1.188143e-10
5.180000e+02 1.355957e-10
5.190000e+02 1.546625e-10
5.200000e+02 1.763180e-10
5.210000e+02 2.009009e-10
5.220000e+02 2.287796e-10
5.230000e+02 2.604230e-10
5.240000e+02 2.962746e-10
5.250000e+02 3.368922e-10
5.260000e+02 3.828829e-10
5.270000e+02 4.349332e-10
5.280000e+02 4.938124e-10
5.290000e+02 5.603141e-10
5.300000e+02 6.356157e-10
5.310000e+02 7.205934e-10
5.320000e+02 8.165338e-10
5.330000e+02 9.247973e-10
5.340000e+02 1.046910e-09
5.350000e+02 1.184576e-09
5.360000e+02 1.339701e-09
5.370000e+02 1.504803e-09
5.380000e+02 1.711118e-09
5.390000e+02 1.932488e-09
5.400000e+02 2.181454e-09
5.410000e+02 2.461237e-09
5.420000e+02 2.775859e-09
5.430000e+02 3.129154e-09
5.440000e+02 3.525785e-09
5.450000e+02 3.970887e-09
5.460000e+02 4.469722e-09
5.470000e+02 5.029950e-09
5.480000e+02 5.657309e-09
5.490000e+02 6.360102e-09
5.500000e+02 7.147037e-09
5.510000e+02 8.027813e-09
5.520000e+02 9.013196e-09
5.530000e+02 1.011514e-08
5.540000e+02 1.134689e-08
5.550000e+02 1.272318e-08
5.560000e+02 1.426030e-08
5.570000e+02 1.597633e-08
5.580000e+02 1.789131e-08
5.590000e+02 2.002739e-08
5.600000e+02 2.240914e-08
5.610000e+02 2.506371e-08
5.620000e+02 2.802115e-08
5.630000e+02 3.131467e-08
5.640000e+02 3.498098e-08
5.650000e+02 3.906063e-08
5.660000e+02 4.359845e-08
5.670000e+02 4.864383e-08
5.680000e+02 5.425136e-08
5.690000e+02 6.048121e-08
5.700000e+02 6.739970e-08
5.710000e+02 7.508008e-08
5.720000e+02 8.360284e-08
5.730000e+02 9.305678e-08
5.740000e+02 1.035396e-07
5.750000e+02 1.151598e-07
5.760000e+02 1.280281e-07
5.770000e+02 1.422929e-07
5.780000e+02 1.580799e-07
5.790000e+02 1.755521e-07
5.800000e+02 1.948821e-07
5.810000e+02 2.162597e-07
5.820000e+02 2.398927e-07
5.830000e+02 2.660087e-07
5.840000e+02 2.948192e-07
5.850000e+02 3.267141e-07
5.860000e+02 3.618981e-07
5.870000e+02 4.007144e-07
5.880000e+02 4.435331e-07
5.890000e+02 4.907481e-07
5.900000e+02 5.428014e-07
5.910000e+02 6.001595e-07
5.920000e+02 6.633444e-07
5.930000e+02 7.329238e-07
5.940000e+02 8.095184e-07
5.950000e+02 8.938043e-07
5.960000e+02 9.865299e-07
5.970000e+02 1.088497e-06
5.980000e+02 1.200593e-06
5.990000e+02 1.323781e-06
6.000000e+02 1.459114e-06
6.010000e+02 1.607728e-06
6.020000e+02 1.770912e-06
6.030000e+02 1.949992e-06
6.040000e+02 2.146467e-06
6.050000e+02 2.361959e-06
6.060000e+02 2.598227e-06
6.070000e+02 2.857200e-06
6.080000e+02 3.140959e-06
6.090000e+02 3.451780e-06
6.100000e+02 3.792137e-06
6.110000e+02 4.164718e-06
6.120000e+02 4.572446e-06
6.130000e+02 5.018495e-06
6.140000e+02 5.506317e-06
6.150000e+02 6.039659e-06
6.160000e+02 6.622587e-06
6.170000e+02 7.259516e-06
6.180000e+02 7.955236e-06
6.190000e+02 8.714943e-06
6.200000e+02 9.544272e-06
6.210000e+02 1.044933e-05
6.220000e+02 1.143674e-05
6.230000e+02 1.251366e-05
6.240000e+02 1.368788e-05
6.250000e+02 1.496780e-05
6.260000e+02 1.636252e-05
6.270000e+02 1.788189e-05
6.280000e+02 1.953659e-05
6.290000e+02 2.133814e-05
6.300000e+02 2.329900e-05
6.310000e+02 2.542990e-05
6.320000e+02 2.775369e-05
6.330000e+02 3.027773e-05
6.340000e+02 3.302202e-05
6.350000e+02 3.600458e-05
6.360000e+02 3.924219e-05
6.370000e+02 4.276615e-05
6.380000e+02 4.658941e-05
6.390000e+02 5.074027e-05
6.400000e+02 5.524555e-05
6.410000e+02 6.013419e-05
6.420000e+02 6.543737e-05
6.430000e+02 7.118867e-05
6.440000e+02 7.742428e-05
6.450000e+02 8.418316e-05
6.460000e+02 9.150735e-05
6.470000e+02 9.944190e-05
6.480000e+02 1.080355e-04
6.490000e+02 1.173404e-04
6.500000e+02 1.274129e-04
6.510000e+02 1.383134e-04
6.520000e+02 1.501069e-04
6.530000e+02 1.628634e-04
6.540000e+02 1.766578e-04
6.550000e+02 1.915709e-04
6.560000e+02 2.076893e-04
6.570000e+02 2.251042e-04
6.580000e+02 2.439206e-04
6.590000e+02 2.642406e-04
6.600000e+02 2.861806e-04
6.610000e+02 3.098642e-04
6.620000e+02 3.354234e-04
6.630000e+02 3.630001e-04
6.640000e+02 3.927461e-04
6.650000e+02 4.248242e-04
6.660000e+02 4.594093e-04
6.670000e+02 4.966878e-04
6.680000e+02 5.368600e-04
6.690000e+02 5.801401e-04
6.700000e+02 6.267574e-04
6.710000e+02 6.769574e-04
6.720000e+02 7.310025e-04
6.730000e+02 7.891739e-04
6.740000e+02 8.517716e-04
6.750000e+02 9.191168e-04
6.760000e+02 9.915528e-04
6.770000e+02 1.069447e-03
6.780000e+02 1.153190e-03
6.790000e+02 1.243201e-03
6.800000e+02 1.339929e-03
6.810000e+02 1.443848e-03
6.820000e+02 1.555471e-03
6.830000e+02 1.675340e-03
6.840000e+02 1.804036e-03
6.850000e+02 1.942178e-03
6.860000e+02 2.090428e-03
6.870000e+02 2.249486e-03
6.880000e+02 2.420110e-03
6.890000e+02 2.603094e-03
6.900000e+02 2.799293e-03
6.910000e+02 3.009618e-03
6.920000e+02 3.235033e-03
6.930000e+02 3.476572e-03
6.940000e+02 3.735333e-03
6.950000e+02 4.012483e-03
6.960000e+02 4.309267e-03
6.970000e+02 4.626977e-03
6.980000e+02 4.967116e-03
6.990000e+02 5.331089e-03
7.000000e+02 5.720519e-03
7.010000e+02 6.137100e-03
7.020000e+02 6.582634e-03
7.030000e+02 7.059035e-03
7.040000e+02 7.568338e-03
7.050000e+02 8.112703e-03
7.060000e+02 8.694427e-03
7.070000e+02 9.315947e-03
7.080000e+02 9.979852e-03
7.090000e+02 1.068889e-02
7.100000e+02 1.144598e-02
7.110000e+02 1.225422e-02
7.120000e+02 1.311689e-02
7.130000e+02 1.403747e-02
7.140000e+02 1.501967e-02
7.150000e+02 1.606739e-02
7.160000e+02 1.718480e-02
7.170000e+02 1.837628e-02
7.180000e+02 1.964645e-02
7.190000e+02 2.100052e-02
7.200000e+02 2.244342e-02
7.210000e+02 2.398082e-02
7.220000e+02 2.561859e-02
7.230000e+02 2.736295e-02
7.240000e+02 2.922050e-02
7.250000e+02 3.119820e-02
7.260000e+02 3.330344e-02
7.270000e+02 3.554402e-02
7.280000e+02 3.792821e-02
7.290000e+02 4.046475e-02
7.300000e+02 4.316287e-02
7.310000e+02 4.603234e-02
7.320000e+02 4.908350e-02
7.330000e+02 5.232725e-02
7.340000e+02 5.577515e-02
7.350000e+02 5.943936e-02
7.360000e+02 6.333276e-02
7.370000e+02 6.746900e-02
7.380000e+02 7.186238e-02
7.390000e+02 7.652811e-02
7.400000e+02 8.148211e-02
7.410000e+02 8.674147e-02
7.420000e+02 9.232380e-02
7.430000e+02 9.824813e-02
7.440000e+02 1.045342e-01
7.450000e+02 1.112029e-01
7.460000e+02 1.182764e-01
7.470000e+02 1.257779e-01
7.480000e+02 1.337321e-01
7.490000e+02 1.421648e-01
7.500000e+02 1.511032e-01
7.510000e+02 1.605762e-01
7.520000e+02 1.706140e-01
7.530000e+02 1.812485e-01
7.540000e+02 1.925133e-01
7.550000e+02 2.044438e-01
7.560000e+02 2.170774e-01
7.570000e+02 2.304523e-01
7.580000e+02 2.446123e-01
7.590000e+02 2.595981e-01
7.600000e+02 2.754572e-01
7.610000e+02 2.922369e-01
7.620000e+02 3.099880e-01
7.630000e+02 3.287637e-01
7.640000e+02 3.486200e-01
7.650000e+02 3.696158e-01
7.660000e+02 3.918131e-01
7.670000e+02 4.152767e-01
7.680000e+02 4.400743e-01
7.690000e+02 4.662802e-01
7.700000e+02 4.939674e-01
7.710000e+02 5.232160e-01
7.720000e+02 5.541094e-01
7.730000e+02 5.867349e-01
7.740000e+02 6.211845e-01
7.750000e+02 6.575545e-01
7.760000e+02 6.959341e-01
7.770000e+02 7.364660e-01
7.780000e+02 7.792252e-01
7.790000e+02 8.243409e-01
7.800000e+02 8.719359e-01
7.810000e+02 9.221389e-01
7.820000e+02 9.750849e-01
7.830000e+02 1.030916e+00
7.840000e+02 1.089780e+00
7.850000e+02 1.151833e+00
7.860000e+02 1.217237e+00
7.870000e+02 1.286167e+00
7.880000e+02 1.358798e+00
7.890000e+02 1.435319e+00
7.900000e+02 1.515927e+00
7.910000e+02 1.600828e+00
7.920000e+02 1.690239e+00
7.930000e+02 1.784385e+00
7.940000e+02 1.883503e+00
7.950000e+02 1.987841e+00
7.960000e+02 2.097658e+00
7.970000e+02 2.213227e+00
7.980000e+02 2.334830e+00
7.990000e+02 2.462767e+00
8.000000e+02 2.597347e+00
8.010000e+02 2.738896e+00
8.020000e+02 2.887756e+00
8.030000e+02 3.044282e+00
8.040000e+02 3.208846e+00
8.050000e+02 3.381838e+00
8.060000e+02 3.563665e+00
8.070000e+02 3.754752e+00
8.080000e+02 3.955545e+00
8.090000e+02 4.166507e+00
8.100000e+02 4.388125e+00
8.110000e+02 4.620905e+00
8.120000e+02 4.865378e+00
8.130000e+02 5.122098e+00
8.140000e+02 5.391642e+00
8.150000e+02 5.674613e+00
8.160000e+02 5.971645e+00
8.170000e+02 6.283393e+00
8.180000e+02 6.610544e+00
8.190000e+02 6.953816e+00
8.200000e+02 7.313957e+00
8.210000e+02 7.691747e+00
8.220000e+02 8.088001e+00
8.230000e+02 8.503569e+00
8.240000e+02 8.939338e+00
8.250000e+02 9.396231e+00
8.260000e+02 9.875214e+00
8.270000e+02 1.037729e+01
8.280000e+02 1.090351e+01
8.290000e+02 1.145496e+01
8.300000e+02 1.203279e+01
8.310000e+02 1.263818e+01
8.320000e+02 1.327236e+01
8.330000e+02 1.393663e+01
8.340000e+02 1.463233e+01
8.350000e+02 1.536039e+01
8.360000e+02 1.612364e+01
8.370000e+02 1.692229e+01
8.380000e+02 1.775828e+01
8.390000e+02 1.863331e+01
8.400000e+02 1.954908e+01
8.410000e+02 2.050737e+01
8.420000e+02 2.150990e+01
8.430000e+02 2.255903e+01
8.440000e+02 2.365634e+01
8.450000e+02 2.480406e+01
8.460000e+02 2.600438e+01
8.470000e+02 2.725955e+01
8.480000e+02 2.857193e+01
8.490000e+02 2.994398e+01
8.500000e+02 3.137823e+01
8.510000e+02 3.287735e+01
8.520000e+02 3.444407e+01
8.530000e+02 3.608128e+01
8.540000e+02 3.779199e+01
8.550000e+02 3.957920e+01
8.560000e+02 4.144619e+01
8.570000e+02 4.339627e+01
8.580000e+02 4.543294e+01
8.590000e+02 4.755979e+01
8.600000e+02 4.978058e+01
8.610000e+02 5.209921e+01
8.620000e+02 5.451970e+01
8.630000e+02 5.704626e+01
8.640000e+02 5.968327e+01
8.650000e+02 6.243521e+01
8.660000e+02 6.530686e+01
8.670000e+02 6.830303e+01
8.680000e+02 7.142882e+01
8.690000e+02 7.468946e+01
8.700000e+02 7.809038e+01
8.710000e+02 8.163739e+01
8.720000e+02 8.533620e+01
8.730000e+02 8.919297e+01
8.740000e+02 9.321401e+01
8.750000e+02 9.740589e+01
8.760000e+02 1.017754e+02
8.770000e+02 1.063296e+02
8.780000e+02 1.110758e+02
8.790000e+02 1.160216e+02
8.800000e+02 1.211748e+02
8.810000e+02 1.265437e+02
8.820000e+02 1.321366e+02
8.830000e+02 1.379622e+02
8.840000e+02 1.440298e+02
8.850000e+02 1.503487e+02
8.860000e+02 1.569285e+02
8.870000e+02 1.637795e+02
8.880000e+02 1.709121e+02
8.890000e+02 1.783370e+02
8.900000e+02 1.860656e+02
8.910000e+02 1.941095e+02
8.920000e+02 2.024055e+02
8.930000e+02 2.111914e+02
8.940000e+02 2.202548e+02
8.950000e+02 2.296843e+02
8.960000e+02 2.394935e+02
8.970000e+02 2.496969e+02
8.980000e+02 2.603092e+02
8.990000e+02 2.713457e+02
9.000000e+02 2.828224e+02
9.010000e+02 2.947555e+02
9.020000e+02 3.071621e+02
9.030000e+02 3.200598e+02
9.040000e+02 3.334666e+02
9.050000e+02 3.474016e+02
9.060000e+02 3.618839e+02
9.070000e+02 3.769327e+02
9.080000e+02 3.925719e+02
9.090000e+02 4.088198e+02
9.100000e+02 4.256997e+02
9.110000e+02 4.432350e+02
9.120000e+02 4.614510e+02
9.130000e+02 4.792946e+02
9.140000e+02 5.038429e+02
9.150000e+02 2.617780e+03
9.160000e+02 4.588621e+03
9.170000e+02 4.672705e+03
9.180000e+02 4.606206e+03
9.190000e+02 5.505445e+03
9.200000e+02 5.778669e+03
9.210000e+02 6.585849e+02
9.220000e+02 6.182542e+03
9.230000e+02 5.587239e+03
9.240000e+02 6.090971e+03
9.250000e+02 6.709396e+03
9.260000e+02 6.741226e+03
9.270000e+02 7.053011e+03
9.280000e+02 7.594791e+03
9.290000e+02 7.169807e+03
9.300000e+02 8.024863e+03
9.310000e+02 7.653331e+03
9.320000e+02 8.669805e+03
9.330000e+02 8.959803e+03
9.340000e+02 9.185821e+03
9.350000e+02 2.010638e+03
9.360000e+02 9.179938e+03
9.370000e+02 1.753044e+03
9.380000e+02 6.209520e+03
9.390000e+02 1.042959e+04
9.400000e+02 1.125862e+04
9.410000e+02 4.788452e+03
9.420000e+02 1.199495e+04
9.430000e+02 1.201061e+04
9.440000e+02 1.032638e+04
9.450000e+02 1.323205e+04
9.460000e+02 1.361921e+04
9.470000e+02 1.223057e+04
9.480000e+02 1.333595e+04
9.490000e+02 1.488196e+04
9.500000e+02 3.116126e+03
9.510000e+02 1.555059e+04
9.520000e+02 1.648346e+04
9.530000e+02 1.494067e+04
9.540000e+02 1.392064e+04
9.550000e+02 1.792745e+04
9.560000e+02 1.757610e+04
9.570000e+02 1.107946e+04
9.580000e+02 1.454081e+04
9.590000e+02 2.072123e+04
9.600000e+02 4.031568e+03
9.610000e+02 2.195795e+04
9.620000e+02 2.243845e+04
9.630000e+02 2.313269e+04
9.640000e+02 3.420977e+03
9.650000e+02 2.107730e+04
9.660000e+02 2.529523e+04
9.670000e+02 2.504448e+04
9.680000e+02 2.425229e+04
9.690000e+02 2.786317e+04
9.700000e+02 2.869302e+04
9.710000e+02 2.775872e+04
9.720000e+02 2.772094e+04
9.730000e+02 2.884259e+04
9.740000e+02 3.226038e+04
9.750000e+02 3.320162e+04
9.760000e+02 3.492146e+04
9.770000e+02 3.595375e+04
9.780000e+02 3.670083e+04
9.790000e+02 3.834110e+04
9.800000e+02 3.950387e+04
9.810000e+02 4.035959e+04
9.820000e+02 4.029266e+04
9.830000e+02 4.319196e+04
9.840000e+02 2.013112e+04
9.850000e+02 4.515822e+04
9.860000e+02 4.641752e+04
9.870000e+02 4.864008e+04
9.880000e+02 4.317342e+04
9.890000e+02 4.316059e+04
9.900000e+02 9.649084e+03
9.910000e+02 4.990397e+04
9.920000e+02 3.808628e+04
9.930000e+02 5.588872e+04
9.940000e+02 1.047994e+04
9.950000e+02 2.014826e+04
9.960000e+02 5.581158e+04
9.970000e+02 1.703724e+04
9.980000e+02 6.670513e+04
9.990000e+02 6.419129e+04
1.000000e+03 7.100965e+04
1.001000e+03 7.319127e+04
1.002000e+03 7.527011e+04
1.003000e+03 7.216259e+04
1.004000e+03 7.051116e+04
1.005000e+03 7.647850e+04
1.006000e+03 8.433945e+04
1.007000e+03 8.679953e+04
1.008000e+03 8.909776e+04
1.009000e+03 8.821622e+04
1.010000e+03 9.430250e+04
1.011000e+03 9.709305e+04
1.012000e+03 9.970075e+04
1.013000e+03 1.024490e+05
1.014000e+03 6.997926e+04
1.015000e+03 8.994656e+04
1.016000e+03 1.071088e+05
1.017000e+03 7.757319e+04
1.018000e+03 1.138461e+05
1.019000e+03 1.017356e+05
1.020000e+03 1.241410e+05
1.021000e+03 7.349545e+04
1.022000e+03 1.131178e+05
1.023000e+03 1.117337e+05
1.024000e+03 1.299182e+05
1.025000e+03 7.845939e+04
1.026000e+03 5.592169e+04
1.027000e+03 1.339406e+05
1.028000e+03 3.790584e+04
1.029000e+03 1.096604e+05
1.030000e+03 1.601923e+05
1.031000e+03 1.637121e+05
1.032000e+03 1.717386e+05
1.033000e+03 6.624397e+04
1.034000e+03 1.807089e+05
1.035000e+03 4.171836e+04
1.036000e+03 1.354544e+05
1.037000e+03 1.761771e+05
1.038000e+03 2.033392e+05
1.039000e+03 2.077002e+05
1.040000e+03 2.142226e+05
1.041000e+03 2.192076e+05
1.042000e+03 2.253446e+05
1.043000e+03 2.224144e+05
1.044000e+03 2.386093e+05
1.045000e+03 2.444646e+05
1.046000e+03 2.515098e+05
1.047000e+03 2.553900e+05
1.048000e+03 2.380201e+05
1.049000e+03 2.682184e+05
1.050000e+03 2.763176e+05
1.051000e+03 2.805662e+05
1.052000e+03 2.941393e+05
1.053000e+03 3.010930e+05
1.054000e+03 2.113593e+05
1.055000e+03 3.181023e+05
1.056000e+03 3.266359e+05
1.057000e+03 3.329527e+05
1.058000e+03 3.391753e+05
1.059000e+03 3.309881e+05
1.060000e+03 3.272989e+05
1.061000e+03 3.693634e+05
1.062000e+03 3.707933e+05
1.063000e+03 1.776781e+05
1.064000e+03 9.282497e+04
1.065000e+03 2.984439e+05
1.066000e+03 3.899066e+05
1.067000e+03 3.956601e+05
1.068000e+03 4.443516e+05
1.069000e+03 3.717628e+05
1.070000e+03 4.636802e+05
1.071000e+03 4.791954e+05
1.072000e+03 4.912088e+05
1.073000e+03 3.911170e+05
1.074000e+03 5.104123e+05
1.075000e+03 5.199842e+05
1.076000e+03 5.426156e+05
1.077000e+03 5.119134e+05
1.078000e+03 5.575975e+05
1.079000e+03 5.781905e+05
1.080000e+03 5.950968e+05
1.081000e+03 6.120162e+05
1.082000e+03 6.265899e+05
1.083000e+03 6.408230e+05
1.084000e+03 6.604823e+05
1.085000e+03 5.756299e+05
1.086000e+03 6.931592e+05
1.087000e+03 6.649351e+05
1.088000e+03 7.256969e+05
1.089000e+03 7.450359e+05
1.090000e+03 7.452056e+05
1.091000e+03 7.619799e+05
1.092000e+03 8.001715e+05
1.093000e+03 8.189978e+05
1.094000e+03 8.370277e+05
1.095000e+03 8.591832e+05
1.096000e+03 8.720781e+05
1.097000e+03 8.948267e+05
1.098000e+03 9.206937e+05
1.099000e+03 9.375256e+05
1.100000e+03 8.600366e+05
1.101000e+03 8.656306e+05
1.102000e+03 1.831446e+06
1.103000e+03 6.305874e+06
1.104000e+03 2.248395e+06
1.105000e+03 1.021161e+06
1.106000e+03 1.027019e+07
1.107000e+03 2.192160e+06
1.108000e+03 1.245231e+07
1.109000e+03 5.115290e+06
1.110000e+03 4.427324e+06
1.111000e+03 2.221850e+06
1.112000e+03 1.198056e+07
1.113000e+03 1.437839e+07
1.114000e+03 9.034480e+05
1.115000e+03 8.174285e+06
1.116000e+03 7.154866e+06
1.117000e+03 8.915570e+05
1.118000e+03 6.717974e+06
1.119000e+03 1.455999e+07
1.120000e+03 7.720260e+06
1.121000e+03 1.477391e+07
1.122000e+03 4.107900e+05
1.123000e+03 2.732408e+06
1.124000e+03 1.685012e+07
1.125000e+03 1.102157e+07
1.126000e+03 1.800306e+07
1.127000e+03 1.750026e+07
1.128000e+03 7.143699e+06
1.129000e+03 1.683122e+07
1.130000e+03 1.788528e+07
1.131000e+03 1.939264e+07
1.132000e+03 1.252860e+06
1.133000e+03 1.026139e+07
1.134000e+03 1.794863e+07
1.135000e+03 9.406190e+05
1.136000e+03 1.531569e+07
1.137000e+03 2.123205e+07
1.138000e+03 1.916498e+07
1.139000e+03 2.169668e+07
1.140000e+03 7.634210e+05
1.141000e+03 2.265695e+07
1.142000e+03 2.331564e+07
1.143000e+03 2.290309e+07
1.144000e+03 2.423273e+07
1.145000e+03 7.275621e+06
1.146000e+03 2.514906e+07
1.147000e+03 2.497949e+07
1.148000e+03 1.387346e+07
1.149000e+03 2.585119e+07
1.150000e+03 2.455415e+07
1.151000e+03 2.711367e+07
1.152000e+03 2.743369e+07
1.153000e+03 1.252274e+07
1.154000e+03 1.542771e+07
1.155000e+03 2.767704e+07
1.156000e+03 1.355746e+07
1.157000e+03 2.990864e+07
1.158000e+03 1.426097e+06
1.159000e+03 2.746459e+07
1.160000e+03 2.771433e+07
1.161000e+03 3.186872e+07
1.162000e+03 9.420772e+06
1.163000e+03 2.662127e+07
1.164000e+03 1.478238e+06
1.165000e+03 3.398293e+07
1.166000e+03 3.374043e+07
1.167000e+03 3.377508e+07
1.168000e+03 3.632294e+07
1.169000e+03 3.622957e+07
1.170000e+03 3.662288e+07
1.171000e+03 3.771633e+07
1.172000e+03 3.410098e+07
1.173000e+03 3.980657e+07
1.174000e+03 1.959346e+07
1.175000e+03 1.793992e+06
1.176000e+03 1.652734e+06
1.177000e+03 4.291118e+07
1.178000e+03 4.292506e+07
1.179000e+03 4.418578e+07
1.180000e+03 3.396882e+07
1.181000e+03 4.582665e+07
1.182000e+03 4.648214e+07
1.183000e+03 4.603244e+07
1.184000e+03 4.609334e+07
1.185000e+03 4.808203e+07
1.186000e+03 3.723438e+07
1.187000e+03 4.966123e+07
1.188000e+03 4.530728e+07
1.189000e+03 2.324996e+06
1.190000e+03 1.469738e+07
1.191000e+03 5.107429e+07
1.192000e+03 5.277138e+07
1.193000e+03 2.245928e+06
1.194000e+03 2.662516e+06
1.195000e+03 4.382124e+07
1.196000e+03 5.425344e+07
1.197000e+03 8.468711e+07
1.198000e+03 6.546704e+07
1.199000e+03 8.315531e+07
1.200000e+03 6.336813e+07
1.201000e+03 7.843250e+07
1.202000e+03 7.147941e+07
1.203000e+03 9.854174e+07
1.204000e+03 6.614957e+07
1.205000e+03 8.224771e+07
1.206000e+03 7.812878e+07
1.207000e+03 1.195567e+07
1.208000e+03 5.740621e+07
1.209000e+03 4.406220e+07
1.210000e+03 3.640382e+06
1.211000e+03 2.570988e+07
1.212000e+03 1.730820e+07
1.213000e+03 1.108784e+07
1.214000e+03 6.717072e+06
1.215000e+03 4.280224e+06
1.216000e+03 3.891211e+06
1.217000e+03 6.004998e+06
1.218000e+03 1.030334e+07
1.219000e+03 1.722668e+07
1.220000e+03 2.600016e+07
1.221000e+03 3.919531e+07
1.222000e+03 5.332499e+07
1.223000e+03 6.967144e+07
1.224000e+03 8.799610e+07
1.225000e+03 7.654405e+07
1.226000e+03 1.261982e+08
1.227000e+03 1.432198e+08
1.228000e+03 1.354510e+08
1.229000e+03 1.751569e+08
1.230000e+03 1.825118e+08
1.231000e+03 1.616002e+08
1.232000e+03 2.374384e+08
1.233000e+03 2.552579e+08
1.234000e+03 1.577292e+08
1.235000e+03 2.832479e+08
1.236000e+03 2.143936e+08
1.237000e+03 3.138506e+08
1.238000e+03 3.164460e+08
1.239000e+03 3.240200e+08
1.240000e+03 2.949258e+08
1.241000e+03 4.143705e+08
1.242000e+03 3.081690e+08
1.243000e+03 4.447602e+08
1.244000e+03 2.228166e+08
1.245000e+03 3.096727e+08
1.246000e+03 5.906675e+08
1.247000e+03 6.035396e+08
1.248000e+03 2.289082e+08
1.249000e+03 3.080023e+08
1.250000e+03 6.496570e+08
1.251000e+03 7.376740e+08
1.252000e+03 7.123079e+08
1.253000e+03 7.701414e+08
1.254000e+03 7.417738e+08
1.255000e+03 7.988236e+08
1.256000e+03 7.618252e+08
1.257000e+03 8.119676e+08
1.258000e+03 6.850911e+08
1.259000e+03 7.980713e+08
1.260000e+03 7.861773e+08
1.261000e+03 9.687864e+06
1.262000e+03 1.488590e+08
1.263000e+03 9.031824e+08
1.264000e+03 7.637426e+08
1.265000e+03 1.025040e+07
1.266000e+03 9.465243e+08
1.267000e+03 8.663194e+08
