# wavelength_A flux
5.000000e+02 4.889109e-09
5.010000e+02 5.564474e-09
5.020000e+02 6.329744e-09
5.030000e+02 7.196431e-09
5.040000e+02 8.177468e-09
5.050000e+02 9.524835e-09
5.060000e+02 1.081050e-08
5.070000e+02 1.226335e-08
5.080000e+02 1.390430e-08
5.090000e+02 1.575732e-08
5.100000e+02 1.784752e-08
5.110000e+02 2.020490e-08
5.120000e+02 2.286210e-08
5.130000e+02 2.585585e-08
5.140000e+02 2.922709e-08
5.150000e+02 3.302122e-08
5.160000e+02 3.729033e-08
5.170000e+02 4.208883e-08
5.180000e+02 4.748543e-08
5.190000e+02 5.354607e-08
5.200000e+02 6.035132e-08
5.210000e+02 6.798889e-08
5.220000e+02 7.654843e-08
5.230000e+02 8.616372e-08
5.240000e+02 9.693100e-08
5.250000e+02 1.089940e-07
5.260000e+02 1.225006e-07
5.270000e+02 1.376175e-07
5.280000e+02 1.545292e-07
5.290000e+02 1.733994e-07
5.300000e+02 1.945772e-07
5.310000e+02 2.181924e-07
5.320000e+02 2.445649e-07
5.330000e+02 2.740021e-07
5.340000e+02 3.068467e-07
5.350000e+02 3.434770e-07
5.360000e+02 3.843095e-07
5.370000e+02 4.240739e-07
5.380000e+02 4.804904e-07
5.390000e+02 5.369170e-07
5.400000e+02 5.997301e-07
5.410000e+02 6.695478e-07
5.420000e+02 7.472739e-07
5.430000e+02 8.336185e-07
5.440000e+02 9.295512e-07
5.450000e+02 1.036092e-06
5.460000e+02 1.154183e-06
5.470000e+02 1.285615e-06
5.480000e+02 1.431197e-06
5.490000e+02 1.592628e-06
5.500000e+02 1.771542e-06
5.510000e+02 1.969769e-06
5.520000e+02 2.189298e-06
5.530000e+02 2.432326e-06
5.540000e+02 2.701264e-06
5.550000e+02 2.998757e-06
5.560000e+02 3.327712e-06
5.570000e+02 3.691316e-06
5.580000e+02 4.093066e-06
5.590000e+02 4.536795e-06
5.600000e+02 5.026703e-06
5.610000e+02 5.567396e-06
5.620000e+02 6.163913e-06
5.630000e+02 6.821780e-06
5.640000e+02 7.547027e-06
5.650000e+02 8.346248e-06
5.660000e+02 9.226730e-06
5.670000e+02 1.019631e-05
5.680000e+02 1.126366e-05
5.690000e+02 1.243819e-05
5.700000e+02 1.373019e-05
5.710000e+02 1.515100e-05
5.720000e+02 1.671279e-05
5.730000e+02 1.842896e-05
5.740000e+02 2.031419e-05
5.750000e+02 2.238475e-05
5.760000e+02 2.465356e-05
5.770000e+02 2.715099e-05
5.780000e+02 2.988656e-05
5.790000e+02 3.288634e-05
5.800000e+02 3.617476e-05
5.810000e+02 3.977836e-05
5.820000e+02 4.372596e-05
5.830000e+02 4.804854e-05
5.840000e+02 5.276529e-05
5.850000e+02 5.795748e-05
5.860000e+02 6.362817e-05
5.870000e+02 6.982625e-05
5.880000e+02 7.660253e-05
5.890000e+02 8.400704e-05
5.900000e+02 9.210065e-05
5.910000e+02 1.009389e-04
5.920000e+02 1.105902e-04
5.930000e+02 1.211252e-04
5.940000e+02 1.326213e-04
5.950000e+02 1.451564e-04
5.960000e+02 1.588387e-04
5.970000e+02 1.737485e-04
5.980000e+02 1.899988e-04
5.990000e+02 2.077043e-04
6.000000e+02 2.269892e-04
6.010000e+02 2.479356e-04
6.020000e+02 2.708463e-04
6.030000e+02 2.957205e-04
6.040000e+02 3.227825e-04
6.050000e+02 3.522135e-04
6.060000e+02 3.842110e-04
6.070000e+02 4.189925e-04
6.080000e+02 4.567852e-04
6.090000e+02 4.978392e-04
6.100000e+02 5.424218e-04
6.110000e+02 5.908257e-04
6.120000e+02 6.433598e-04
6.130000e+02 7.003614e-04
6.140000e+02 7.621928e-04
6.150000e+02 8.292445e-04
6.160000e+02 9.019364e-04
6.170000e+02 9.807211e-04
6.180000e+02 1.066085e-03
6.190000e+02 1.158552e-03
6.200000e+02 1.258683e-03
6.210000e+02 1.367090e-03
6.220000e+02 1.484420e-03
6.230000e+02 1.611375e-03
6.240000e+02 1.748705e-03
6.250000e+02 1.897220e-03
6.260000e+02 2.057786e-03
6.270000e+02 2.231336e-03
6.280000e+02 2.418870e-03
6.290000e+02 2.621460e-03
6.300000e+02 2.840259e-03
6.310000e+02 3.076448e-03
6.320000e+02 3.331509e-03
6.330000e+02 3.606693e-03
6.340000e+02 3.903600e-03
6.350000e+02 4.223839e-03
6.360000e+02 4.562371e-03
6.370000e+02 4.941446e-03
6.380000e+02 5.342682e-03
6.390000e+02 5.775019e-03
6.400000e+02 6.240749e-03
6.410000e+02 6.742326e-03
6.420000e+02 7.282356e-03
6.430000e+02 7.863690e-03
6.440000e+02 8.489305e-03
6.450000e+02 9.162399e-03
6.460000e+02 9.886430e-03
6.470000e+02 1.066503e-02
6.480000e+02 1.150214e-02
6.490000e+02 1.240192e-02
6.500000e+02 1.336883e-02
6.510000e+02 1.440764e-02
6.520000e+02 1.552344e-02
6.530000e+02 1.672164e-02
6.540000e+02 1.800803e-02
6.550000e+02 1.938876e-02
6.560000e+02 2.087043e-02
6.570000e+02 2.245955e-02
6.580000e+02 2.416507e-02
6.590000e+02 2.599346e-02
6.600000e+02 2.795358e-02
6.610000e+02 3.005484e-02
6.620000e+02 3.230647e-02
6.630000e+02 3.471873e-02
6.640000e+02 3.730273e-02
6.650000e+02 4.006983e-02
6.660000e+02 4.303275e-02
6.670000e+02 4.620423e-02
6.680000e+02 4.959836e-02
6.690000e+02 5.322996e-02
6.700000e+02 5.711469e-02
6.710000e+02 6.126952e-02
6.720000e+02 6.571173e-02
6.730000e+02 7.046153e-02
6.740000e+02 7.553770e-02
6.750000e+02 8.096203e-02
6.760000e+02 8.675716e-02
6.770000e+02 9.294695e-02
6.780000e+02 9.955727e-02
6.790000e+02 1.066150e-01
6.800000e+02 1.141489e-01
6.810000e+02 1.221894e-01
6.820000e+02 1.307683e-01
6.830000e+02 1.399208e-01
6.840000e+02 1.496827e-01
6.850000e+02 1.600914e-01
6.860000e+02 1.711909e-01
6.870000e+02 1.830197e-01
6.880000e+02 1.956288e-01
6.890000e+02 2.090626e-01
6.900000e+02 2.233733e-01
6.910000e+02 2.386159e-01
6.920000e+02 2.548471e-01
6.930000e+02 2.721281e-01
6.940000e+02 2.905230e-01
6.950000e+02 3.100998e-01
6.960000e+02 3.309305e-01
6.970000e+02 3.530859e-01
6.980000e+02 3.766619e-01
6.990000e+02 4.017279e-01
7.000000e+02 4.283789e-01
7.010000e+02 4.567082e-01
7.020000e+02 4.868190e-01
7.030000e+02 5.188146e-01
7.040000e+02 5.528088e-01
7.050000e+02 5.889188e-01
7.060000e+02 6.272679e-01
7.070000e+02 6.679906e-01
7.080000e+02 7.112227e-01
7.090000e+02 7.571063e-01
7.100000e+02 8.058114e-01
7.110000e+02 8.574852e-01
7.120000e+02 9.123047e-01
7.130000e+02 9.704508e-01
7.140000e+02 1.032114e+00
7.150000e+02 1.097496e+00
7.160000e+02 1.166810e+00
7.170000e+02 1.240271e+00
7.180000e+02 1.318114e+00
7.190000e+02 1.400620e+00
7.200000e+02 1.488010e+00
7.210000e+02 1.580573e+00
7.220000e+02 1.678598e+00
7.230000e+02 1.782389e+00
7.240000e+02 1.892266e+00
7.250000e+02 2.008566e+00
7.260000e+02 2.131637e+00
7.270000e+02 2.261875e+00
7.280000e+02 2.399648e+00
7.290000e+02 2.545376e+00
7.300000e+02 2.699494e+00
7.310000e+02 2.862457e+00
7.320000e+02 3.034744e+00
7.330000e+02 3.216858e+00
7.340000e+02 3.409322e+00
7.350000e+02 3.612705e+00
7.360000e+02 3.827556e+00
7.370000e+02 4.054546e+00
7.380000e+02 4.294284e+00
7.390000e+02 4.547450e+00
7.400000e+02 4.814728e+00
7.410000e+02 5.096938e+00
7.420000e+02 5.394752e+00
7.430000e+02 5.709112e+00
7.440000e+02 6.040782e+00
7.450000e+02 6.390696e+00
7.460000e+02 6.759799e+00
7.470000e+02 7.149083e+00
7.480000e+02 7.559587e+00
7.490000e+02 7.992402e+00
7.500000e+02 8.448668e+00
7.510000e+02 8.929582e+00
7.520000e+02 9.436383e+00
7.530000e+02 9.970422e+00
7.540000e+02 1.053306e+01
7.550000e+02 1.112572e+01
7.560000e+02 1.174994e+01
7.570000e+02 1.240684e+01
7.580000e+02 1.309940e+01
7.590000e+02 1.382798e+01
7.600000e+02 1.459500e+01
7.610000e+02 1.540221e+01
7.620000e+02 1.625163e+01
7.630000e+02 1.714528e+01
7.640000e+02 1.808542e+01
7.650000e+02 1.907428e+01
7.660000e+02 2.011424e+01
7.670000e+02 2.120782e+01
7.680000e+02 2.235745e+01
7.690000e+02 2.356625e+01
7.700000e+02 2.483666e+01
7.710000e+02 2.617177e+01
7.720000e+02 2.757469e+01
7.730000e+02 2.904864e+01
7.740000e+02 3.059701e+01
7.750000e+02 3.222334e+01
7.760000e+02 3.392605e+01
7.770000e+02 3.572477e+01
7.780000e+02 3.760775e+01
7.790000e+02 3.958443e+01
7.800000e+02 4.165919e+01
7.810000e+02 4.383663e+01
7.820000e+02 4.612151e+01
7.830000e+02 4.851873e+01
7.840000e+02 5.103365e+01
7.850000e+02 5.367155e+01
7.860000e+02 5.643798e+01
7.870000e+02 5.933940e+01
7.880000e+02 6.238107e+01
7.890000e+02 6.556999e+01
7.900000e+02 6.891270e+01
7.910000e+02 7.241595e+01
7.920000e+02 7.608739e+01
7.930000e+02 7.993436e+01
7.940000e+02 8.396474e+01
7.950000e+02 8.818676e+01
7.960000e+02 9.260893e+01
7.970000e+02 9.724018e+01
7.980000e+02 1.020898e+02
7.990000e+02 1.071673e+02
8.000000e+02 1.124829e+02
8.010000e+02 1.180465e+02
8.020000e+02 1.238704e+02
8.030000e+02 1.299646e+02
8.040000e+02 1.363413e+02
8.050000e+02 1.430127e+02
8.060000e+02 1.499917e+02
8.070000e+02 1.572915e+02
8.080000e+02 1.649259e+02
8.090000e+02 1.729093e+02
8.100000e+02 1.812567e+02
8.110000e+02 1.899836e+02
8.120000e+02 1.991060e+02
8.130000e+02 2.086409e+02
8.140000e+02 2.186057e+02
8.150000e+02 2.290181e+02
8.160000e+02 2.398975e+02
8.170000e+02 2.512632e+02
8.180000e+02 2.631364e+02
8.190000e+02 2.755373e+02
8.200000e+02 2.884881e+02
8.210000e+02 3.020115e+02
8.220000e+02 3.161314e+02
8.230000e+02 3.308723e+02
8.240000e+02 3.462598e+02
8.250000e+02 3.623204e+02
8.260000e+02 3.790815e+02
8.270000e+02 3.965719e+02
8.280000e+02 4.148210e+02
8.290000e+02 4.338597e+02
8.300000e+02 4.537200e+02
8.310000e+02 4.744350e+02
8.320000e+02 4.960389e+02
8.330000e+02 5.185675e+02
8.340000e+02 5.420573e+02
8.350000e+02 5.664941e+02
8.360000e+02 5.920730e+02
8.370000e+02 6.186867e+02
8.380000e+02 6.464074e+02
8.390000e+02 6.753237e+02
8.400000e+02 7.054402e+02
8.410000e+02 7.368160e+02
8.420000e+02 7.694903e+02
8.430000e+02 8.035555e+02
8.440000e+02 8.390210e+02
8.450000e+02 8.759564e+02
8.460000e+02 9.144183e+02
8.470000e+02 9.544656e+02
8.480000e+02 9.961594e+02
8.490000e+02 1.039563e+03
8.500000e+02 1.084741e+03
8.510000e+02 1.131762e+03
8.520000e+02 1.180692e+03
8.530000e+02 1.231613e+03
8.540000e+02 1.284599e+03
8.550000e+02 1.339716e+03
8.560000e+02 1.397052e+03
8.570000e+02 1.456689e+03
8.580000e+02 1.518709e+03
8.590000e+02 1.583211e+03
8.600000e+02 1.650282e+03
8.610000e+02 1.720016e+03
8.620000e+02 1.792513e+03
8.630000e+02 1.867871e+03
8.640000e+02 1.946202e+03
8.650000e+02 2.027605e+03
8.660000e+02 2.112216e+03
8.670000e+02 2.200127e+03
8.680000e+02 2.291467e+03
8.690000e+02 2.386360e+03
8.700000e+02 2.484935e+03
8.710000e+02 2.587324e+03
8.720000e+02 2.693666e+03
8.730000e+02 2.804101e+03
8.740000e+02 2.918777e+03
8.750000e+02 3.037845e+03
8.760000e+02 3.161461e+03
8.770000e+02 3.289774e+03
8.780000e+02 3.422982e+03
8.790000e+02 3.561235e+03
8.800000e+02 3.704714e+03
8.810000e+02 3.853604e+03
8.820000e+02 4.008095e+03
8.830000e+02 4.168382e+03
8.840000e+02 4.334667e+03
8.850000e+02 4.507160e+03
8.860000e+02 4.686073e+03
8.870000e+02 4.871616e+03
8.880000e+02 5.064047e+03
8.890000e+02 5.263589e+03
8.900000e+02 5.470483e+03
8.910000e+02 5.684983e+03
8.920000e+02 5.899129e+03
8.930000e+02 6.137845e+03
8.940000e+02 6.376751e+03
8.950000e+02 6.624343e+03
8.960000e+02 6.880936e+03
8.970000e+02 7.146811e+03
8.980000e+02 7.422287e+03
8.990000e+02 7.707687e+03
9.000000e+02 8.003340e+03
9.010000e+02 8.309591e+03
9.020000e+02 8.626790e+03
9.030000e+02 8.955295e+03
9.040000e+02 9.295369e+03
9.050000e+02 9.647725e+03
9.060000e+02 1.001250e+04
9.070000e+02 1.038986e+04
9.080000e+02 1.078098e+04
9.090000e+02 1.118562e+04
9.100000e+02 1.160444e+04
9.110000e+02 1.203795e+04
9.120000e+02 1.248688e+04
9.130000e+02 1.272459e+04
9.140000e+02 1.367637e+04
9.150000e+02 5.890106e+04
9.160000e+02 1.826033e+05
9.170000e+02 1.899480e+05
9.180000e+02 1.887565e+05
9.190000e+02 2.072434e+05
9.200000e+02 2.146445e+05
9.210000e+02 1.659869e+04
9.220000e+02 2.276536e+05
9.230000e+02 2.228894e+05
9.240000e+02 2.240736e+05
9.250000e+02 2.455346e+05
9.260000e+02 2.508338e+05
9.270000e+02 2.633894e+05
9.280000e+02 2.717513e+05
9.290000e+02 2.516524e+05
9.300000e+02 2.841756e+05
9.310000e+02 2.900312e+05
9.320000e+02 3.051390e+05
9.330000e+02 3.131522e+05
9.340000e+02 3.228727e+05
9.350000e+02 9.465869e+04
9.360000e+02 3.409686e+05
9.370000e+02 6.766486e+04
9.380000e+02 1.337435e+05
9.390000e+02 3.724543e+05
9.400000e+02 3.834130e+05
9.410000e+02 1.638784e+05
9.420000e+02 4.058648e+05
9.430000e+02 4.162594e+05
9.440000e+02 2.985405e+05
9.450000e+02 4.413362e+05
9.460000e+02 4.538404e+05
9.470000e+02 2.775123e+05
9.480000e+02 3.725634e+05
9.490000e+02 4.887030e+05
9.500000e+02 9.281697e+04
9.510000e+02 5.076745e+05
9.520000e+02 5.362433e+05
9.530000e+02 5.433352e+05
9.540000e+02 4.634666e+05
9.550000e+02 5.828510e+05
9.560000e+02 3.944218e+05
9.570000e+02 4.528408e+05
9.580000e+02 6.229900e+05
9.590000e+02 6.531661e+05
9.600000e+02 1.417334e+05
9.610000e+02 6.846819e+05
9.620000e+02 7.079344e+05
9.630000e+02 7.283729e+05
9.640000e+02 7.922225e+04
9.650000e+02 7.042855e+05
9.660000e+02 7.895460e+05
9.670000e+02 8.026287e+05
9.680000e+02 8.257398e+05
9.690000e+02 8.503586e+05
9.700000e+02 8.759397e+05
9.710000e+02 8.913814e+05
9.720000e+02 8.475775e+05
9.730000e+02 8.491216e+05
9.740000e+02 9.615357e+05
9.750000e+02 1.000111e+06
9.760000e+02 1.029331e+06
9.770000e+02 1.058262e+06
9.780000e+02 1.083714e+06
9.790000e+02 1.116384e+06
9.800000e+02 1.145699e+06
9.810000e+02 1.176241e+06
9.820000e+02 1.202741e+06
9.830000e+02 1.238811e+06
9.840000e+02 5.644013e+05
9.850000e+02 1.304511e+06
9.860000e+02 1.338164e+06
9.870000e+02 1.374064e+06
9.880000e+02 1.397639e+06
9.890000e+02 1.199820e+06
9.900000e+02 2.176308e+05
9.910000e+02 1.506454e+06
9.920000e+02 1.319225e+06
9.930000e+02 1.504845e+06
9.940000e+02 2.743278e+05
9.950000e+02 5.142315e+05
9.960000e+02 8.286394e+05
9.970000e+02 3.767792e+05
9.980000e+02 1.814486e+06
9.990000e+02 1.822188e+06
1.000000e+03 1.912221e+06
1.001000e+03 1.961076e+06
1.002000e+03 2.009936e+06
1.003000e+03 1.957661e+06
1.004000e+03 2.103006e+06
1.005000e+03 2.004129e+06
1.006000e+03 2.220202e+06
1.007000e+03 2.258315e+06
1.008000e+03 2.326750e+06
1.009000e+03 2.348140e+06
1.010000e+03 2.448991e+06
1.011000e+03 2.509452e+06
1.012000e+03 2.570906e+06
1.013000e+03 2.633979e+06
1.014000e+03 2.623577e+06
1.015000e+03 2.717874e+06
1.016000e+03 2.822158e+06
1.017000e+03 2.832090e+06
1.018000e+03 2.961662e+06
1.019000e+03 3.013345e+06
1.020000e+03 3.103046e+06
1.021000e+03 1.805885e+06
1.022000e+03 2.994821e+06
1.023000e+03 3.232373e+06
1.024000e+03 2.891184e+06
1.025000e+03 2.419602e+06
1.026000e+03 1.159780e+06
1.027000e+03 3.086338e+06
1.028000e+03 1.048928e+06
1.029000e+03 3.715372e+06
1.030000e+03 3.855041e+06
1.031000e+03 4.023042e+06
1.032000e+03 4.100572e+06
1.033000e+03 2.160913e+06
1.034000e+03 4.344788e+06
1.035000e+03 1.015959e+06
1.036000e+03 4.138380e+06
1.037000e+03 7.511850e+05
1.038000e+03 4.781228e+06
1.039000e+03 4.849418e+06
1.040000e+03 5.010092e+06
1.041000e+03 5.065412e+06
1.042000e+03 5.213425e+06
1.043000e+03 5.215126e+06
1.044000e+03 5.487321e+06
1.045000e+03 5.614674e+06
1.046000e+03 5.758398e+06
1.047000e+03 5.884968e+06
1.048000e+03 5.980013e+06
1.049000e+03 5.887409e+06
1.050000e+03 6.305132e+06
1.051000e+03 6.448095e+06
1.052000e+03 6.602618e+06
1.053000e+03 6.701273e+06
1.054000e+03 6.690854e+06
1.055000e+03 6.772624e+06
1.056000e+03 7.226707e+06
1.057000e+03 7.386205e+06
1.058000e+03 7.549507e+06
1.059000e+03 7.702112e+06
1.060000e+03 7.863208e+06
1.061000e+03 8.078322e+06
1.062000e+03 8.254198e+06
1.063000e+03 2.864958e+06
1.064000e+03 1.887112e+06
1.065000e+03 8.702769e+06
1.066000e+03 6.382691e+06
1.067000e+03 9.068072e+06
1.068000e+03 9.475129e+06
1.069000e+03 9.310136e+06
1.070000e+03 9.822076e+06
1.071000e+03 1.012144e+07
1.072000e+03 1.034340e+07
1.073000e+03 1.042952e+07
1.074000e+03 1.079592e+07
1.075000e+03 1.102777e+07
1.076000e+03 1.127890e+07
1.077000e+03 1.148746e+07
1.078000e+03 1.176396e+07
1.079000e+03 1.199996e+07
1.080000e+03 1.228536e+07
1.081000e+03 1.255425e+07
1.082000e+03 1.281964e+07
1.083000e+03 1.308058e+07
1.084000e+03 1.333971e+07
1.085000e+03 9.532480e+06
1.086000e+03 1.396286e+07
1.087000e+03 1.421096e+07
1.088000e+03 1.451989e+07
1.089000e+03 1.486888e+07
1.090000e+03 1.515636e+07
1.091000e+03 1.542531e+07
1.092000e+03 1.582884e+07
1.093000e+03 1.615069e+07
1.094000e+03 1.649966e+07
1.095000e+03 1.683929e+07
1.096000e+03 1.719338e+07
1.097000e+03 1.690014e+07
1.098000e+03 1.749024e+07
1.099000e+03 1.827517e+07
1.100000e+03 1.730180e+07
1.101000e+03 1.738668e+07
1.102000e+03 3.809383e+07
1.103000e+03 1.153471e+08
1.104000e+03 5.145730e+07
1.105000e+03 1.887971e+07
1.106000e+03 2.935956e+08
1.107000e+03 2.076826e+08
1.108000e+03 2.939205e+08
1.109000e+03 1.558113e+08
1.110000e+03 7.321318e+07
1.111000e+03 4.421094e+07
1.112000e+03 2.535373e+08
1.113000e+03 3.341008e+08
1.114000e+03 1.519506e+07
1.115000e+03 3.150005e+08
1.116000e+03 3.209969e+08
1.117000e+03 1.811253e+07
1.118000e+03 2.044909e+08
1.119000e+03 3.612704e+08
1.120000e+03 3.461951e+08
1.121000e+03 3.378446e+08
1.122000e+03 6.376576e+06
1.123000e+03 3.029261e+07
1.124000e+03 3.902924e+08
1.125000e+03 1.939140e+08
1.126000e+03 4.048092e+08
1.127000e+03 3.945293e+08
1.128000e+03 1.998857e+08
1.129000e+03 4.074737e+08
1.130000e+03 3.178902e+08
1.131000e+03 4.378291e+08
1.132000e+03 1.813168e+07
1.133000e+03 3.319526e+08
1.134000e+03 4.122066e+08
1.135000e+03 9.815584e+06
1.136000e+03 4.541360e+08
1.137000e+03 4.785743e+08
1.138000e+03 4.814611e+08
1.139000e+03 4.809137e+08
1.140000e+03 1.185098e+07
1.141000e+03 5.089791e+08
1.142000e+03 5.072291e+08
1.143000e+03 5.227340e+08
1.144000e+03 5.331296e+08
1.145000e+03 3.954810e+08
1.146000e+03 5.485101e+08
1.147000e+03 5.485807e+08
1.148000e+03 5.281884e+08
1.149000e+03 5.728387e+08
1.150000e+03 5.703852e+08
1.151000e+03 5.871906e+08
1.152000e+03 5.973669e+08
1.153000e+03 1.740457e+08
1.154000e+03 3.823258e+07
1.155000e+03 3.950789e+08
1.156000e+03 1.021766e+08
1.157000e+03 6.420062e+08
1.158000e+03 1.711302e+07
1.159000e+03 4.841535e+08
1.160000e+03 6.415538e+08
1.161000e+03 6.853059e+08
1.162000e+03 1.656532e+08
1.163000e+03 6.869365e+08
1.164000e+03 2.812781e+07
1.165000e+03 7.264405e+08
1.166000e+03 7.320488e+08
1.167000e+03 7.340959e+08
1.168000e+03 7.633222e+08
1.169000e+03 7.479537e+08
1.170000e+03 7.871100e+08
1.171000e+03 8.000086e+08
1.172000e+03 7.962426e+08
1.173000e+03 8.243689e+08
1.174000e+03 7.690933e+08
1.175000e+03 3.285542e+07
1.176000e+03 2.670816e+07
1.177000e+03 8.750710e+08
1.178000e+03 8.437413e+08
1.179000e+03 9.023531e+08
1.180000e+03 7.258969e+08
1.181000e+03 9.232675e+08
1.182000e+03 9.422038e+08
1.183000e+03 9.528296e+08
1.184000e+03 9.640509e+08
1.185000e+03 9.582982e+08
1.186000e+03 9.720036e+08
1.187000e+03 9.985180e+08
1.188000e+03 9.927573e+08
1.189000e+03 3.171974e+07
1.190000e+03 1.021322e+08
1.191000e+03 1.012459e+09
1.192000e+03 1.020741e+09
1.193000e+03 2.918285e+07
1.194000e+03 3.673274e+07
1.195000e+03 7.763427e+08
1.196000e+03 1.035124e+09
1.197000e+03 1.359734e+09
1.198000e+03 1.349976e+09
1.199000e+03 1.329802e+09
1.200000e+03 1.183624e+09
1.201000e+03 1.243509e+09
1.202000e+03 1.220422e+09
1.203000e+03 1.391563e+09
1.204000e+03 1.246607e+09
1.205000e+03 1.173348e+09
1.206000e+03 1.047767e+09
1.207000e+03 2.283417e+08
1.208000e+03 8.017174e+08
1.209000e+03 6.129334e+08
1.210000e+03 5.580890e+07
1.211000e+03 3.623932e+08
1.212000e+03 2.284885e+08
1.213000e+03 1.468308e+08
1.214000e+03 8.485302e+07
1.215000e+03 5.282149e+07
1.216000e+03 4.775743e+07
1.217000e+03 7.451551e+07
1.218000e+03 1.328359e+08
1.219000e+03 2.315235e+08
1.220000e+03 3.698958e+08
1.221000e+03 5.428402e+08
1.222000e+03 7.399324e+08
1.223000e+03 9.544424e+08
1.224000e+03 1.182120e+09
1.225000e+03 1.393228e+09
1.226000e+03 1.644741e+09
1.227000e+03 1.863655e+09
1.228000e+03 2.104361e+09
1.229000e+03 2.344368e+09
1.230000e+03 2.542296e+09
1.231000e+03 2.759991e+09
1.232000e+03 3.023887e+09
1.233000e+03 3.236723e+09
1.234000e+03 2.116200e+09
1.235000e+03 3.632020e+09
1.236000e+03 3.735810e+09
1.237000e+03 4.011926e+09
1.238000e+03 4.181279e+09
1.239000e+03 4.354357e+09
1.240000e+03 4.105607e+09
1.241000e+03 7.562924e+09
1.242000e+03 4.076785e+09
1.243000e+03 5.982970e+09
1.244000e+03 2.495818e+09
1.245000e+03 3.735235e+09
1.246000e+03 1.215091e+10
1.247000e+03 1.216502e+10
1.248000e+03 2.699273e+09
1.249000e+03 3.323983e+09
1.250000e+03 1.497560e+10
1.251000e+03 1.570061e+10
1.252000e+03 1.586088e+10
1.253000e+03 1.716828e+10
1.254000e+03 1.723221e+10
1.255000e+03 1.821382e+10
1.256000e+03 1.827410e+10
1.257000e+03 1.951138e+10
1.258000e+03 1.843455e+10
1.259000e+03 1.903802e+10
1.260000e+03 1.513407e+10
1.261000e+03 1.119892e+08
1.262000e+03 1.631132e+09
1.263000e+03 2.167540e+10
1.264000e+03 1.840858e+10
1.265000e+03 1.131272e+08
1.266000e+03 2.301714e+10
1.267000e+03 2.366248e+10
