# wavelength_A flux
5.000000e+02 8.800154e-43
5.010000e+02 1.170084e-42
5.020000e+02 1.552639e-42
5.030000e+02 2.059909e-42
5.040000e+02 2.729729e-42
5.050000e+02 3.616751e-42
5.060000e+02 4.779829e-42
5.070000e+02 6.311448e-42
5.080000e+02 8.323713e-42
5.090000e+02 1.096656e-41
5.100000e+02 1.442076e-41
5.110000e+02 1.897218e-41
5.120000e+02 2.491228e-41
5.130000e+02 3.267828e-41
5.140000e+02 4.281808e-41
5.150000e+02 5.604493e-41
5.160000e+02 7.327950e-41
5.170000e+02 9.571429e-41
5.180000e+02 1.248851e-40
5.190000e+02 1.627776e-40
5.200000e+02 2.119464e-40
5.210000e+02 2.756845e-40
5.220000e+02 3.582209e-40
5.230000e+02 4.649985e-40
5.240000e+02 6.029899e-40
5.250000e+02 7.811454e-40
5.260000e+02 1.010923e-39
5.270000e+02 1.306988e-39
5.280000e+02 1.688090e-39
5.290000e+02 2.178170e-39
5.300000e+02 2.807779e-39
5.310000e+02 3.615859e-39
5.320000e+02 4.651998e-39
5.330000e+02 5.979290e-39
5.340000e+02 7.677929e-39
5.350000e+02 9.849751e-39
5.360000e+02 1.262395e-38
5.370000e+02 1.616176e-38
5.380000e+02 2.067816e-38
5.390000e+02 2.642792e-38
5.400000e+02 3.374521e-38
5.410000e+02 4.304883e-38
5.420000e+02 5.486729e-38
5.430000e+02 6.986670e-38
5.440000e+02 8.888611e-38
5.450000e+02 1.129813e-37
5.460000e+02 1.434798e-37
5.470000e+02 1.820489e-37
5.480000e+02 2.307815e-37
5.490000e+02 2.923019e-37
5.500000e+02 3.698980e-37
5.510000e+02 4.676857e-37
5.520000e+02 5.908130e-37
5.530000e+02 7.457133e-37
5.540000e+02 9.404198e-37
5.550000e+02 1.184954e-36
5.560000e+02 1.491809e-36
5.570000e+02 1.876545e-36
5.580000e+02 2.358526e-36
5.590000e+02 2.961831e-36
5.600000e+02 3.716376e-36
5.610000e+02 4.659301e-36
5.620000e+02 5.836677e-36
5.630000e+02 7.305604e-36
5.640000e+02 9.136800e-36
5.650000e+02 1.141778e-35
5.660000e+02 1.425674e-35
5.670000e+02 1.778737e-35
5.680000e+02 2.217474e-35
5.690000e+02 2.762244e-35
5.700000e+02 3.438144e-35
5.710000e+02 4.276087e-35
5.720000e+02 5.314118e-35
5.730000e+02 6.599025e-35
5.740000e+02 8.188307e-35
5.750000e+02 1.015257e-34
5.760000e+02 1.257844e-34
5.770000e+02 1.557217e-34
5.780000e+02 1.926388e-34
5.790000e+02 2.381293e-34
5.800000e+02 2.941426e-34
5.810000e+02 3.630621e-34
5.820000e+02 4.477991e-34
5.830000e+02 5.519079e-34
5.840000e+02 6.797237e-34
5.850000e+02 8.365333e-34
5.860000e+02 1.028774e-33
5.870000e+02 1.264282e-33
5.880000e+02 1.552592e-33
5.890000e+02 1.905292e-33
5.900000e+02 2.336459e-33
5.910000e+02 2.863180e-33
5.920000e+02 3.506184e-33
5.930000e+02 4.290598e-33
5.940000e+02 5.246862e-33
5.950000e+02 6.411823e-33
5.960000e+02 7.830060e-33
5.970000e+02 9.555464e-33
5.980000e+02 1.165315e-32
5.990000e+02 1.420171e-32
6.000000e+02 1.729601e-32
6.010000e+02 2.105040e-32
6.020000e+02 2.560267e-32
6.030000e+02 3.111875e-32
6.040000e+02 3.779831e-32
6.050000e+02 4.588151e-32
6.060000e+02 5.565693e-32
6.070000e+02 6.747121e-32
6.080000e+02 8.174043e-32
6.090000e+02 9.896368e-32
6.100000e+02 1.197393e-31
6.110000e+02 1.447841e-31
6.120000e+02 1.749563e-31
6.130000e+02 2.112828e-31
6.140000e+02 2.549918e-31
6.150000e+02 3.075509e-31
6.160000e+02 3.707130e-31
6.170000e+02 4.465704e-31
6.180000e+02 5.376191e-31
6.190000e+02 6.468348e-31
6.200000e+02 7.777631e-31
6.210000e+02 9.346260e-31
6.220000e+02 1.122448e-30
6.230000e+02 1.347205e-30
6.240000e+02 1.616000e-30
6.250000e+02 1.937272e-30
6.260000e+02 2.321042e-30
6.270000e+02 2.779197e-30
6.280000e+02 3.325837e-30
6.290000e+02 3.977674e-30
6.300000e+02 4.754503e-30
6.310000e+02 5.679760e-30
6.320000e+02 6.781178e-30
6.330000e+02 8.091548e-30
6.340000e+02 9.649630e-30
6.350000e+02 1.150121e-29
6.360000e+02 1.370033e-29
6.370000e+02 1.631078e-29
6.380000e+02 1.940777e-29
6.390000e+02 2.307996e-29
6.400000e+02 2.743177e-29
6.410000e+02 3.258617e-29
6.420000e+02 3.868784e-29
6.430000e+02 4.590696e-29
6.440000e+02 5.444358e-29
6.450000e+02 6.453270e-29
6.460000e+02 7.645031e-29
6.470000e+02 9.052029e-29
6.480000e+02 1.071226e-28
6.490000e+02 1.267026e-28
6.500000e+02 1.497823e-28
6.510000e+02 1.769731e-28
6.520000e+02 2.089905e-28
6.530000e+02 2.466719e-28
6.540000e+02 2.909962e-28
6.550000e+02 3.431081e-28
6.560000e+02 4.043443e-28
6.570000e+02 4.762660e-28
6.580000e+02 5.606951e-28
6.590000e+02 6.597566e-28
6.600000e+02 7.759284e-28
6.610000e+02 9.120979e-28
6.620000e+02 1.071628e-27
6.630000e+02 1.258435e-27
6.640000e+02 1.477074e-27
6.650000e+02 1.732844e-27
6.660000e+02 2.031906e-27
6.670000e+02 2.381417e-27
6.680000e+02 2.789691e-27
6.690000e+02 3.266378e-27
6.700000e+02 3.822675e-27
6.710000e+02 4.471569e-27
6.720000e+02 5.228114e-27
6.730000e+02 6.109753e-27
6.740000e+02 7.136686e-27
6.750000e+02 8.332299e-27
6.760000e+02 9.723650e-27
6.770000e+02 1.134203e-26
6.780000e+02 1.322363e-26
6.790000e+02 1.541023e-26
6.800000e+02 1.795013e-26
6.810000e+02 2.089906e-26
6.820000e+02 2.432134e-26
6.830000e+02 2.829115e-26
6.840000e+02 3.289404e-26
6.850000e+02 3.822856e-26
6.860000e+02 4.440827e-26
6.870000e+02 5.156389e-26
6.880000e+02 5.984588e-26
6.890000e+02 6.942735e-26
6.900000e+02 8.050730e-26
6.910000e+02 9.331455e-26
6.920000e+02 1.081119e-25
6.930000e+02 1.252013e-25
6.940000e+02 1.449292e-25
6.950000e+02 1.676932e-25
6.960000e+02 1.939495e-25
6.970000e+02 2.242208e-25
6.980000e+02 2.591065e-25
6.990000e+02 2.992930e-25
7.000000e+02 3.455664e-25
7.010000e+02 3.988264e-25
7.020000e+02 4.601024e-25
7.030000e+02 5.305717e-25
7.040000e+02 6.115803e-25
7.050000e+02 7.046662e-25
7.060000e+02 8.115863e-25
7.070000e+02 9.343468e-25
7.080000e+02 1.075237e-24
7.090000e+02 1.236870e-24
7.100000e+02 1.422225e-24
7.110000e+02 1.634699e-24
7.120000e+02 1.878161e-24
7.130000e+02 2.157022e-24
7.140000e+02 2.476303e-24
7.150000e+02 2.841717e-24
7.160000e+02 3.259769e-24
7.170000e+02 3.737853e-24
7.180000e+02 4.284379e-24
7.190000e+02 4.908904e-24
7.200000e+02 5.622284e-24
7.210000e+02 6.436850e-24
7.220000e+02 7.366599e-24
7.230000e+02 8.427416e-24
7.240000e+02 9.637320e-24
7.250000e+02 1.101675e-23
7.260000e+02 1.258885e-23
7.270000e+02 1.437989e-23
7.280000e+02 1.641958e-23
7.290000e+02 1.874159e-23
7.300000e+02 2.138402e-23
7.310000e+02 2.438998e-23
7.320000e+02 2.780824e-23
7.330000e+02 3.169393e-23
7.340000e+02 3.610936e-23
7.350000e+02 4.112495e-23
7.360000e+02 4.682022e-23
7.370000e+02 5.328496e-23
7.380000e+02 6.062051e-23
7.390000e+02 6.894123e-23
7.400000e+02 7.837608e-23
7.410000e+02 8.907046e-23
7.420000e+02 1.011883e-22
7.430000e+02 1.149142e-22
7.440000e+02 1.304561e-22
7.450000e+02 1.480484e-22
7.460000e+02 1.679545e-22
7.470000e+02 1.904711e-22
7.480000e+02 2.159318e-22
7.490000e+02 2.447116e-22
7.500000e+02 2.772323e-22
7.510000e+02 3.139677e-22
7.520000e+02 3.554500e-22
7.530000e+02 4.022769e-22
7.540000e+02 4.551193e-22
7.550000e+02 5.147303e-22
7.560000e+02 5.819542e-22
7.570000e+02 6.577386e-22
7.580000e+02 7.431454e-22
7.590000e+02 8.393649e-22
7.600000e+02 9.477305e-22
7.610000e+02 1.069736e-21
7.620000e+02 1.207053e-21
7.630000e+02 1.361555e-21
7.640000e+02 1.535335e-21
7.650000e+02 1.730738e-21
7.660000e+02 1.950382e-21
7.670000e+02 2.197197e-21
7.680000e+02 2.474457e-21
7.690000e+02 2.785820e-21
7.700000e+02 3.135370e-21
7.710000e+02 3.527667e-21
7.720000e+02 3.967804e-21
7.730000e+02 4.461460e-21
7.740000e+02 5.014973e-21
7.750000e+02 5.635410e-21
7.760000e+02 6.330649e-21
7.770000e+02 7.109472e-21
7.780000e+02 7.981661e-21
7.790000e+02 8.958116e-21
7.800000e+02 1.005097e-20
7.810000e+02 1.127373e-20
7.820000e+02 1.264143e-20
7.830000e+02 1.417079e-20
7.840000e+02 1.588043e-20
7.850000e+02 1.779101e-20
7.860000e+02 1.992553e-20
7.870000e+02 2.230954e-20
7.880000e+02 2.497143e-20
7.890000e+02 2.794271e-20
7.900000e+02 3.125839e-20
7.910000e+02 3.495731e-20
7.920000e+02 3.908259e-20
7.930000e+02 4.368205e-20
7.940000e+02 4.880873e-20
7.950000e+02 5.452144e-20
7.960000e+02 6.088537e-20
7.970000e+02 6.797275e-20
7.980000e+02 7.586359e-20
7.990000e+02 8.464654e-20
8.000000e+02 9.441971e-20
8.010000e+02 1.052917e-19
8.020000e+02 1.173828e-19
8.030000e+02 1.308259e-19
8.040000e+02 1.457681e-19
8.050000e+02 1.623720e-19
8.060000e+02 1.808174e-19
8.070000e+02 2.013029e-19
8.080000e+02 2.240481e-19
8.090000e+02 2.492954e-19
8.100000e+02 2.773125e-19
8.110000e+02 3.083949e-19
8.120000e+02 3.428689e-19
8.130000e+02 3.810943e-19
8.140000e+02 4.234681e-19
8.150000e+02 4.704282e-19
8.160000e+02 5.224573e-19
8.170000e+02 5.800874e-19
8.180000e+02 6.439049e-19
8.190000e+02 7.145557e-19
8.200000e+02 7.927512e-19
8.210000e+02 8.792749e-19
8.220000e+02 9.749891e-19
8.230000e+02 1.080843e-18
8.240000e+02 1.197881e-18
8.250000e+02 1.327251e-18
8.260000e+02 1.470217e-18
8.270000e+02 1.628169e-18
8.280000e+02 1.802632e-18
8.290000e+02 1.995285e-18
8.300000e+02 2.207971e-18
8.310000e+02 2.442715e-18
8.320000e+02 2.701740e-18
8.330000e+02 2.987487e-18
8.340000e+02 3.302637e-18
8.350000e+02 3.650128e-18
8.360000e+02 4.033187e-18
8.370000e+02 4.455351e-18
8.380000e+02 4.920500e-18
8.390000e+02 5.432886e-18
8.400000e+02 5.997172e-18
8.410000e+02 6.618464e-18
8.420000e+02 7.302360e-18
8.430000e+02 8.054987e-18
8.440000e+02 8.883057e-18
8.450000e+02 9.793918e-18
8.460000e+02 1.079561e-17
8.470000e+02 1.189693e-17
8.480000e+02 1.310751e-17
8.490000e+02 1.443788e-17
8.500000e+02 1.589955e-17
8.510000e+02 1.750511e-17
8.520000e+02 1.926831e-17
8.530000e+02 2.120419e-17
8.540000e+02 2.332918e-17
8.550000e+02 2.566122e-17
8.560000e+02 2.821990e-17
8.570000e+02 3.102662e-17
8.580000e+02 3.410471e-17
8.590000e+02 3.747966e-17
8.600000e+02 4.117928e-17
8.610000e+02 4.523389e-17
8.620000e+02 4.967656e-17
8.630000e+02 5.454337e-17
8.640000e+02 5.987362e-17
8.650000e+02 6.571016e-17
8.660000e+02 7.209968e-17
8.670000e+02 7.909304e-17
8.680000e+02 8.674565e-17
8.690000e+02 9.511784e-17
8.700000e+02 1.042753e-16
8.710000e+02 1.142895e-16
8.720000e+02 1.252382e-16
8.730000e+02 1.372062e-16
8.740000e+02 1.502854e-16
8.750000e+02 1.645761e-16
8.760000e+02 1.801872e-16
8.770000e+02 1.972371e-16
8.780000e+02 2.158544e-16
8.790000e+02 2.361789e-16
8.800000e+02 2.583627e-16
8.810000e+02 2.825707e-16
8.820000e+02 3.089823e-16
8.830000e+02 3.377920e-16
8.840000e+02 3.692110e-16
8.850000e+02 4.034688e-16
8.860000e+02 4.408141e-16
8.870000e+02 4.815168e-16
8.880000e+02 5.258700e-16
8.890000e+02 5.741911e-16
8.900000e+02 6.268246e-16
8.910000e+02 6.841437e-16
8.920000e+02 7.465531e-16
8.930000e+02 8.144913e-16
8.940000e+02 8.884333e-16
8.950000e+02 9.688938e-16
8.960000e+02 1.056430e-15
8.970000e+02 1.151646e-15
8.980000e+02 1.255194e-15
8.990000e+02 1.367782e-15
9.000000e+02 1.490176e-15
9.010000e+02 1.623202e-15
9.020000e+02 1.767758e-15
9.030000e+02 1.924812e-15
9.040000e+02 2.095411e-15
9.050000e+02 2.280690e-15
9.060000e+02 2.481871e-15
9.070000e+02 2.700279e-15
9.080000e+02 2.937343e-15
9.090000e+02 3.194609e-15
9.100000e+02 3.473745e-15
9.110000e+02 3.776554e-15
9.120000e+02 4.104983e-15
9.130000e+02 4.461131e-15
9.140000e+02 5.332757e-15
9.150000e+02 2.213760e-12
9.160000e+02 1.726772e-11
9.170000e+02 3.082009e-12
9.180000e+02 2.942511e-12
9.190000e+02 5.326335e-11
9.200000e+02 1.659107e-10
9.210000e+02 8.621772e-15
9.220000e+02 2.292935e-10
9.230000e+02 1.098047e-12
9.240000e+02 6.178127e-12
9.250000e+02 1.114150e-10
9.260000e+02 4.719627e-12
9.270000e+02 6.767963e-12
9.280000e+02 1.283991e-09
9.290000e+02 1.211972e-09
9.300000e+02 2.278137e-10
9.310000e+02 3.081750e-12
9.320000e+02 9.551792e-10
9.330000e+02 1.161330e-09
9.340000e+02 4.095924e-10
9.350000e+02 2.475304e-12
9.360000e+02 3.886754e-11
9.370000e+02 7.083310e-13
9.380000e+02 1.146567e-12
9.390000e+02 1.127582e-10
9.400000e+02 2.776269e-09
9.410000e+02 6.454426e-11
9.420000e+02 5.095570e-09
9.430000e+02 2.909095e-10
9.440000e+02 5.912419e-09
9.450000e+02 5.840793e-09
9.460000e+02 3.225976e-09
9.470000e+02 1.934342e-12
9.480000e+02 1.216950e-09
9.490000e+02 1.234725e-10
9.500000e+02 1.042089e-12
9.510000e+02 7.724218e-10
9.520000e+02 3.332234e-09
9.530000e+02 5.301382e-11
9.540000e+02 2.250373e-12
9.550000e+02 6.022143e-10
9.560000e+02 6.184937e-09
9.570000e+02 1.694609e-10
9.580000e+02 7.396306e-13
9.590000e+02 1.226888e-08
9.600000e+02 5.374590e-12
9.610000e+02 1.002398e-08
9.620000e+02 4.629142e-09
9.630000e+02 2.271179e-10
9.640000e+02 5.868994e-11
9.650000e+02 8.464340e-12
9.660000e+02 8.607444e-10
9.670000e+02 8.538681e-11
9.680000e+02 5.817657e-11
9.690000e+02 3.414070e-09
9.700000e+02 4.546556e-09
9.710000e+02 1.251184e-10
9.720000e+02 1.510077e-11
9.730000e+02 2.686940e-11
9.740000e+02 1.336458e-09
9.750000e+02 1.671070e-09
9.760000e+02 1.828518e-08
9.770000e+02 2.208431e-08
9.780000e+02 1.714841e-08
9.790000e+02 4.788662e-08
9.800000e+02 5.328869e-08
9.810000e+02 1.314974e-08
9.820000e+02 1.906379e-09
9.830000e+02 6.864442e-08
9.840000e+02 1.367375e-09
9.850000e+02 5.151723e-09
9.860000e+02 5.648152e-09
9.870000e+02 8.576275e-08
9.880000e+02 3.511502e-11
9.890000e+02 5.966866e-08
9.900000e+02 7.177606e-08
9.910000e+02 2.207833e-09
9.920000e+02 6.422800e-12
9.930000e+02 9.421622e-08
9.940000e+02 4.870770e-12
9.950000e+02 3.713797e-09
9.960000e+02 2.101785e-10
9.970000e+02 2.557335e-10
9.980000e+02 1.293298e-07
9.990000e+02 3.112763e-09
1.000000e+03 2.048930e-07
1.001000e+03 1.797169e-07
1.002000e+03 2.239010e-07
1.003000e+03 3.054005e-09
1.004000e+03 5.488232e-11
1.005000e+03 1.958202e-08
1.006000e+03 2.563826e-07
1.007000e+03 2.874102e-07
1.008000e+03 2.489734e-07
1.009000e+03 3.160105e-09
1.010000e+03 2.455863e-07
1.011000e+03 2.429631e-07
1.012000e+03 3.014882e-07
1.013000e+03 3.038981e-07
1.014000e+03 3.051071e-11
1.015000e+03 1.355716e-10
1.016000e+03 1.942681e-08
1.017000e+03 2.094680e-11
1.018000e+03 4.485017e-09
1.019000e+03 1.200249e-10
1.020000e+03 2.061565e-07
1.021000e+03 5.541622e-09
1.022000e+03 1.337732e-08
1.023000e+03 5.310170e-10
1.024000e+03 9.145759e-09
1.025000e+03 2.293787e-11
1.026000e+03 3.540324e-11
1.027000e+03 4.068608e-09
1.028000e+03 2.923528e-10
1.029000e+03 5.339018e-11
1.030000e+03 7.490080e-08
1.031000e+03 2.910602e-07
1.032000e+03 7.283049e-07
1.033000e+03 4.760068e-09
1.034000e+03 3.428949e-07
1.035000e+03 1.488161e-10
1.036000e+03 1.508624e-10
1.037000e+03 2.808357e-06
1.038000e+03 4.909894e-06
1.039000e+03 3.878021e-06
1.040000e+03 2.875753e-06
1.041000e+03 5.837476e-06
1.042000e+03 6.899737e-06
1.043000e+03 3.949074e-06
1.044000e+03 9.454630e-06
1.045000e+03 2.340186e-10
1.046000e+03 3.561391e-06
1.047000e+03 2.059360e-06
1.048000e+03 1.186436e-08
1.049000e+03 1.772187e-06
1.050000e+03 1.974895e-07
1.051000e+03 7.221297e-08
1.052000e+03 1.225736e-05
1.053000e+03 1.430096e-05
1.054000e+03 3.137757e-10
1.055000e+03 1.359879e-05
1.056000e+03 1.647706e-05
1.057000e+03 5.099962e-06
1.058000e+03 8.911584e-08
1.059000e+03 4.944741e-08
1.060000e+03 1.412809e-08
1.061000e+03 1.427464e-05
1.062000e+03 4.229400e-08
1.063000e+03 3.762803e-08
1.064000e+03 4.783942e-10
1.065000e+03 5.311449e-10
1.066000e+03 5.097982e-06
1.067000e+03 9.512718e-08
1.068000e+03 3.323397e-05
1.069000e+03 1.437395e-08
1.070000e+03 1.722256e-06
1.071000e+03 2.749398e-05
1.072000e+03 4.171275e-05
1.073000e+03 1.706212e-09
1.074000e+03 1.070257e-05
1.075000e+03 6.335118e-06
1.076000e+03 2.067275e-05
1.077000e+03 2.003253e-08
1.078000e+03 1.431144e-07
1.079000e+03 1.235956e-06
1.080000e+03 6.762055e-06
1.081000e+03 4.585522e-05
1.082000e+03 2.991598e-05
1.083000e+03 1.738004e-05
1.084000e+03 6.831268e-05
1.085000e+03 2.223504e-06
1.086000e+03 7.935283e-05
1.087000e+03 2.565721e-07
1.088000e+03 8.943176e-05
1.089000e+03 9.341322e-05
1.090000e+03 1.818773e-06
1.091000e+03 3.925263e-06
1.092000e+03 9.480734e-05
1.093000e+03 1.075061e-04
1.094000e+03 2.553664e-05
1.095000e+03 1.250574e-04
1.096000e+03 1.882927e-06
1.097000e+03 1.178462e-04
1.098000e+03 1.275323e-04
1.099000e+03 6.421003e-06
1.100000e+03 3.464766e-08
1.101000e+03 1.304351e-07
1.102000e+03 6.321187e-06
1.103000e+03 1.768488e-04
1.104000e+03 1.804985e-04
1.105000e+03 1.934527e-04
1.106000e+03 3.947783e-05
1.107000e+03 1.140725e-07
1.108000e+03 1.793472e-04
1.109000e+03 2.847912e-06
1.110000e+03 2.273219e-04
1.111000e+03 2.135733e-04
1.112000e+03 1.376316e-04
1.113000e+03 1.683999e-04
1.114000e+03 6.406997e-05
1.115000e+03 2.326022e-06
1.116000e+03 4.429552e-07
1.117000e+03 3.076602e-04
1.118000e+03 5.370021e-06
1.119000e+03 1.371550e-04
1.120000e+03 1.131382e-06
1.121000e+03 3.282146e-04
1.122000e+03 4.154255e-04
1.123000e+03 5.492983e-04
1.124000e+03 6.923164e-04
1.125000e+03 5.254798e-04
1.126000e+03 5.925139e-04
1.127000e+03 4.739565e-04
1.128000e+03 4.013063e-04
1.129000e+03 2.888234e-04
1.130000e+03 4.331613e-04
1.131000e+03 3.297089e-04
1.132000e+03 1.894296e-06
1.133000e+03 5.296385e-05
1.134000e+03 3.182241e-04
1.135000e+03 2.661485e-04
1.136000e+03 7.781500e-05
1.137000e+03 2.764313e-04
1.138000e+03 2.607817e-04
1.139000e+03 3.440194e-04
1.140000e+03 3.258908e-04
1.141000e+03 3.138047e-04
1.142000e+03 3.329270e-04
1.143000e+03 2.221939e-04
1.144000e+03 3.180493e-04
1.145000e+03 1.128181e-06
1.146000e+03 3.470605e-04
1.147000e+03 3.501651e-04
1.148000e+03 1.809702e-05
1.149000e+03 3.347213e-04
1.150000e+03 3.340750e-04
1.151000e+03 3.371299e-04
1.152000e+03 3.158696e-04
1.153000e+03 3.249310e-04
1.154000e+03 3.155909e-04
1.155000e+03 3.065495e-04
1.156000e+03 2.294649e-04
1.157000e+03 2.950375e-04
1.158000e+03 2.465617e-04
1.159000e+03 3.028420e-04
1.160000e+03 2.700793e-04
1.161000e+03 2.777786e-04
1.162000e+03 6.609241e-05
1.163000e+03 1.715812e-04
1.164000e+03 5.621696e-07
1.165000e+03 1.540699e-04
1.166000e+03 7.918197e-05
1.167000e+03 5.121612e-05
1.168000e+03 3.196460e-04
1.169000e+03 3.255913e-04
1.170000e+03 5.422832e-05
1.171000e+03 1.419508e-04
1.172000e+03 1.132857e-04
1.173000e+03 9.629666e-05
1.174000e+03 8.575269e-06
1.175000e+03 5.492911e-07
1.176000e+03 1.634107e-07
1.177000e+03 4.287360e-04
1.178000e+03 4.038329e-04
1.179000e+03 3.831152e-04
1.180000e+03 3.480882e-04
1.181000e+03 3.451412e-04
1.182000e+03 3.343963e-04
1.183000e+03 3.122402e-04
1.184000e+03 3.018024e-04
1.185000e+03 2.911186e-04
1.186000e+03 4.806048e-05
1.187000e+03 2.782174e-04
1.188000e+03 2.618552e-04
1.189000e+03 2.665611e-04
1.190000e+03 2.593623e-04
1.191000e+03 2.450908e-04
1.192000e+03 2.211409e-04
1.193000e+03 2.196790e-04
1.194000e+03 2.127559e-04
1.195000e+03 2.035198e-04
1.196000e+03 4.475200e-03
1.197000e+03 4.184137e-03
1.198000e+03 3.057965e-04
1.199000e+03 3.449875e-03
1.200000e+03 1.071288e-03
1.201000e+03 2.636517e-03
1.202000e+03 2.124849e-03
1.203000e+03 1.875906e-03
1.204000e+03 8.596608e-04
1.205000e+03 1.193772e-03
1.206000e+03 9.070600e-04
1.207000e+03 1.055927e-04
1.208000e+03 4.068729e-04
1.209000e+03 2.966439e-04
1.210000e+03 1.103748e-06
1.211000e+03 1.019207e-04
1.212000e+03 4.922306e-05
1.213000e+03 1.996593e-05
1.214000e+03 5.490081e-06
1.215000e+03 8.011750e-07
1.216000e+03 6.021914e-07
1.217000e+03 3.377473e-06
1.218000e+03 1.659664e-05
1.219000e+03 4.864471e-05
1.220000e+03 1.097514e-04
1.221000e+03 2.256155e-04
1.222000e+03 4.163872e-04
1.223000e+03 6.717345e-04
1.224000e+03 9.704646e-04
1.225000e+03 4.055786e-04
1.226000e+03 2.182217e-03
1.227000e+03 3.038660e-03
1.228000e+03 3.067118e-03
1.229000e+03 5.142421e-03
1.230000e+03 4.123332e-03
1.231000e+03 2.667756e-03
1.232000e+03 9.217190e-03
1.233000e+03 1.092650e-02
1.234000e+03 1.046597e-02
1.235000e+03 1.439775e-02
1.236000e+03 1.063528e-02
1.237000e+03 1.813512e-02
1.238000e+03 2.008599e-02
1.239000e+03 2.063218e-02
1.240000e+03 2.236363e-03
1.241000e+03 2.236589e-02
1.242000e+03 2.781941e-02
1.243000e+03 3.007507e-02
1.244000e+03 3.230489e-02
1.245000e+03 3.396283e-02
1.246000e+03 3.499654e-02
1.247000e+03 3.739287e-02
1.248000e+03 2.398811e-02
1.249000e+03 4.154601e-02
1.250000e+03 3.690431e-02
1.251000e+03 4.665764e-02
1.252000e+03 4.544114e-02
1.253000e+03 4.946588e-02
1.254000e+03 4.865783e-02
1.255000e+03 8.137470e-03
1.256000e+03 4.361357e-02
1.257000e+03 2.918645e-02
1.258000e+03 4.856442e-02
1.259000e+03 5.413346e-02
1.260000e+03 5.807770e-02
1.261000e+03 9.490326e-04
1.262000e+03 6.037578e-02
1.263000e+03 5.096628e-02
1.264000e+03 5.598542e-02
1.265000e+03 5.132442e-02
1.266000e+03 7.412367e-02
1.267000e+03 7.885769e-02
