# wavelength_A flux
5.000000e+02 3.668821e-14
5.010000e+02 4.276191e-14
5.020000e+02 4.980970e-14
5.030000e+02 5.798275e-14
5.040000e+02 6.745487e-14
5.050000e+02 7.870772e-14
5.060000e+02 9.145071e-14
5.070000e+02 1.061919e-13
5.080000e+02 1.232343e-13
5.090000e+02 1.429255e-13
5.100000e+02 1.656635e-13
5.110000e+02 1.919044e-13
5.120000e+02 2.221699e-13
5.130000e+02 2.570570e-13
5.140000e+02 2.972479e-13
5.150000e+02 3.435220e-13
5.160000e+02 3.967709e-13
5.170000e+02 4.580066e-13
5.180000e+02 5.283966e-13
5.190000e+02 6.092541e-13
5.200000e+02 7.020873e-13
5.210000e+02 8.086101e-13
5.220000e+02 9.307595e-13
5.230000e+02 1.070799e-12
5.240000e+02 1.231208e-12
5.250000e+02 1.414870e-12
5.260000e+02 1.625040e-12
5.270000e+02 1.865415e-12
5.280000e+02 2.140188e-12
5.290000e+02 2.454030e-12
5.300000e+02 2.812592e-12
5.310000e+02 3.221717e-12
5.320000e+02 3.688405e-12
5.330000e+02 4.220480e-12
5.340000e+02 4.826790e-12
5.350000e+02 5.517334e-12
5.360000e+02 6.303411e-12
5.370000e+02 7.184693e-12
5.380000e+02 8.214872e-12
5.390000e+02 9.370962e-12
5.400000e+02 1.068432e-11
5.410000e+02 1.217546e-11
5.420000e+02 1.386817e-11
5.430000e+02 1.578819e-11
5.440000e+02 1.796514e-11
5.450000e+02 2.043222e-11
5.460000e+02 2.322609e-11
5.470000e+02 2.639071e-11
5.480000e+02 2.997117e-11
5.490000e+02 3.402109e-11
5.500000e+02 3.859982e-11
5.510000e+02 4.377399e-11
5.520000e+02 4.961832e-11
5.530000e+02 5.621654e-11
5.540000e+02 6.366246e-11
5.550000e+02 7.206111e-11
5.560000e+02 8.153012e-11
5.570000e+02 9.220100e-11
5.580000e+02 1.042209e-10
5.590000e+02 1.177543e-10
5.600000e+02 1.329849e-10
5.610000e+02 1.501181e-10
5.620000e+02 1.693828e-10
5.630000e+02 1.910349e-10
5.640000e+02 2.153595e-10
5.650000e+02 2.426746e-10
5.660000e+02 2.733346e-10
5.670000e+02 3.077344e-10
5.680000e+02 3.463135e-10
5.690000e+02 3.895614e-10
5.700000e+02 4.380225e-10
5.710000e+02 4.923025e-10
5.720000e+02 5.530745e-10
5.730000e+02 6.210867e-10
5.740000e+02 6.971702e-10
5.750000e+02 7.822495e-10
5.760000e+02 8.773354e-10
5.770000e+02 9.835962e-10
5.780000e+02 1.102262e-09
5.790000e+02 1.234740e-09
5.800000e+02 1.382578e-09
5.810000e+02 1.547492e-09
5.820000e+02 1.731381e-09
5.830000e+02 1.936344e-09
5.840000e+02 2.164624e-09
5.850000e+02 2.419040e-09
5.860000e+02 2.702230e-09
5.870000e+02 3.017366e-09
5.880000e+02 3.367939e-09
5.890000e+02 3.757780e-09
5.900000e+02 4.191142e-09
5.910000e+02 4.672680e-09
5.920000e+02 5.207557e-09
5.930000e+02 5.801459e-09
5.940000e+02 6.460652e-09
5.950000e+02 7.192043e-09
5.960000e+02 8.003241e-09
5.970000e+02 8.902622e-09
5.980000e+02 9.899408e-09
5.990000e+02 1.100375e-08
6.000000e+02 1.222681e-08
6.010000e+02 1.358084e-08
6.020000e+02 1.507939e-08
6.030000e+02 1.673723e-08
6.040000e+02 1.857067e-08
6.050000e+02 2.059759e-08
6.060000e+02 2.283763e-08
6.070000e+02 2.531232e-08
6.080000e+02 2.804531e-08
6.090000e+02 3.106249e-08
6.100000e+02 3.439230e-08
6.110000e+02 3.806585e-08
6.120000e+02 4.211725e-08
6.130000e+02 4.658386e-08
6.140000e+02 5.150658e-08
6.150000e+02 5.693015e-08
6.160000e+02 6.290354e-08
6.170000e+02 6.948031e-08
6.180000e+02 7.671901e-08
6.190000e+02 8.468365e-08
6.200000e+02 9.344416e-08
6.210000e+02 1.030769e-07
6.220000e+02 1.136654e-07
6.230000e+02 1.253006e-07
6.240000e+02 1.380819e-07
6.250000e+02 1.521177e-07
6.260000e+02 1.675264e-07
6.270000e+02 1.844367e-07
6.280000e+02 2.029893e-07
6.290000e+02 2.233372e-07
6.300000e+02 2.456472e-07
6.310000e+02 2.700831e-07
6.320000e+02 2.968962e-07
6.330000e+02 3.262477e-07
6.340000e+02 3.583907e-07
6.350000e+02 3.935781e-07
6.360000e+02 4.320878e-07
6.370000e+02 4.742228e-07
6.380000e+02 5.203068e-07
6.390000e+02 5.706966e-07
6.400000e+02 6.257781e-07
6.410000e+02 6.859702e-07
6.420000e+02 7.517281e-07
6.430000e+02 8.235451e-07
6.440000e+02 9.019568e-07
6.450000e+02 9.875438e-07
6.460000e+02 1.080936e-06
6.470000e+02 1.182816e-06
6.480000e+02 1.293923e-06
6.490000e+02 1.415059e-06
6.500000e+02 1.547091e-06
6.510000e+02 1.690959e-06
6.520000e+02 1.847680e-06
6.530000e+02 2.018355e-06
6.540000e+02 2.204174e-06
6.550000e+02 2.406425e-06
6.560000e+02 2.626502e-06
6.570000e+02 2.865902e-06
6.580000e+02 3.126272e-06
6.590000e+02 3.409350e-06
6.600000e+02 3.717041e-06
6.610000e+02 4.051397e-06
6.620000e+02 4.414630e-06
6.630000e+02 4.809127e-06
6.640000e+02 5.237469e-06
6.650000e+02 5.702434e-06
6.660000e+02 6.207024e-06
6.670000e+02 6.754469e-06
6.680000e+02 7.348257e-06
6.690000e+02 7.992142e-06
6.700000e+02 8.690171e-06
6.710000e+02 9.446704e-06
6.720000e+02 1.026643e-05
6.730000e+02 1.115441e-05
6.740000e+02 1.211608e-05
6.750000e+02 1.315729e-05
6.760000e+02 1.428434e-05
6.770000e+02 1.550400e-05
6.780000e+02 1.682355e-05
6.790000e+02 1.825082e-05
6.800000e+02 1.979422e-05
6.810000e+02 2.146279e-05
6.820000e+02 2.326624e-05
6.830000e+02 2.521500e-05
6.840000e+02 2.732028e-05
6.850000e+02 2.959409e-05
6.860000e+02 3.204933e-05
6.870000e+02 3.469985e-05
6.880000e+02 3.756050e-05
6.890000e+02 4.064721e-05
6.900000e+02 4.397706e-05
6.910000e+02 4.756835e-05
6.920000e+02 5.144071e-05
6.930000e+02 5.561516e-05
6.940000e+02 6.011424e-05
6.950000e+02 6.496206e-05
6.960000e+02 7.018447e-05
6.970000e+02 7.580896e-05
6.980000e+02 8.186560e-05
6.990000e+02 8.838560e-05
7.000000e+02 9.540303e-05
7.010000e+02 1.029541e-04
7.020000e+02 1.110776e-04
7.030000e+02 1.198150e-04
7.040000e+02 1.292106e-04
7.050000e+02 1.393118e-04
7.060000e+02 1.501690e-04
7.070000e+02 1.618365e-04
7.080000e+02 1.743719e-04
7.090000e+02 1.878368e-04
7.100000e+02 2.022972e-04
7.110000e+02 2.178231e-04
7.120000e+02 2.344896e-04
7.130000e+02 2.523767e-04
7.140000e+02 2.715696e-04
7.150000e+02 2.921593e-04
7.160000e+02 3.142429e-04
7.170000e+02 3.379237e-04
7.180000e+02 3.633117e-04
7.190000e+02 3.905257e-04
7.200000e+02 4.196892e-04
7.210000e+02 4.509362e-04
7.220000e+02 4.844086e-04
7.230000e+02 5.202577e-04
7.240000e+02 5.586442e-04
7.250000e+02 5.997396e-04
7.260000e+02 6.437261e-04
7.270000e+02 6.907977e-04
7.280000e+02 7.411606e-04
7.290000e+02 7.950344e-04
7.300000e+02 8.526522e-04
7.310000e+02 9.142621e-04
7.320000e+02 9.801278e-04
7.330000e+02 1.050530e-03
7.340000e+02 1.125765e-03
7.350000e+02 1.206150e-03
7.360000e+02 1.292021e-03
7.370000e+02 1.383735e-03
7.380000e+02 1.481670e-03
7.390000e+02 1.586229e-03
7.400000e+02 1.697837e-03
7.410000e+02 1.816949e-03
7.420000e+02 1.944044e-03
7.430000e+02 2.079632e-03
7.440000e+02 2.224253e-03
7.450000e+02 2.378481e-03
7.460000e+02 2.542923e-03
7.470000e+02 2.718223e-03
7.480000e+02 2.905064e-03
7.490000e+02 3.104169e-03
7.500000e+02 3.316305e-03
7.510000e+02 3.542283e-03
7.520000e+02 3.782963e-03
7.530000e+02 4.039255e-03
7.540000e+02 4.312122e-03
7.550000e+02 4.602586e-03
7.560000e+02 4.911725e-03
7.570000e+02 5.240679e-03
7.580000e+02 5.590667e-03
7.590000e+02 5.962954e-03
7.600000e+02 6.358903e-03
7.610000e+02 6.779938e-03
7.620000e+02 7.227572e-03
7.630000e+02 7.703402e-03
7.640000e+02 8.209119e-03
7.650000e+02 8.746506e-03
7.660000e+02 9.317451e-03
7.670000e+02 9.923944e-03
7.680000e+02 1.056808e-02
7.690000e+02 1.125211e-02
7.700000e+02 1.197835e-02
7.710000e+02 1.274930e-02
7.720000e+02 1.356755e-02
7.730000e+02 1.443587e-02
7.740000e+02 1.535718e-02
7.750000e+02 1.633454e-02
7.760000e+02 1.737113e-02
7.770000e+02 1.847057e-02
7.780000e+02 1.963626e-02
7.790000e+02 2.087206e-02
7.800000e+02 2.218199e-02
7.810000e+02 2.357026e-02
7.820000e+02 2.504132e-02
7.830000e+02 2.659986e-02
7.840000e+02 2.825082e-02
7.850000e+02 2.999941e-02
7.860000e+02 3.185111e-02
7.870000e+02 3.381168e-02
7.880000e+02 3.588720e-02
7.890000e+02 3.808407e-02
7.900000e+02 4.040902e-02
7.910000e+02 4.286914e-02
7.920000e+02 4.547188e-02
7.930000e+02 4.822509e-02
7.940000e+02 5.113703e-02
7.950000e+02 5.421637e-02
7.960000e+02 5.747225e-02
7.970000e+02 6.091426e-02
7.980000e+02 6.455249e-02
7.990000e+02 6.839755e-02
8.000000e+02 7.246061e-02
8.010000e+02 7.675336e-02
8.020000e+02 8.128813e-02
8.030000e+02 8.607785e-02
8.040000e+02 9.113611e-02
8.050000e+02 9.647719e-02
8.060000e+02 1.021161e-01
8.070000e+02 1.080685e-01
8.080000e+02 1.143510e-01
8.090000e+02 1.209808e-01
8.100000e+02 1.279763e-01
8.110000e+02 1.353565e-01
8.120000e+02 1.431414e-01
8.130000e+02 1.513522e-01
8.140000e+02 1.600107e-01
8.150000e+02 1.691403e-01
8.160000e+02 1.787651e-01
8.170000e+02 1.889105e-01
8.180000e+02 1.996034e-01
8.190000e+02 2.108715e-01
8.200000e+02 2.227443e-01
8.210000e+02 2.352524e-01
8.220000e+02 2.484280e-01
8.230000e+02 2.623049e-01
8.240000e+02 2.769184e-01
8.250000e+02 2.923055e-01
8.260000e+02 3.085049e-01
8.270000e+02 3.255572e-01
8.280000e+02 3.435049e-01
8.290000e+02 3.623925e-01
8.300000e+02 3.822666e-01
8.310000e+02 4.031759e-01
8.320000e+02 4.251713e-01
8.330000e+02 4.483064e-01
8.340000e+02 4.726368e-01
8.350000e+02 4.982157e-01
8.360000e+02 5.251200e-01
8.370000e+02 5.533984e-01
8.380000e+02 5.831220e-01
8.390000e+02 6.143613e-01
8.400000e+02 6.471890e-01
8.410000e+02 6.816816e-01
8.420000e+02 7.179174e-01
8.430000e+02 7.559847e-01
8.440000e+02 7.959655e-01
8.450000e+02 8.379527e-01
8.460000e+02 8.820413e-01
8.470000e+02 9.283308e-01
8.480000e+02 9.769250e-01
8.490000e+02 1.027932e+00
8.500000e+02 1.081466e+00
8.510000e+02 1.137643e+00
8.520000e+02 1.196589e+00
8.530000e+02 1.258431e+00
8.540000e+02 1.323304e+00
8.550000e+02 1.391348e+00
8.560000e+02 1.462710e+00
8.570000e+02 1.537541e+00
8.580000e+02 1.616003e+00
8.590000e+02 1.698259e+00
8.600000e+02 1.784485e+00
8.610000e+02 1.874860e+00
8.620000e+02 1.969573e+00
8.630000e+02 2.068821e+00
8.640000e+02 2.172809e+00
8.650000e+02 2.281749e+00
8.660000e+02 2.395864e+00
8.670000e+02 2.515387e+00
8.680000e+02 2.640558e+00
8.690000e+02 2.771631e+00
8.700000e+02 2.908866e+00
8.710000e+02 3.052538e+00
8.720000e+02 3.202931e+00
8.730000e+02 3.360341e+00
8.740000e+02 3.525077e+00
8.750000e+02 3.697460e+00
8.760000e+02 3.877826e+00
8.770000e+02 4.066521e+00
8.780000e+02 4.263910e+00
8.790000e+02 4.470369e+00
8.800000e+02 4.686290e+00
8.810000e+02 4.912084e+00
8.820000e+02 5.148174e+00
8.830000e+02 5.395002e+00
8.840000e+02 5.653031e+00
8.850000e+02 5.922737e+00
8.860000e+02 6.204618e+00
8.870000e+02 6.499192e+00
8.880000e+02 6.806998e+00
8.890000e+02 7.128594e+00
8.900000e+02 7.464562e+00
8.910000e+02 7.815508e+00
8.920000e+02 8.180840e+00
8.930000e+02 8.564869e+00
8.940000e+02 8.964616e+00
8.950000e+02 9.382006e+00
8.960000e+02 9.817771e+00
8.970000e+02 1.027267e+01
8.980000e+02 1.074750e+01
8.990000e+02 1.124308e+01
9.000000e+02 1.176025e+01
9.010000e+02 1.229992e+01
9.020000e+02 1.286299e+01
9.030000e+02 1.345042e+01
9.040000e+02 1.406320e+01
9.050000e+02 1.470236e+01
9.060000e+02 1.536897e+01
9.070000e+02 1.606412e+01
9.080000e+02 1.678901e+01
9.090000e+02 1.754478e+01
9.100000e+02 1.833269e+01
9.110000e+02 1.915402e+01
9.120000e+02 2.001015e+01
9.130000e+02 2.088152e+01
9.140000e+02 2.189809e+01
9.150000e+02 1.176414e+02
9.160000e+02 2.754140e+02
9.170000e+02 2.390967e+02
9.180000e+02 2.530580e+02
9.190000e+02 3.783825e+02
9.200000e+02 4.082903e+02
9.210000e+02 2.949205e+01
9.220000e+02 4.334555e+02
9.230000e+02 2.856968e+02
9.240000e+02 3.632130e+02
9.250000e+02 4.423059e+02
9.260000e+02 4.403063e+02
9.270000e+02 3.750133e+02
9.280000e+02 5.479537e+02
9.290000e+02 4.899435e+02
9.300000e+02 5.738723e+02
9.310000e+02 3.846462e+02
9.320000e+02 6.294644e+02
9.330000e+02 6.276323e+02
9.340000e+02 6.329800e+02
9.350000e+02 5.802664e+01
9.360000e+02 4.879865e+02
9.370000e+02 5.788389e+01
9.380000e+02 2.698609e+02
9.390000e+02 5.994489e+02
9.400000e+02 8.258380e+02
9.410000e+02 1.714373e+02
9.420000e+02 8.835295e+02
9.430000e+02 7.277556e+02
9.440000e+02 6.857405e+02
9.450000e+02 9.787991e+02
9.460000e+02 9.885543e+02
9.470000e+02 4.568977e+02
9.480000e+02 9.498777e+02
9.490000e+02 1.090875e+03
9.500000e+02 1.035159e+02
9.510000e+02 1.104986e+03
9.520000e+02 1.204387e+03
9.530000e+02 5.949059e+02
9.540000e+02 4.917576e+02
9.550000e+02 1.208476e+03
9.560000e+02 1.304997e+03
9.570000e+02 4.346654e+02
9.580000e+02 3.395023e+02
9.590000e+02 1.573562e+03
9.600000e+02 1.455887e+02
9.610000e+02 1.613808e+03
9.620000e+02 1.561031e+03
9.630000e+02 1.564042e+03
9.640000e+02 1.716719e+02
9.650000e+02 8.199520e+02
9.660000e+02 1.697106e+03
9.670000e+02 1.320217e+03
9.680000e+02 1.021055e+03
9.690000e+02 2.013044e+03
9.700000e+02 2.044087e+03
9.710000e+02 1.401760e+03
9.720000e+02 1.513659e+03
9.730000e+02 1.981571e+03
9.740000e+02 2.352110e+03
9.750000e+02 2.252557e+03
9.760000e+02 2.700259e+03
9.770000e+02 2.756992e+03
9.780000e+02 2.675869e+03
9.790000e+02 3.013892e+03
9.800000e+02 3.110211e+03
9.810000e+02 2.991044e+03
9.820000e+02 2.487341e+03
9.830000e+02 3.406826e+03
9.840000e+02 7.682255e+02
9.850000e+02 3.202666e+03
9.860000e+02 3.290154e+03
9.870000e+02 3.863958e+03
9.880000e+02 1.596682e+03
9.890000e+02 2.982933e+03
9.900000e+02 4.495216e+02
9.910000e+02 2.444001e+03
9.920000e+02 9.605023e+02
9.930000e+02 4.330656e+03
9.940000e+02 5.258696e+02
9.950000e+02 7.424609e+02
9.960000e+02 2.509145e+03
9.970000e+02 6.621421e+02
9.980000e+02 5.268584e+03
9.990000e+02 3.165892e+03
1.000000e+03 5.704975e+03
1.001000e+03 5.972108e+03
1.002000e+03 6.136072e+03
1.003000e+03 4.552261e+03
1.004000e+03 2.811701e+03
1.005000e+03 5.211098e+03
1.006000e+03 6.904800e+03
1.007000e+03 7.138270e+03
1.008000e+03 7.259538e+03
1.009000e+03 5.871393e+03
1.010000e+03 7.711412e+03
1.011000e+03 8.015996e+03
1.012000e+03 8.169238e+03
1.013000e+03 8.371170e+03
1.014000e+03 1.843272e+03
1.015000e+03 3.200401e+03
1.016000e+03 6.980903e+03
1.017000e+03 2.031775e+03
1.018000e+03 7.410959e+03
1.019000e+03 3.623712e+03
1.020000e+03 1.034462e+04
1.021000e+03 3.406115e+03
1.022000e+03 6.782393e+03
1.023000e+03 4.221277e+03
1.024000e+03 1.015284e+04
1.025000e+03 2.207036e+03
1.026000e+03 2.222627e+03
1.027000e+03 9.514102e+03
1.028000e+03 1.724022e+03
1.029000e+03 3.069639e+03
1.030000e+03 1.263223e+04
1.031000e+03 1.212963e+04
1.032000e+03 1.422996e+04
1.033000e+03 2.589434e+03
1.034000e+03 1.448616e+04
1.035000e+03 2.168159e+03
1.036000e+03 4.058341e+03
1.037000e+03 1.656967e+04
1.038000e+03 1.749783e+04
1.039000e+03 1.763474e+04
1.040000e+03 1.834904e+04
1.041000e+03 1.892843e+04
1.042000e+03 1.948316e+04
1.043000e+03 1.827756e+04
1.044000e+03 2.079170e+04
1.045000e+03 2.104205e+04
1.046000e+03 2.183043e+04
1.047000e+03 2.072878e+04
1.048000e+03 1.166619e+04
1.049000e+03 2.243948e+04
1.050000e+03 2.221642e+04
1.051000e+03 2.104816e+04
1.052000e+03 2.575880e+04
1.053000e+03 2.653461e+04
1.054000e+03 6.420123e+03
1.055000e+03 2.818143e+04
1.056000e+03 2.898271e+04
1.057000e+03 2.837479e+04
1.058000e+03 2.679433e+04
1.059000e+03 2.052824e+04
1.060000e+03 1.668418e+04
1.061000e+03 3.193507e+04
1.062000e+03 2.662973e+04
1.063000e+03 9.189763e+03
1.064000e+03 5.589520e+03
1.065000e+03 9.620342e+03
1.066000e+03 3.311412e+04
1.067000e+03 2.238394e+04
1.068000e+03 4.017712e+04
1.069000e+03 1.526636e+04
1.070000e+03 4.033889e+04
1.071000e+03 4.346961e+04
1.072000e+03 4.459833e+04
1.073000e+03 1.388984e+04
1.074000e+03 4.316011e+04
1.075000e+03 4.224222e+04
1.076000e+03 4.958003e+04
1.077000e+03 2.178032e+04
1.078000e+03 4.233520e+04
1.079000e+03 4.927612e+04
1.080000e+03 5.207703e+04
1.081000e+03 5.533755e+04
1.082000e+03 5.634648e+04
1.083000e+03 5.667491e+04
1.084000e+03 6.109173e+04
1.085000e+03 4.326320e+04
1.086000e+03 6.427817e+04
1.087000e+03 4.143893e+04
1.088000e+03 6.732355e+04
1.089000e+03 6.936909e+04
1.090000e+03 5.853795e+04
1.091000e+03 5.982650e+04
1.092000e+03 7.464262e+04
1.093000e+03 7.645252e+04
1.094000e+03 7.676442e+04
1.095000e+03 8.048334e+04
1.096000e+03 6.987991e+04
1.097000e+03 8.248012e+04
1.098000e+03 8.650998e+04
1.099000e+03 8.309120e+04
1.100000e+03 4.364207e+04
1.101000e+03 5.430121e+04
1.102000e+03 1.464444e+05
1.103000e+03 6.108206e+05
1.104000e+03 2.391440e+05
1.105000e+03 9.540188e+04
1.106000e+03 6.825224e+05
1.107000e+03 6.119506e+04
1.108000e+03 9.403053e+05
1.109000e+03 2.251311e+05
1.110000e+03 4.290156e+05
1.111000e+03 2.397973e+05
1.112000e+03 8.870814e+05
1.113000e+03 1.105066e+06
1.114000e+03 7.318130e+04
1.115000e+03 3.925681e+05
1.116000e+03 3.111522e+05
1.117000e+03 6.536150e+04
1.118000e+03 3.087256e+05
1.119000e+03 1.087990e+06
1.120000e+03 3.233484e+05
1.121000e+03 1.186615e+06
1.122000e+03 3.150038e+04
1.123000e+03 3.373365e+05
1.124000e+03 1.334991e+06
1.125000e+03 9.697979e+05
1.126000e+03 1.448108e+06
1.127000e+03 1.395265e+06
1.128000e+03 6.303449e+05
1.129000e+03 1.284153e+06
1.130000e+03 1.466065e+06
1.131000e+03 1.540788e+06
1.132000e+03 6.771938e+04
1.133000e+03 5.626591e+05
1.134000e+03 1.366938e+06
1.135000e+03 5.714562e+04
1.136000e+03 9.918723e+05
1.137000e+03 1.705548e+06
1.138000e+03 1.438968e+06
1.139000e+03 1.775908e+06
1.140000e+03 5.134775e+04
1.141000e+03 1.834383e+06
1.142000e+03 1.903761e+06
1.143000e+03 1.793570e+06
1.144000e+03 1.971495e+06
1.145000e+03 2.532360e+05
1.146000e+03 2.059085e+06
1.147000e+03 2.041715e+06
1.148000e+03 6.965930e+05
1.149000e+03 2.089664e+06
1.150000e+03 1.954342e+06
1.151000e+03 2.229210e+06
1.152000e+03 2.252428e+06
1.153000e+03 1.235012e+06
1.154000e+03 2.167271e+06
1.155000e+03 2.238698e+06
1.156000e+03 1.593797e+06
1.157000e+03 2.443010e+06
1.158000e+03 1.032252e+05
1.159000e+03 2.366598e+06
1.160000e+03 2.148220e+06
1.161000e+03 2.630516e+06
1.162000e+03 7.339716e+05
1.163000e+03 1.909919e+06
1.164000e+03 9.663200e+04
1.165000e+03 2.800565e+06
1.166000e+03 2.746714e+06
1.167000e+03 2.762908e+06
1.168000e+03 3.022977e+06
1.169000e+03 3.022492e+06
1.170000e+03 2.968266e+06
1.171000e+03 3.120944e+06
1.172000e+03 2.683836e+06
1.173000e+03 3.321065e+06
1.174000e+03 8.705912e+05
1.175000e+03 1.272860e+05
1.176000e+03 1.321210e+05
1.177000e+03 3.599270e+06
1.178000e+03 3.634857e+06
1.179000e+03 3.697968e+06
1.180000e+03 2.920615e+06
1.181000e+03 3.855590e+06
1.182000e+03 3.888277e+06
1.183000e+03 3.782447e+06
1.184000e+03 3.756095e+06
1.185000e+03 4.000913e+06
1.186000e+03 2.309926e+06
1.187000e+03 4.150441e+06
1.188000e+03 3.560940e+06
1.189000e+03 1.815650e+05
1.190000e+03 1.970166e+06
1.191000e+03 4.300225e+06
1.192000e+03 4.487495e+06
1.193000e+03 2.022555e+05
1.194000e+03 2.055890e+05
1.195000e+03 4.009234e+06
1.196000e+03 4.624056e+06
1.197000e+03 7.106010e+06
1.198000e+03 4.401142e+06
1.199000e+03 6.977700e+06
1.200000e+03 4.737872e+06
1.201000e+03 6.652447e+06
1.202000e+03 5.874650e+06
1.203000e+03 8.159635e+06
1.204000e+03 4.694752e+06
1.205000e+03 6.990859e+06
1.206000e+03 6.827342e+06
1.207000e+03 7.881105e+05
1.208000e+03 5.005365e+06
1.209000e+03 3.840208e+06
1.210000e+03 3.028998e+05
1.211000e+03 2.056871e+06
1.212000e+03 1.249825e+06
1.213000e+03 7.242229e+05
1.214000e+03 4.236608e+05
1.215000e+03 3.388213e+05
1.216000e+03 3.519096e+05
1.217000e+03 3.967176e+05
1.218000e+03 6.602864e+05
1.219000e+03 1.220800e+06
1.220000e+03 1.917483e+06
1.221000e+03 3.289220e+06
1.222000e+03 4.618756e+06
1.223000e+03 6.094636e+06
1.224000e+03 7.604246e+06
1.225000e+03 4.992441e+06
1.226000e+03 1.089911e+07
1.227000e+03 1.215491e+07
1.228000e+03 1.033608e+07
1.229000e+03 1.430991e+07
1.230000e+03 1.463427e+07
1.231000e+03 1.117044e+07
1.232000e+03 1.849838e+07
1.233000e+03 1.968652e+07
1.234000e+03 1.306872e+07
1.235000e+03 2.135381e+07
1.236000e+03 1.525986e+07
1.237000e+03 2.323825e+07
1.238000e+03 2.349118e+07
1.239000e+03 2.367666e+07
1.240000e+03 1.772859e+07
1.241000e+03 2.563784e+07
1.242000e+03 2.464123e+07
1.243000e+03 2.900548e+07
1.244000e+03 2.240426e+07
1.245000e+03 2.619892e+07
1.246000e+03 3.225927e+07
1.247000e+03 3.313476e+07
1.248000e+03 2.168774e+07
1.249000e+03 2.796327e+07
1.250000e+03 3.164047e+07
1.251000e+03 3.775833e+07
1.252000e+03 3.695310e+07
1.253000e+03 3.926100e+07
1.254000e+03 3.884605e+07
1.255000e+03 3.988714e+07
1.256000e+03 3.947814e+07
1.257000e+03 3.936668e+07
1.258000e+03 3.777867e+07
1.259000e+03 4.189794e+07
1.260000e+03 4.286660e+07
1.261000e+03 9.760845e+05
1.262000e+03 2.115959e+07
1.263000e+03 4.575794e+07
1.264000e+03 4.281693e+07
1.265000e+03 1.060626e+06
1.266000e+03 4.876426e+07
1.267000e+03 4.639515e+07
