# wavelength_A flux
5.000000e+02 1.268276e-39
5.010000e+02 1.661808e-39
5.020000e+02 2.175065e-39
5.030000e+02 2.843740e-39
5.040000e+02 3.713961e-39
5.050000e+02 4.852524e-39
5.060000e+02 6.323561e-39
5.070000e+02 8.231600e-39
5.080000e+02 1.070438e-38
5.090000e+02 1.390514e-38
5.100000e+02 1.802075e-38
5.110000e+02 2.339091e-38
5.120000e+02 3.029013e-38
5.130000e+02 3.918565e-38
5.140000e+02 5.064095e-38
5.150000e+02 6.537870e-38
5.160000e+02 8.432046e-38
5.170000e+02 1.086416e-37
5.180000e+02 1.398382e-37
5.190000e+02 1.798149e-37
5.200000e+02 2.309925e-37
5.210000e+02 2.964457e-37
5.220000e+02 3.800716e-37
5.230000e+02 4.868264e-37
5.240000e+02 6.229614e-37
5.250000e+02 7.964023e-37
5.260000e+02 1.017164e-36
5.270000e+02 1.297892e-36
5.280000e+02 1.654543e-36
5.290000e+02 2.107227e-36
5.300000e+02 2.681272e-36
5.310000e+02 3.408545e-36
5.320000e+02 4.329105e-36
5.330000e+02 5.493261e-36
5.340000e+02 6.964142e-36
5.350000e+02 8.820893e-36
5.360000e+02 1.116264e-35
5.370000e+02 1.410840e-35
5.380000e+02 1.782848e-35
5.390000e+02 2.250149e-35
5.400000e+02 2.837440e-35
5.410000e+02 3.574884e-35
5.420000e+02 4.500086e-35
5.430000e+02 5.659836e-35
5.440000e+02 7.112358e-35
5.450000e+02 8.930016e-35
5.460000e+02 1.120267e-34
5.470000e+02 1.404184e-34
5.480000e+02 1.758577e-34
5.490000e+02 2.200572e-34
5.500000e+02 2.751368e-34
5.510000e+02 3.437183e-34
5.520000e+02 4.290416e-34
5.530000e+02 5.351074e-34
5.540000e+02 6.668517e-34
5.550000e+02 8.303594e-34
5.560000e+02 1.033127e-33
5.570000e+02 1.284379e-33
5.580000e+02 1.595466e-33
5.590000e+02 1.980331e-33
5.600000e+02 2.456100e-33
5.610000e+02 3.043786e-33
5.620000e+02 3.769154e-33
5.630000e+02 4.663771e-33
5.640000e+02 5.766280e-33
5.650000e+02 7.123957e-33
5.660000e+02 8.794592e-33
5.670000e+02 1.084878e-32
5.680000e+02 1.337267e-32
5.690000e+02 1.647136e-32
5.700000e+02 2.027294e-32
5.710000e+02 2.493340e-32
5.720000e+02 3.064259e-32
5.730000e+02 3.763140e-32
5.740000e+02 4.618041e-32
5.750000e+02 5.663038e-32
5.760000e+02 6.939482e-32
5.770000e+02 8.497522e-32
5.780000e+02 1.039792e-31
5.790000e+02 1.271428e-31
5.800000e+02 1.553564e-31
5.810000e+02 1.896971e-31
5.820000e+02 2.314662e-31
5.830000e+02 2.822356e-31
5.840000e+02 3.439010e-31
5.850000e+02 4.187527e-31
5.860000e+02 5.095455e-31
5.870000e+02 6.196000e-31
5.880000e+02 7.529128e-31
5.890000e+02 9.142908e-31
5.900000e+02 1.109512e-30
5.910000e+02 1.345516e-30
5.920000e+02 1.630634e-30
5.930000e+02 1.974862e-30
5.940000e+02 2.390180e-30
5.950000e+02 2.890945e-30
5.960000e+02 3.494344e-30
5.970000e+02 4.220944e-30
5.980000e+02 5.095340e-30
5.990000e+02 6.146921e-30
6.000000e+02 7.410790e-30
6.010000e+02 8.928841e-30
6.020000e+02 1.075105e-29
6.030000e+02 1.293699e-29
6.040000e+02 1.555763e-29
6.050000e+02 1.869747e-29
6.060000e+02 2.245706e-29
6.070000e+02 2.695596e-29
6.080000e+02 3.233628e-29
6.090000e+02 3.876680e-29
6.100000e+02 4.644785e-29
6.110000e+02 5.561714e-29
6.120000e+02 6.655644e-29
6.130000e+02 7.959969e-29
6.140000e+02 9.514232e-29
6.150000e+02 1.136524e-28
6.160000e+02 1.356834e-28
6.170000e+02 1.618900e-28
6.180000e+02 1.930453e-28
6.190000e+02 2.300625e-28
6.200000e+02 2.740193e-28
6.210000e+02 3.261867e-28
6.220000e+02 3.880631e-28
6.230000e+02 4.614139e-28
6.240000e+02 5.483179e-28
6.250000e+02 6.512216e-28
6.260000e+02 7.730027e-28
6.270000e+02 9.170441e-28
6.280000e+02 1.087320e-27
6.290000e+02 1.288499e-27
6.300000e+02 1.526059e-27
6.310000e+02 1.806424e-27
6.320000e+02 2.137133e-27
6.330000e+02 2.527011e-27
6.340000e+02 2.986397e-27
6.350000e+02 3.527395e-27
6.360000e+02 4.164164e-27
6.370000e+02 4.913264e-27
6.380000e+02 5.794043e-27
6.390000e+02 6.829106e-27
6.400000e+02 8.044844e-27
6.410000e+02 9.472053e-27
6.420000e+02 1.114665e-26
6.430000e+02 1.311051e-26
6.440000e+02 1.541241e-26
6.450000e+02 1.810917e-26
6.460000e+02 2.126691e-26
6.470000e+02 2.496257e-26
6.480000e+02 2.928561e-26
6.490000e+02 3.434001e-26
6.500000e+02 4.024654e-26
6.510000e+02 4.714546e-26
6.520000e+02 5.519952e-26
6.530000e+02 6.459751e-26
6.540000e+02 7.555835e-26
6.550000e+02 8.833568e-26
6.560000e+02 1.032234e-25
6.570000e+02 1.205616e-25
6.580000e+02 1.407439e-25
6.590000e+02 1.642259e-25
6.600000e+02 1.915338e-25
6.610000e+02 2.232760e-25
6.620000e+02 2.601553e-25
6.630000e+02 3.029828e-25
6.640000e+02 3.526947e-25
6.650000e+02 4.103710e-25
6.660000e+02 4.772566e-25
6.670000e+02 5.547862e-25
6.680000e+02 6.446126e-25
6.690000e+02 7.486386e-25
6.700000e+02 8.690542e-25
6.710000e+02 1.008379e-24
6.720000e+02 1.169508e-24
6.730000e+02 1.355773e-24
6.740000e+02 1.570997e-24
6.750000e+02 1.819572e-24
6.760000e+02 2.106541e-24
6.770000e+02 2.437686e-24
6.780000e+02 2.819641e-24
6.790000e+02 3.260011e-24
6.800000e+02 3.767507e-24
6.810000e+02 4.352111e-24
6.820000e+02 5.025248e-24
6.830000e+02 5.799993e-24
6.840000e+02 6.691303e-24
6.850000e+02 7.716280e-24
6.860000e+02 8.894473e-24
6.870000e+02 1.024822e-23
6.880000e+02 1.180301e-23
6.890000e+02 1.358797e-23
6.900000e+02 1.563632e-23
6.910000e+02 1.798596e-23
6.920000e+02 2.068009e-23
6.930000e+02 2.376794e-23
6.940000e+02 2.730563e-23
6.950000e+02 3.135702e-23
6.960000e+02 3.599484e-23
6.970000e+02 4.130184e-23
6.980000e+02 4.737213e-23
6.990000e+02 5.431273e-23
7.000000e+02 6.224524e-23
7.010000e+02 7.130786e-23
7.020000e+02 8.165750e-23
7.030000e+02 9.347229e-23
7.040000e+02 1.069544e-22
7.050000e+02 1.223331e-22
7.060000e+02 1.398684e-22
7.070000e+02 1.598550e-22
7.080000e+02 1.826269e-22
7.090000e+02 2.085623e-22
7.100000e+02 2.380895e-22
7.110000e+02 2.716930e-22
7.120000e+02 3.099212e-22
7.130000e+02 3.533943e-22
7.140000e+02 4.028133e-22
7.150000e+02 4.589706e-22
7.160000e+02 5.227611e-22
7.170000e+02 5.951958e-22
7.180000e+02 6.774157e-22
7.190000e+02 7.707084e-22
7.200000e+02 8.765266e-22
7.210000e+02 9.965084e-22
7.220000e+02 1.132500e-21
7.230000e+02 1.286583e-21
7.240000e+02 1.461100e-21
7.250000e+02 1.658692e-21
7.260000e+02 1.882330e-21
7.270000e+02 2.135356e-21
7.280000e+02 2.421533e-21
7.290000e+02 2.745090e-21
7.300000e+02 3.110781e-21
7.310000e+02 3.523949e-21
7.320000e+02 3.990595e-21
7.330000e+02 4.517461e-21
7.340000e+02 5.112111e-21
7.350000e+02 5.783039e-21
7.360000e+02 6.539767e-21
7.370000e+02 7.392981e-21
7.380000e+02 8.354656e-21
7.390000e+02 9.438214e-21
7.400000e+02 1.065869e-20
7.410000e+02 1.203294e-20
7.420000e+02 1.357980e-20
7.430000e+02 1.532039e-20
7.440000e+02 1.727832e-20
7.450000e+02 1.948000e-20
7.460000e+02 2.195498e-20
7.470000e+02 2.473626e-20
7.480000e+02 2.786074e-20
7.490000e+02 3.136964e-20
7.500000e+02 3.530897e-20
7.510000e+02 3.973013e-20
7.520000e+02 4.469045e-20
7.530000e+02 5.025393e-20
7.540000e+02 5.649191e-20
7.550000e+02 6.348397e-20
7.560000e+02 7.131881e-20
7.570000e+02 8.009524e-20
7.580000e+02 8.992337e-20
7.590000e+02 1.009258e-19
7.600000e+02 1.132390e-19
7.610000e+02 1.270150e-19
7.620000e+02 1.424227e-19
7.630000e+02 1.596502e-19
7.640000e+02 1.789064e-19
7.650000e+02 2.004239e-19
7.660000e+02 2.244609e-19
7.670000e+02 2.513042e-19
7.680000e+02 2.812726e-19
7.690000e+02 3.147199e-19
7.700000e+02 3.520388e-19
7.710000e+02 3.936651e-19
7.720000e+02 4.400824e-19
7.730000e+02 4.918268e-19
7.740000e+02 5.494927e-19
7.750000e+02 6.137392e-19
7.760000e+02 6.852963e-19
7.770000e+02 7.649729e-19
7.780000e+02 8.536647e-19
7.790000e+02 9.523633e-19
7.800000e+02 1.062167e-18
7.810000e+02 1.184289e-18
7.820000e+02 1.320074e-18
7.830000e+02 1.471008e-18
7.840000e+02 1.638733e-18
7.850000e+02 1.825065e-18
7.860000e+02 2.032010e-18
7.870000e+02 2.261786e-18
7.880000e+02 2.516839e-18
7.890000e+02 2.799873e-18
7.900000e+02 3.113871e-18
7.910000e+02 3.462124e-18
7.920000e+02 3.848264e-18
7.930000e+02 4.276297e-18
7.940000e+02 4.750639e-18
7.950000e+02 5.276159e-18
7.960000e+02 5.858221e-18
7.970000e+02 6.502737e-18
7.980000e+02 7.216218e-18
7.990000e+02 8.005832e-18
8.000000e+02 8.879472e-18
8.010000e+02 9.845826e-18
8.020000e+02 1.091445e-17
8.030000e+02 1.209586e-17
8.040000e+02 1.340162e-17
8.050000e+02 1.484444e-17
8.060000e+02 1.643830e-17
8.070000e+02 1.819855e-17
8.080000e+02 2.014206e-17
8.090000e+02 2.228737e-17
8.100000e+02 2.465482e-17
8.110000e+02 2.726676e-17
8.120000e+02 3.014771e-17
8.130000e+02 3.332455e-17
8.140000e+02 3.682682e-17
8.150000e+02 4.068687e-17
8.160000e+02 4.494020e-17
8.170000e+02 4.962572e-17
8.180000e+02 5.478605e-17
8.190000e+02 6.046792e-17
8.200000e+02 6.672251e-17
8.210000e+02 7.360584e-17
8.220000e+02 8.117929e-17
8.230000e+02 8.951001e-17
8.240000e+02 9.867153e-17
8.250000e+02 1.087442e-16
8.260000e+02 1.198161e-16
8.270000e+02 1.319834e-16
8.280000e+02 1.453512e-16
8.290000e+02 1.600346e-16
8.300000e+02 1.761591e-16
8.310000e+02 1.938621e-16
8.320000e+02 2.132935e-16
8.330000e+02 2.346170e-16
8.340000e+02 2.580115e-16
8.350000e+02 2.836721e-16
8.360000e+02 3.118119e-16
8.370000e+02 3.426631e-16
8.380000e+02 3.764794e-16
8.390000e+02 4.135371e-16
8.400000e+02 4.541377e-16
8.410000e+02 4.986099e-16
8.420000e+02 5.473118e-16
8.430000e+02 6.006336e-16
8.440000e+02 6.590004e-16
8.450000e+02 7.228753e-16
8.460000e+02 7.927625e-16
8.470000e+02 8.692108e-16
8.480000e+02 9.528177e-16
8.490000e+02 1.044233e-15
8.500000e+02 1.144165e-15
8.510000e+02 1.253382e-15
8.520000e+02 1.372721e-15
8.530000e+02 1.503092e-15
8.540000e+02 1.645484e-15
8.550000e+02 1.800971e-15
8.560000e+02 1.970721e-15
8.570000e+02 2.156004e-15
8.580000e+02 2.358196e-15
8.590000e+02 2.578794e-15
8.600000e+02 2.819422e-15
8.610000e+02 3.081844e-15
8.620000e+02 3.367973e-15
8.630000e+02 3.679886e-15
8.640000e+02 4.019833e-15
8.650000e+02 4.390259e-15
8.660000e+02 4.793811e-15
8.670000e+02 5.233361e-15
8.680000e+02 5.712022e-15
8.690000e+02 6.233165e-15
8.700000e+02 6.800446e-15
8.710000e+02 7.417822e-15
8.720000e+02 8.089580e-15
8.730000e+02 8.820362e-15
8.740000e+02 9.615195e-15
8.750000e+02 1.047952e-14
8.760000e+02 1.141922e-14
8.770000e+02 1.244066e-14
8.780000e+02 1.355074e-14
8.790000e+02 1.475690e-14
8.800000e+02 1.606721e-14
8.810000e+02 1.749038e-14
8.820000e+02 1.903582e-14
8.830000e+02 2.071370e-14
8.840000e+02 2.253503e-14
8.850000e+02 2.451168e-14
8.860000e+02 2.665648e-14
8.870000e+02 2.898328e-14
8.880000e+02 3.150705e-14
8.890000e+02 3.424393e-14
8.900000e+02 3.721135e-14
8.910000e+02 4.042812e-14
8.920000e+02 4.391452e-14
8.930000e+02 4.769245e-14
8.940000e+02 5.178550e-14
8.950000e+02 5.621912e-14
8.960000e+02 6.102076e-14
8.970000e+02 6.621999e-14
8.980000e+02 7.184869e-14
8.990000e+02 7.794119e-14
9.000000e+02 8.453451e-14
9.010000e+02 9.166849e-14
9.020000e+02 9.938604e-14
9.030000e+02 1.077334e-13
9.040000e+02 1.167603e-13
9.050000e+02 1.265202e-13
9.060000e+02 1.370709e-13
9.070000e+02 1.484742e-13
9.080000e+02 1.607970e-13
9.090000e+02 1.741109e-13
9.100000e+02 1.884931e-13
9.110000e+02 2.040265e-13
9.120000e+02 2.208003e-13
9.130000e+02 2.389104e-13
9.140000e+02 2.801917e-13
9.150000e+02 4.613755e-11
9.160000e+02 2.635114e-10
9.170000e+02 2.010992e-12
9.180000e+02 6.030037e-11
9.190000e+02 7.546886e-10
9.200000e+02 1.978453e-09
9.210000e+02 4.460143e-13
9.220000e+02 5.114298e-10
9.230000e+02 2.992377e-12
9.240000e+02 2.478684e-12
9.250000e+02 4.791934e-11
9.260000e+02 9.127896e-11
9.270000e+02 3.069642e-12
9.280000e+02 1.073754e-08
9.290000e+02 1.100727e-08
9.300000e+02 2.835337e-09
9.310000e+02 6.470371e-12
9.320000e+02 9.500939e-09
9.330000e+02 4.001821e-10
9.340000e+02 7.947420e-11
9.350000e+02 2.670430e-11
9.360000e+02 1.264757e-11
9.370000e+02 3.544698e-12
9.380000e+02 2.161575e-11
9.390000e+02 5.253074e-11
9.400000e+02 5.934287e-09
9.410000e+02 7.738573e-10
9.420000e+02 3.885729e-08
9.430000e+02 8.014833e-11
9.440000e+02 4.353727e-08
9.450000e+02 3.692331e-08
9.460000e+02 1.439035e-09
9.470000e+02 3.290035e-12
9.480000e+02 8.729399e-09
9.490000e+02 1.723832e-09
9.500000e+02 5.380992e-11
9.510000e+02 1.753290e-09
9.520000e+02 4.345880e-09
9.530000e+02 2.099464e-11
9.540000e+02 5.281732e-12
9.550000e+02 1.786553e-10
9.560000e+02 2.831673e-08
9.570000e+02 1.023905e-10
9.580000e+02 6.955492e-12
9.590000e+02 5.103733e-09
9.600000e+02 1.134871e-10
9.610000e+02 2.784565e-09
9.620000e+02 8.943675e-10
9.630000e+02 8.199130e-11
9.640000e+02 3.259670e-11
9.650000e+02 1.226752e-11
9.660000e+02 2.024887e-10
9.670000e+02 3.511946e-11
9.680000e+02 2.750689e-11
9.690000e+02 9.599663e-10
9.700000e+02 3.484311e-09
9.710000e+02 6.754450e-11
9.720000e+02 2.745271e-11
9.730000e+02 5.515079e-10
9.740000e+02 2.612723e-09
9.750000e+02 5.544859e-10
9.760000e+02 4.299285e-08
9.770000e+02 1.430463e-08
9.780000e+02 5.986809e-09
9.790000e+02 2.686080e-07
9.800000e+02 1.525010e-07
9.810000e+02 2.602221e-09
9.820000e+02 4.688090e-10
9.830000e+02 1.348357e-07
9.840000e+02 1.052195e-08
9.850000e+02 1.072096e-09
9.860000e+02 1.903031e-09
9.870000e+02 8.897328e-08
9.880000e+02 5.860912e-11
9.890000e+02 1.946614e-08
9.900000e+02 8.475966e-08
9.910000e+02 6.948296e-10
9.920000e+02 7.200261e-11
9.930000e+02 4.298174e-07
9.940000e+02 1.455178e-10
9.950000e+02 1.269947e-08
9.960000e+02 1.624976e-10
9.970000e+02 6.641649e-08
9.980000e+02 9.693592e-08
9.990000e+02 1.036336e-09
1.000000e+03 1.060404e-06
1.001000e+03 7.760627e-07
1.002000e+03 4.368583e-07
1.003000e+03 9.642349e-10
1.004000e+03 1.591616e-10
1.005000e+03 4.468234e-09
1.006000e+03 3.163088e-07
1.007000e+03 6.638165e-07
1.008000e+03 1.747773e-07
1.009000e+03 1.534993e-09
1.010000e+03 1.352024e-07
1.011000e+03 1.134124e-07
1.012000e+03 2.714716e-07
1.013000e+03 2.821944e-07
1.014000e+03 2.995861e-10
1.015000e+03 3.254144e-10
1.016000e+03 7.790561e-09
1.017000e+03 3.620642e-10
1.018000e+03 1.562924e-09
1.019000e+03 4.115464e-10
1.020000e+03 3.943572e-07
1.021000e+03 5.369003e-09
1.022000e+03 7.062738e-09
1.023000e+03 5.874767e-10
1.024000e+03 1.149060e-07
1.025000e+03 5.967031e-10
1.026000e+03 9.259596e-10
1.027000e+03 2.612716e-08
1.028000e+03 4.828422e-09
1.029000e+03 7.637055e-10
1.030000e+03 2.145543e-08
1.031000e+03 9.253847e-08
1.032000e+03 1.592348e-06
1.033000e+03 3.500537e-08
1.034000e+03 8.903828e-08
1.035000e+03 4.174296e-09
1.036000e+03 1.170577e-09
1.037000e+03 7.946720e-07
1.038000e+03 6.083827e-06
1.039000e+03 1.118894e-06
1.040000e+03 4.305665e-07
1.041000e+03 3.702240e-06
1.042000e+03 3.890445e-06
1.043000e+03 5.810001e-06
1.044000e+03 2.138715e-05
1.045000e+03 3.273351e-09
1.046000e+03 5.585766e-07
1.047000e+03 3.920986e-07
1.048000e+03 5.440427e-09
1.049000e+03 2.664479e-07
1.050000e+03 4.987635e-08
1.051000e+03 2.903471e-08
1.052000e+03 6.337699e-06
1.053000e+03 7.897688e-06
1.054000e+03 3.416289e-09
1.055000e+03 9.948135e-06
1.056000e+03 1.243044e-05
1.057000e+03 1.323731e-06
1.058000e+03 2.539436e-08
1.059000e+03 4.675985e-08
1.060000e+03 9.297764e-09
1.061000e+03 3.182748e-06
1.062000e+03 1.546864e-08
1.063000e+03 2.177947e-06
1.064000e+03 9.240466e-09
1.065000e+03 6.453320e-09
1.066000e+03 5.073147e-06
1.067000e+03 3.432447e-08
1.068000e+03 3.299239e-05
1.069000e+03 1.042222e-08
1.070000e+03 2.878478e-07
1.071000e+03 6.475968e-06
1.072000e+03 6.547099e-05
1.073000e+03 1.016269e-08
1.074000e+03 1.721229e-06
1.075000e+03 9.389405e-07
1.076000e+03 7.025012e-05
1.077000e+03 3.338641e-08
1.078000e+03 4.850517e-08
1.079000e+03 2.324416e-07
1.080000e+03 1.596455e-06
1.081000e+03 1.359386e-05
1.082000e+03 5.980175e-06
1.083000e+03 2.700384e-06
1.084000e+03 1.833902e-04
1.085000e+03 5.050751e-07
1.086000e+03 7.000070e-05
1.087000e+03 1.024237e-07
1.088000e+03 1.658662e-04
1.089000e+03 2.044389e-04
1.090000e+03 4.075344e-07
1.091000e+03 7.479102e-07
1.092000e+03 1.707363e-04
1.093000e+03 2.774713e-04
1.094000e+03 4.801586e-06
1.095000e+03 3.598203e-04
1.096000e+03 3.186207e-05
1.097000e+03 8.722541e-05
1.098000e+03 2.709169e-04
1.099000e+03 1.520209e-06
1.100000e+03 4.696994e-08
1.101000e+03 8.318520e-08
1.102000e+03 1.309804e-06
1.103000e+03 4.775486e-04
1.104000e+03 3.213871e-04
1.105000e+03 4.705813e-04
1.106000e+03 7.483777e-06
1.107000e+03 8.170173e-08
1.108000e+03 8.556573e-05
1.109000e+03 8.083880e-07
1.110000e+03 3.489877e-04
1.111000e+03 3.478648e-04
1.112000e+03 3.040402e-05
1.113000e+03 5.079893e-04
1.114000e+03 1.454482e-05
1.115000e+03 8.261586e-07
1.116000e+03 2.147774e-07
1.117000e+03 4.880567e-04
1.118000e+03 1.482389e-06
1.119000e+03 2.501256e-05
1.120000e+03 4.352478e-07
1.121000e+03 2.392550e-04
1.122000e+03 1.607115e-03
1.123000e+03 6.851583e-04
1.124000e+03 8.399615e-04
1.125000e+03 3.368976e-04
1.126000e+03 2.703683e-03
1.127000e+03 2.865672e-04
1.128000e+03 1.267813e-03
1.129000e+03 1.154002e-04
1.130000e+03 1.217172e-03
1.131000e+03 1.408159e-03
1.132000e+03 8.340176e-07
1.133000e+03 1.260545e-05
1.134000e+03 2.420882e-04
1.135000e+03 1.468287e-03
1.136000e+03 2.293079e-05
1.137000e+03 7.857609e-04
1.138000e+03 1.622521e-04
1.139000e+03 1.395674e-03
1.140000e+03 9.568833e-04
1.141000e+03 1.582116e-03
1.142000e+03 1.607343e-03
1.143000e+03 1.272087e-04
1.144000e+03 1.705914e-03
1.145000e+03 7.131021e-07
1.146000e+03 1.670555e-03
1.147000e+03 1.597344e-03
1.148000e+03 5.425070e-06
1.149000e+03 8.550499e-04
1.150000e+03 7.074994e-04
1.151000e+03 1.569600e-03
1.152000e+03 6.950400e-04
1.153000e+03 1.697505e-03
1.154000e+03 1.964245e-03
1.155000e+03 9.632254e-04
1.156000e+03 1.454406e-03
1.157000e+03 1.742078e-03
1.158000e+03 1.963089e-04
1.159000e+03 1.693483e-03
1.160000e+03 3.737005e-04
1.161000e+03 1.570463e-03
1.162000e+03 2.811052e-05
1.163000e+03 1.461767e-04
1.164000e+03 7.727416e-06
1.165000e+03 7.023411e-04
1.166000e+03 4.147555e-04
1.167000e+03 3.369252e-04
1.168000e+03 1.887866e-03
1.169000e+03 2.146794e-03
1.170000e+03 2.248827e-04
1.171000e+03 9.972954e-04
1.172000e+03 5.481725e-04
1.173000e+03 7.427966e-04
1.174000e+03 4.409463e-06
1.175000e+03 5.143404e-06
1.176000e+03 2.390167e-06
1.177000e+03 2.813146e-03
1.178000e+03 2.706492e-03
1.179000e+03 2.481548e-03
1.180000e+03 1.402560e-03
1.181000e+03 2.374396e-03
1.182000e+03 2.170144e-03
1.183000e+03 1.230038e-03
1.184000e+03 1.037928e-03
1.185000e+03 1.147648e-03
1.186000e+03 2.253138e-05
1.187000e+03 1.806028e-03
1.188000e+03 8.679558e-04
1.189000e+03 1.958030e-03
1.190000e+03 1.900423e-03
1.191000e+03 1.651967e-03
1.192000e+03 1.641093e-03
1.193000e+03 1.422275e-03
1.194000e+03 1.600358e-03
1.195000e+03 1.522525e-03
1.196000e+03 1.709464e-02
1.197000e+03 2.623178e-02
1.198000e+03 7.914566e-05
1.199000e+03 2.188928e-02
1.200000e+03 3.790525e-04
1.201000e+03 1.559494e-02
1.202000e+03 4.813277e-03
1.203000e+03 1.113391e-02
1.204000e+03 5.226210e-04
1.205000e+03 7.242750e-03
1.206000e+03 5.870850e-03
1.207000e+03 9.944513e-04
1.208000e+03 3.165903e-03
1.209000e+03 2.460243e-03
1.210000e+03 1.341954e-05
1.211000e+03 9.474959e-04
1.212000e+03 4.235493e-04
1.213000e+03 2.238702e-04
1.214000e+03 7.279485e-05
1.215000e+03 1.450777e-05
1.216000e+03 1.195743e-05
1.217000e+03 4.890131e-05
1.218000e+03 1.930817e-04
1.219000e+03 4.962207e-04
1.220000e+03 4.258032e-04
1.221000e+03 2.008536e-03
1.222000e+03 2.960282e-03
1.223000e+03 2.943795e-03
1.224000e+03 6.929024e-03
1.225000e+03 1.912015e-04
1.226000e+03 1.520577e-02
1.227000e+03 2.028386e-02
1.228000e+03 2.278443e-03
1.229000e+03 2.720896e-02
1.230000e+03 2.111727e-02
1.231000e+03 9.623244e-04
1.232000e+03 5.772626e-02
1.233000e+03 6.905116e-02
1.234000e+03 7.655139e-02
1.235000e+03 7.366768e-02
1.236000e+03 4.432987e-03
1.237000e+03 1.092093e-01
1.238000e+03 1.091355e-01
1.239000e+03 3.352036e-02
1.240000e+03 5.427694e-02
1.241000e+03 5.425159e-02
1.242000e+03 1.152272e-01
1.243000e+03 1.788030e-01
1.244000e+03 1.954549e-01
1.245000e+03 1.989240e-01
1.246000e+03 1.044632e-01
1.247000e+03 1.565140e-01
1.248000e+03 1.999073e-01
1.249000e+03 2.686326e-01
1.250000e+03 1.836035e-01
1.251000e+03 2.781763e-01
1.252000e+03 2.188038e-01
1.253000e+03 3.061746e-01
1.254000e+03 2.332094e-01
1.255000e+03 6.211263e-02
1.256000e+03 1.694074e-01
1.257000e+03 1.618124e-01
1.258000e+03 9.023127e-02
1.259000e+03 1.349469e-01
1.260000e+03 3.348893e-01
1.261000e+03 6.321698e-03
1.262000e+03 3.541595e-01
1.263000e+03 3.008198e-01
1.264000e+03 1.158680e-01
1.265000e+03 2.063769e-01
1.266000e+03 4.192359e-01
1.267000e+03 2.271645e-01
