# wavelength_A flux
5.000000e+02 2.933978e-10
5.010000e+02 3.356661e-10
5.020000e+02 3.838089e-10
5.030000e+02 4.386157e-10
5.040000e+02 5.009757e-10
5.050000e+02 6.084389e-10
5.060000e+02 6.939553e-10
5.070000e+02 7.910687e-10
5.080000e+02 9.012929e-10
5.090000e+02 1.026446e-09
5.100000e+02 1.168236e-09
5.110000e+02 1.328914e-09
5.120000e+02 1.510908e-09
5.130000e+02 1.716937e-09
5.140000e+02 1.950062e-09
5.150000e+02 2.213668e-09
5.160000e+02 2.511727e-09
5.170000e+02 2.848080e-09
5.180000e+02 3.228632e-09
5.190000e+02 3.657774e-09
5.200000e+02 4.141898e-09
5.210000e+02 4.687774e-09
5.220000e+02 5.301575e-09
5.230000e+02 5.996029e-09
5.240000e+02 6.776340e-09
5.250000e+02 7.654783e-09
5.260000e+02 8.642743e-09
5.270000e+02 9.753554e-09
5.280000e+02 1.100194e-08
5.290000e+02 1.239607e-08
5.300000e+02 1.397878e-08
5.310000e+02 1.574584e-08
5.320000e+02 1.772824e-08
5.330000e+02 1.995086e-08
5.340000e+02 2.244182e-08
5.350000e+02 2.523223e-08
5.360000e+02 2.835636e-08
5.370000e+02 3.085612e-08
5.380000e+02 3.576445e-08
5.390000e+02 4.014234e-08
5.400000e+02 4.503331e-08
5.410000e+02 5.048857e-08
5.420000e+02 5.659877e-08
5.430000e+02 6.341333e-08
5.440000e+02 7.101536e-08
5.450000e+02 7.949446e-08
5.460000e+02 8.890955e-08
5.470000e+02 9.948351e-08
5.480000e+02 1.112197e-07
5.490000e+02 1.242884e-07
5.500000e+02 1.388346e-07
5.510000e+02 1.550188e-07
5.520000e+02 1.730177e-07
5.530000e+02 1.930275e-07
5.540000e+02 2.152630e-07
5.550000e+02 2.399619e-07
5.560000e+02 2.673869e-07
5.570000e+02 2.978266e-07
5.580000e+02 3.315986e-07
5.590000e+02 3.690534e-07
5.600000e+02 4.105758e-07
5.610000e+02 4.565902e-07
5.620000e+02 5.075630e-07
5.630000e+02 5.640063e-07
5.640000e+02 6.264822e-07
5.650000e+02 6.956121e-07
5.660000e+02 7.720744e-07
5.670000e+02 8.566141e-07
5.680000e+02 9.500509e-07
5.690000e+02 1.053281e-06
5.700000e+02 1.167289e-06
5.710000e+02 1.293158e-06
5.720000e+02 1.432066e-06
5.730000e+02 1.585310e-06
5.740000e+02 1.754299e-06
5.750000e+02 1.940680e-06
5.760000e+02 2.145646e-06
5.770000e+02 2.372169e-06
5.780000e+02 2.621241e-06
5.790000e+02 2.895422e-06
5.800000e+02 3.197146e-06
5.810000e+02 3.529057e-06
5.820000e+02 3.894016e-06
5.830000e+02 4.295111e-06
5.840000e+02 4.732521e-06
5.850000e+02 5.219648e-06
5.860000e+02 5.752469e-06
5.870000e+02 6.336560e-06
5.880000e+02 6.977496e-06
5.890000e+02 7.680527e-06
5.900000e+02 8.451667e-06
5.910000e+02 9.297085e-06
5.920000e+02 1.022362e-05
5.930000e+02 1.123873e-05
5.940000e+02 1.235055e-05
5.950000e+02 1.356620e-05
5.960000e+02 1.490024e-05
5.970000e+02 1.635818e-05
5.980000e+02 1.795296e-05
5.990000e+02 1.969685e-05
6.000000e+02 2.160313e-05
6.010000e+02 2.368639e-05
6.020000e+02 2.596226e-05
6.030000e+02 2.844786e-05
6.040000e+02 3.116157e-05
6.050000e+02 3.412353e-05
6.060000e+02 3.735505e-05
6.070000e+02 4.088054e-05
6.080000e+02 4.472454e-05
6.090000e+02 4.891505e-05
6.100000e+02 5.348186e-05
6.110000e+02 5.845683e-05
6.120000e+02 6.387576e-05
6.130000e+02 6.977599e-05
6.140000e+02 7.619840e-05
6.150000e+02 8.318722e-05
6.160000e+02 9.078982e-05
6.170000e+02 9.905823e-05
6.180000e+02 1.080480e-04
6.190000e+02 1.178191e-04
6.200000e+02 1.284365e-04
6.210000e+02 1.399702e-04
6.220000e+02 1.524958e-04
6.230000e+02 1.660946e-04
6.240000e+02 1.808540e-04
6.250000e+02 1.968695e-04
6.260000e+02 2.142428e-04
6.270000e+02 2.330838e-04
6.280000e+02 2.535108e-04
6.290000e+02 2.756485e-04
6.300000e+02 2.996397e-04
6.310000e+02 3.256263e-04
6.320000e+02 3.537733e-04
6.330000e+02 3.842473e-04
6.340000e+02 4.172330e-04
6.350000e+02 4.529274e-04
6.360000e+02 4.898173e-04
6.370000e+02 5.333098e-04
6.380000e+02 5.784699e-04
6.390000e+02 6.272860e-04
6.400000e+02 6.800441e-04
6.410000e+02 7.370453e-04
6.420000e+02 7.986157e-04
6.430000e+02 8.651048e-04
6.440000e+02 9.368861e-04
6.450000e+02 1.014359e-03
6.460000e+02 1.097952e-03
6.470000e+02 1.188133e-03
6.480000e+02 1.285400e-03
6.490000e+02 1.390283e-03
6.500000e+02 1.503340e-03
6.510000e+02 1.625182e-03
6.520000e+02 1.756462e-03
6.530000e+02 1.897875e-03
6.540000e+02 2.050166e-03
6.550000e+02 2.214133e-03
6.560000e+02 2.390626e-03
6.570000e+02 2.580493e-03
6.580000e+02 2.784908e-03
6.590000e+02 3.004712e-03
6.600000e+02 3.241084e-03
6.610000e+02 3.495215e-03
6.620000e+02 3.768372e-03
6.630000e+02 4.061875e-03
6.640000e+02 4.377251e-03
6.650000e+02 4.715998e-03
6.660000e+02 5.079780e-03
6.670000e+02 5.470345e-03
6.680000e+02 5.889573e-03
6.690000e+02 6.339468e-03
6.700000e+02 6.822153e-03
6.710000e+02 7.339924e-03
6.720000e+02 7.894522e-03
6.730000e+02 8.490534e-03
6.740000e+02 9.128714e-03
6.750000e+02 9.812658e-03
6.760000e+02 1.054549e-02
6.770000e+02 1.133042e-02
6.780000e+02 1.217119e-02
6.790000e+02 1.307147e-02
6.800000e+02 1.403525e-02
6.810000e+02 1.506680e-02
6.820000e+02 1.617065e-02
6.830000e+02 1.735162e-02
6.840000e+02 1.861480e-02
6.850000e+02 1.996566e-02
6.860000e+02 2.140998e-02
6.870000e+02 2.295339e-02
6.880000e+02 2.460391e-02
6.890000e+02 2.636673e-02
6.900000e+02 2.825041e-02
6.910000e+02 3.026185e-02
6.920000e+02 3.241003e-02
6.930000e+02 3.470350e-02
6.940000e+02 3.715158e-02
6.950000e+02 3.976409e-02
6.960000e+02 4.255184e-02
6.970000e+02 4.552314e-02
6.980000e+02 4.869737e-02
6.990000e+02 5.207954e-02
7.000000e+02 5.568543e-02
7.010000e+02 5.952908e-02
7.020000e+02 6.362534e-02
7.030000e+02 6.798992e-02
7.040000e+02 7.263892e-02
7.050000e+02 7.759128e-02
7.060000e+02 8.286501e-02
7.070000e+02 8.847996e-02
7.080000e+02 9.445703e-02
7.090000e+02 1.008183e-01
7.100000e+02 1.075874e-01
7.110000e+02 1.147889e-01
7.120000e+02 1.224490e-01
7.130000e+02 1.305955e-01
7.140000e+02 1.392576e-01
7.150000e+02 1.484662e-01
7.160000e+02 1.582540e-01
7.170000e+02 1.686532e-01
7.180000e+02 1.796999e-01
7.190000e+02 1.914463e-01
7.200000e+02 2.039163e-01
7.210000e+02 2.171586e-01
7.220000e+02 2.312185e-01
7.230000e+02 2.461438e-01
7.240000e+02 2.619851e-01
7.250000e+02 2.787954e-01
7.260000e+02 2.966311e-01
7.270000e+02 3.155512e-01
7.280000e+02 3.356181e-01
7.290000e+02 3.568977e-01
7.300000e+02 3.794541e-01
7.310000e+02 4.033726e-01
7.320000e+02 4.287214e-01
7.330000e+02 4.555838e-01
7.340000e+02 4.840449e-01
7.350000e+02 5.141949e-01
7.360000e+02 5.461267e-01
7.370000e+02 5.799456e-01
7.380000e+02 6.157514e-01
7.390000e+02 6.536564e-01
7.400000e+02 6.937760e-01
7.410000e+02 7.362357e-01
7.420000e+02 7.811531e-01
7.430000e+02 8.286811e-01
7.440000e+02 8.789535e-01
7.450000e+02 9.321208e-01
7.460000e+02 9.883403e-01
7.470000e+02 1.047778e+00
7.480000e+02 1.110607e+00
7.490000e+02 1.177011e+00
7.500000e+02 1.247182e+00
7.510000e+02 1.321323e+00
7.520000e+02 1.399644e+00
7.530000e+02 1.482370e+00
7.540000e+02 1.569716e+00
7.550000e+02 1.661961e+00
7.560000e+02 1.759348e+00
7.570000e+02 1.862140e+00
7.580000e+02 1.970640e+00
7.590000e+02 2.085117e+00
7.600000e+02 2.205920e+00
7.610000e+02 2.333351e+00
7.620000e+02 2.467757e+00
7.630000e+02 2.609500e+00
7.640000e+02 2.758959e+00
7.650000e+02 2.916497e+00
7.660000e+02 3.082596e+00
7.670000e+02 3.257658e+00
7.680000e+02 3.442107e+00
7.690000e+02 3.636523e+00
7.700000e+02 3.841304e+00
7.710000e+02 4.057006e+00
7.720000e+02 4.284184e+00
7.730000e+02 4.523408e+00
7.740000e+02 4.775283e+00
7.750000e+02 5.040440e+00
7.760000e+02 5.319350e+00
7.770000e+02 5.613208e+00
7.780000e+02 5.922297e+00
7.790000e+02 6.247494e+00
7.800000e+02 6.589594e+00
7.810000e+02 6.949430e+00
7.820000e+02 7.327847e+00
7.830000e+02 7.725779e+00
7.840000e+02 8.144158e+00
7.850000e+02 8.583981e+00
7.860000e+02 9.046275e+00
7.870000e+02 9.532088e+00
7.880000e+02 1.004262e+01
7.890000e+02 1.057903e+01
7.900000e+02 1.114248e+01
7.910000e+02 1.173442e+01
7.920000e+02 1.235605e+01
7.930000e+02 1.300882e+01
7.940000e+02 1.369420e+01
7.950000e+02 1.441372e+01
7.960000e+02 1.516898e+01
7.970000e+02 1.596166e+01
7.980000e+02 1.679328e+01
7.990000e+02 1.766611e+01
8.000000e+02 1.858179e+01
8.010000e+02 1.954233e+01
8.020000e+02 2.054978e+01
8.030000e+02 2.160626e+01
8.040000e+02 2.271413e+01
8.050000e+02 2.387565e+01
8.060000e+02 2.509329e+01
8.070000e+02 2.636959e+01
8.080000e+02 2.770688e+01
8.090000e+02 2.910857e+01
8.100000e+02 3.057722e+01
8.110000e+02 3.211585e+01
8.120000e+02 3.372747e+01
8.130000e+02 3.541571e+01
8.140000e+02 3.718356e+01
8.150000e+02 3.903468e+01
8.160000e+02 4.097298e+01
8.170000e+02 4.300191e+01
8.180000e+02 4.512580e+01
8.190000e+02 4.734819e+01
8.200000e+02 4.967435e+01
8.210000e+02 5.210836e+01
8.220000e+02 5.465490e+01
8.230000e+02 5.731881e+01
8.240000e+02 6.010527e+01
8.250000e+02 6.301949e+01
8.260000e+02 6.606681e+01
8.270000e+02 6.925327e+01
8.280000e+02 7.258467e+01
8.290000e+02 7.606632e+01
8.300000e+02 7.970637e+01
8.310000e+02 8.351064e+01
8.320000e+02 8.748611e+01
8.330000e+02 9.163996e+01
8.340000e+02 9.597974e+01
8.350000e+02 1.004843e+02
8.360000e+02 1.052462e+02
8.370000e+02 1.101939e+02
8.380000e+02 1.153578e+02
8.390000e+02 1.207504e+02
8.400000e+02 1.263804e+02
8.410000e+02 1.322576e+02
8.420000e+02 1.383825e+02
8.430000e+02 1.447955e+02
8.440000e+02 1.514774e+02
8.450000e+02 1.584496e+02
8.460000e+02 1.657241e+02
8.470000e+02 1.733131e+02
8.480000e+02 1.812290e+02
8.490000e+02 1.894859e+02
8.500000e+02 1.980962e+02
8.510000e+02 2.070752e+02
8.520000e+02 2.164371e+02
8.530000e+02 2.261977e+02
8.540000e+02 2.363750e+02
8.550000e+02 2.469805e+02
8.560000e+02 2.580338e+02
8.570000e+02 2.695525e+02
8.580000e+02 2.815547e+02
8.590000e+02 2.940600e+02
8.600000e+02 3.070876e+02
8.610000e+02 3.206581e+02
8.620000e+02 3.347926e+02
8.630000e+02 3.495126e+02
8.640000e+02 3.648419e+02
8.650000e+02 3.808030e+02
8.660000e+02 3.974207e+02
8.670000e+02 4.147200e+02
8.680000e+02 4.327273e+02
8.690000e+02 4.514695e+02
8.700000e+02 4.709702e+02
8.710000e+02 4.912716e+02
8.720000e+02 5.123895e+02
8.730000e+02 5.343615e+02
8.740000e+02 5.572188e+02
8.750000e+02 5.809947e+02
8.760000e+02 6.057236e+02
8.770000e+02 6.314399e+02
8.780000e+02 6.581845e+02
8.790000e+02 6.859915e+02
8.800000e+02 7.149016e+02
8.810000e+02 7.449558e+02
8.820000e+02 7.761963e+02
8.830000e+02 8.086671e+02
8.840000e+02 8.424129e+02
8.850000e+02 8.774800e+02
8.860000e+02 9.139185e+02
8.870000e+02 9.517767e+02
8.880000e+02 9.911063e+02
8.890000e+02 1.031961e+03
8.900000e+02 1.074396e+03
8.910000e+02 1.118466e+03
8.920000e+02 1.159241e+03
8.930000e+02 1.211760e+03
8.940000e+02 1.261105e+03
8.950000e+02 1.312334e+03
8.960000e+02 1.365516e+03
8.970000e+02 1.420719e+03
8.980000e+02 1.478014e+03
8.990000e+02 1.537475e+03
9.000000e+02 1.599180e+03
9.010000e+02 1.663206e+03
9.020000e+02 1.729634e+03
9.030000e+02 1.798550e+03
9.040000e+02 1.869983e+03
9.050000e+02 1.944191e+03
9.060000e+02 2.021099e+03
9.070000e+02 2.100828e+03
9.080000e+02 2.183563e+03
9.090000e+02 2.269315e+03
9.100000e+02 2.358227e+03
9.110000e+02 2.450425e+03
9.120000e+02 2.546115e+03
9.130000e+02 2.560279e+03
9.140000e+02 2.890654e+03
9.150000e+02 4.355112e+04
9.160000e+02 2.176459e+05
9.170000e+02 2.423559e+05
9.180000e+02 2.456588e+05
9.190000e+02 2.583357e+05
9.200000e+02 2.662093e+05
9.210000e+02 3.379313e+03
9.220000e+02 2.812060e+05
9.230000e+02 2.846439e+05
9.240000e+02 2.058434e+05
9.250000e+02 2.950369e+05
9.260000e+02 3.114860e+05
9.270000e+02 3.229765e+05
9.280000e+02 3.332842e+05
9.290000e+02 2.259923e+05
9.300000e+02 3.425532e+05
9.310000e+02 3.541774e+05
9.320000e+02 3.732709e+05
9.330000e+02 3.827893e+05
9.340000e+02 3.942689e+05
9.350000e+02 1.225185e+05
9.360000e+02 4.130784e+05
9.370000e+02 8.140552e+04
9.380000e+02 2.866223e+05
9.390000e+02 4.519444e+05
9.400000e+02 4.651711e+05
9.410000e+02 3.736495e+05
9.420000e+02 4.916455e+05
9.430000e+02 5.050507e+05
9.440000e+02 3.095907e+05
9.450000e+02 5.322062e+05
9.460000e+02 5.473279e+05
9.470000e+02 2.959899e+05
9.480000e+02 5.731658e+05
9.490000e+02 5.780649e+05
9.500000e+02 1.048342e+05
9.510000e+02 5.557379e+05
9.520000e+02 6.420088e+05
9.530000e+02 6.584617e+05
9.540000e+02 4.443873e+05
9.550000e+02 6.968097e+05
9.560000e+02 7.224270e+05
9.570000e+02 6.105134e+05
9.580000e+02 7.384200e+05
9.590000e+02 7.804616e+05
9.600000e+02 1.614902e+05
9.610000e+02 8.254310e+05
9.620000e+02 8.443926e+05
9.630000e+02 8.693331e+05
9.640000e+02 1.985700e+04
9.650000e+02 7.300907e+05
9.660000e+02 9.389559e+05
9.670000e+02 9.624074e+05
9.680000e+02 9.716606e+05
9.690000e+02 9.976301e+05
9.700000e+02 1.031929e+06
9.710000e+02 1.037117e+06
9.720000e+02 8.585406e+05
9.730000e+02 8.243607e+05
9.740000e+02 1.106546e+06
9.750000e+02 1.171607e+06
9.760000e+02 1.209455e+06
9.770000e+02 1.242282e+06
9.780000e+02 1.272000e+06
9.790000e+02 1.309630e+06
9.800000e+02 1.343194e+06
9.810000e+02 1.378546e+06
9.820000e+02 1.394830e+06
9.830000e+02 1.447548e+06
9.840000e+02 1.965985e+05
9.850000e+02 1.522896e+06
9.860000e+02 1.561008e+06
9.870000e+02 1.598954e+06
9.880000e+02 1.628092e+06
9.890000e+02 7.955174e+05
9.900000e+02 5.952949e+04
9.910000e+02 1.732229e+06
9.920000e+02 1.730537e+06
9.930000e+02 1.703263e+06
9.940000e+02 1.694059e+05
9.950000e+02 1.453608e+05
9.960000e+02 4.433530e+05
9.970000e+02 2.696486e+05
9.980000e+02 2.070804e+06
9.990000e+02 2.092617e+06
1.000000e+03 2.198913e+06
1.001000e+03 2.252460e+06
1.002000e+03 2.305454e+06
1.003000e+03 1.933417e+06
1.004000e+03 2.419250e+06
1.005000e+03 2.124570e+06
1.006000e+03 2.536731e+06
1.007000e+03 2.597334e+06
1.008000e+03 2.655966e+06
1.009000e+03 2.518434e+06
1.010000e+03 2.785271e+06
1.011000e+03 2.850254e+06
1.012000e+03 2.915980e+06
1.013000e+03 2.984411e+06
1.014000e+03 3.051316e+06
1.015000e+03 2.985529e+06
1.016000e+03 3.182171e+06
1.017000e+03 3.256898e+06
1.018000e+03 3.328539e+06
1.019000e+03 3.393723e+06
1.020000e+03 3.452902e+06
1.021000e+03 3.146687e+06
1.022000e+03 3.443486e+06
1.023000e+03 3.461247e+06
1.024000e+03 3.122505e+06
1.025000e+03 1.621098e+06
1.026000e+03 4.350500e+05
1.027000e+03 2.877410e+06
1.028000e+03 1.041055e+06
1.029000e+03 4.084263e+06
1.030000e+03 4.195652e+06
1.031000e+03 4.441850e+06
1.032000e+03 4.528421e+06
1.033000e+03 2.628548e+06
1.034000e+03 4.820186e+06
1.035000e+03 8.473970e+05
1.036000e+03 4.981871e+06
1.037000e+03 2.506985e+05
1.038000e+03 5.289889e+06
1.039000e+03 5.372166e+06
1.040000e+03 5.550346e+06
1.041000e+03 5.666040e+06
1.042000e+03 5.605547e+06
1.043000e+03 5.885270e+06
1.044000e+03 6.056776e+06
1.045000e+03 6.197933e+06
1.046000e+03 6.350397e+06
1.047000e+03 6.494574e+06
1.048000e+03 6.588684e+06
1.049000e+03 6.745243e+06
1.050000e+03 6.937774e+06
1.051000e+03 7.091066e+06
1.052000e+03 7.247243e+06
1.053000e+03 7.220496e+06
1.054000e+03 7.563689e+06
1.055000e+03 7.731844e+06
1.056000e+03 7.903000e+06
1.057000e+03 8.072654e+06
1.058000e+03 8.248860e+06
1.059000e+03 8.428351e+06
1.060000e+03 8.609664e+06
1.061000e+03 8.796576e+06
1.062000e+03 8.985523e+06
1.063000e+03 7.621570e+06
1.064000e+03 1.300184e+06
1.065000e+03 9.709719e+06
1.066000e+03 9.893491e+06
1.067000e+03 9.631176e+06
1.068000e+03 1.033695e+07
1.069000e+03 1.054620e+07
1.070000e+03 1.061903e+07
1.071000e+03 1.103206e+07
1.072000e+03 1.126241e+07
1.073000e+03 1.149666e+07
1.074000e+03 1.174167e+07
1.075000e+03 1.197983e+07
1.076000e+03 1.223886e+07
1.077000e+03 1.248139e+07
1.078000e+03 1.275620e+07
1.079000e+03 1.290154e+07
1.080000e+03 1.327513e+07
1.081000e+03 1.356543e+07
1.082000e+03 1.382213e+07
1.083000e+03 1.413153e+07
1.084000e+03 1.313788e+07
1.085000e+03 1.258563e+07
1.086000e+03 1.501977e+07
1.087000e+03 1.532184e+07
1.088000e+03 1.550458e+07
1.089000e+03 1.595247e+07
1.090000e+03 1.626806e+07
1.091000e+03 1.659631e+07
1.092000e+03 1.693676e+07
1.093000e+03 1.724559e+07
1.094000e+03 1.763551e+07
1.095000e+03 1.794775e+07
1.096000e+03 1.834602e+07
1.097000e+03 1.839788e+07
1.098000e+03 1.894175e+07
1.099000e+03 1.944975e+07
1.100000e+03 1.927163e+07
1.101000e+03 1.798241e+07
1.102000e+03 5.045951e+07
1.103000e+03 2.152170e+08
1.104000e+03 5.480051e+07
1.105000e+03 2.024051e+07
1.106000e+03 6.472461e+08
1.107000e+03 6.292899e+08
1.108000e+03 6.685214e+08
1.109000e+03 3.595593e+08
1.110000e+03 5.302736e+07
1.111000e+03 5.305709e+07
1.112000e+03 6.112537e+08
1.113000e+03 7.166431e+08
1.114000e+03 1.510976e+07
1.115000e+03 6.855200e+08
1.116000e+03 7.215193e+08
1.117000e+03 1.289658e+07
1.118000e+03 6.620008e+08
1.119000e+03 7.537068e+08
1.120000e+03 7.650567e+08
1.121000e+03 4.142544e+08
1.122000e+03 2.245952e+06
1.123000e+03 7.250349e+07
1.124000e+03 8.001368e+08
1.125000e+03 2.292787e+08
1.126000e+03 8.326183e+08
1.127000e+03 7.366758e+08
1.128000e+03 3.874765e+08
1.129000e+03 8.352960e+08
1.130000e+03 5.550918e+08
1.131000e+03 8.989689e+08
1.132000e+03 7.854080e+06
1.133000e+03 8.739061e+08
1.134000e+03 8.339161e+08
1.135000e+03 6.983520e+06
1.136000e+03 9.352555e+08
1.137000e+03 9.640804e+08
1.138000e+03 9.917332e+08
1.139000e+03 9.605016e+08
1.140000e+03 5.685248e+06
1.141000e+03 1.034258e+09
1.142000e+03 9.525819e+08
1.143000e+03 1.050604e+09
1.144000e+03 1.068653e+09
1.145000e+03 5.924477e+08
1.146000e+03 1.098564e+09
1.147000e+03 1.046663e+09
1.148000e+03 1.072053e+09
1.149000e+03 1.132468e+09
1.150000e+03 1.026910e+09
1.151000e+03 1.132324e+09
1.152000e+03 1.159890e+09
1.153000e+03 2.008390e+08
1.154000e+03 1.276992e+07
1.155000e+03 9.816915e+08
1.156000e+03 4.263051e+08
1.157000e+03 1.242751e+09
1.158000e+03 1.574097e+07
1.159000e+03 9.952768e+08
1.160000e+03 1.300811e+09
1.161000e+03 1.327049e+09
1.162000e+03 6.989504e+07
1.163000e+03 1.301404e+09
1.164000e+03 3.324794e+07
1.165000e+03 1.384001e+09
1.166000e+03 1.356841e+09
1.167000e+03 1.215421e+09
1.168000e+03 1.428887e+09
1.169000e+03 1.331959e+09
1.170000e+03 1.458145e+09
1.171000e+03 1.471893e+09
1.172000e+03 1.359967e+09
1.173000e+03 1.493418e+09
1.174000e+03 1.461918e+09
1.175000e+03 2.882394e+07
1.176000e+03 1.641613e+07
1.177000e+03 1.512271e+09
1.178000e+03 1.371805e+09
1.179000e+03 1.548146e+09
1.180000e+03 1.161513e+09
1.181000e+03 1.485118e+09
1.182000e+03 1.559087e+09
1.183000e+03 1.557395e+09
1.184000e+03 1.557299e+09
1.185000e+03 1.492907e+09
1.186000e+03 1.544774e+09
1.187000e+03 1.535238e+09
1.188000e+03 1.469541e+09
1.189000e+03 1.505126e+07
1.190000e+03 3.475803e+08
1.191000e+03 1.393227e+09
1.192000e+03 1.382352e+09
1.193000e+03 1.060640e+07
1.194000e+03 1.744051e+07
1.195000e+03 5.296919e+08
1.196000e+03 1.255781e+09
1.197000e+03 1.254316e+09
1.198000e+03 1.258195e+09
1.199000e+03 1.172517e+09
1.200000e+03 9.524177e+08
1.201000e+03 1.009800e+09
1.202000e+03 9.760989e+08
1.203000e+03 9.206214e+08
1.204000e+03 8.080852e+08
1.205000e+03 7.161478e+08
1.206000e+03 5.743404e+08
1.207000e+03 3.541045e+08
1.208000e+03 4.162722e+08
1.209000e+03 3.094989e+08
1.210000e+03 3.671194e+07
1.211000e+03 1.645302e+08
1.212000e+03 1.043738e+08
1.213000e+03 6.070043e+07
1.214000e+03 3.338287e+07
1.215000e+03 1.909991e+07
1.216000e+03 1.614028e+07
1.217000e+03 2.878541e+07
1.218000e+03 5.421333e+07
1.219000e+03 9.910890e+07
1.220000e+03 1.663444e+08
1.221000e+03 2.556521e+08
1.222000e+03 3.652384e+08
1.223000e+03 4.929819e+08
1.224000e+03 6.368310e+08
1.225000e+03 7.949414e+08
1.226000e+03 9.613185e+08
1.227000e+03 1.133739e+09
1.228000e+03 1.338419e+09
1.229000e+03 1.535879e+09
1.230000e+03 1.738660e+09
1.231000e+03 1.952783e+09
1.232000e+03 2.168337e+09
1.233000e+03 2.386315e+09
1.234000e+03 1.280098e+09
1.235000e+03 2.824366e+09
1.236000e+03 3.047139e+09
1.237000e+03 3.263851e+09
1.238000e+03 3.487816e+09
1.239000e+03 3.707390e+09
1.240000e+03 3.616425e+09
1.241000e+03 5.613639e+09
1.242000e+03 3.594072e+09
1.243000e+03 5.364603e+09
1.244000e+03 2.419587e+09
1.245000e+03 3.600752e+09
1.246000e+03 9.053050e+09
1.247000e+03 9.866543e+09
1.248000e+03 2.688049e+09
1.249000e+03 3.626139e+09
1.250000e+03 1.187801e+10
1.251000e+03 1.243888e+10
1.252000e+03 1.294405e+10
1.253000e+03 1.406676e+10
1.254000e+03 1.442243e+10
1.255000e+03 1.542523e+10
1.256000e+03 1.608203e+10
1.257000e+03 1.706865e+10
1.258000e+03 1.741672e+10
1.259000e+03 1.614608e+10
1.260000e+03 1.137026e+10
1.261000e+03 4.567008e+07
1.262000e+03 1.698781e+09
1.263000e+03 2.013358e+10
1.264000e+03 1.586622e+10
1.265000e+03 3.643162e+07
1.266000e+03 2.134535e+10
1.267000e+03 2.472191e+10
