# wavelength_A flux
5.000000e+02 3.354180e-38
5.010000e+02 4.297401e-38
5.020000e+02 5.500482e-38
5.030000e+02 7.033542e-38
5.040000e+02 8.985399e-38
5.050000e+02 3.324887e-37
5.060000e+02 4.217281e-37
5.070000e+02 5.344370e-37
5.080000e+02 6.767197e-37
5.090000e+02 8.560401e-37
5.100000e+02 1.081907e-36
5.110000e+02 1.366192e-36
5.120000e+02 1.723681e-36
5.130000e+02 2.172778e-36
5.140000e+02 2.736514e-36
5.150000e+02 3.443378e-36
5.160000e+02 4.329539e-36
5.170000e+02 5.438720e-36
5.180000e+02 6.827199e-36
5.190000e+02 8.561907e-36
5.200000e+02 1.072824e-35
5.210000e+02 1.343046e-35
5.220000e+02 1.672367e-35
5.230000e+02 2.099631e-35
5.240000e+02 2.623004e-35
5.250000e+02 3.273460e-35
5.260000e+02 4.082116e-35
5.270000e+02 5.085873e-35
5.280000e+02 6.331382e-35
5.290000e+02 7.868963e-35
5.300000e+02 9.785728e-35
5.310000e+02 1.215581e-34
5.320000e+02 1.508639e-34
5.330000e+02 1.870702e-34
5.340000e+02 2.317949e-34
5.350000e+02 2.869646e-34
5.360000e+02 3.548943e-34
5.370000e+02 2.544841e-34
5.380000e+02 5.419093e-34
5.390000e+02 6.690894e-34
5.400000e+02 8.254402e-34
5.410000e+02 1.016528e-33
5.420000e+02 1.253009e-33
5.430000e+02 1.542067e-33
5.440000e+02 1.896415e-33
5.450000e+02 2.330489e-33
5.460000e+02 2.860134e-33
5.470000e+02 3.511839e-33
5.480000e+02 4.306349e-33
5.490000e+02 5.276858e-33
5.500000e+02 6.461499e-33
5.510000e+02 7.906707e-33
5.520000e+02 9.668142e-33
5.530000e+02 1.181375e-32
5.540000e+02 1.442552e-32
5.550000e+02 1.760257e-32
5.560000e+02 2.146460e-32
5.570000e+02 2.615611e-32
5.580000e+02 3.185145e-32
5.590000e+02 3.876075e-32
5.600000e+02 4.713719e-32
5.610000e+02 5.728558e-32
5.620000e+02 6.957266e-32
5.630000e+02 8.444145e-32
5.640000e+02 1.024180e-31
5.650000e+02 1.241392e-31
5.660000e+02 1.503732e-31
5.670000e+02 1.820297e-31
5.680000e+02 2.202108e-31
5.690000e+02 2.662289e-31
5.700000e+02 3.216587e-31
5.710000e+02 3.883834e-31
5.720000e+02 4.686540e-31
5.730000e+02 5.651607e-31
5.740000e+02 6.811333e-31
5.750000e+02 8.209464e-31
5.760000e+02 9.816779e-31
5.770000e+02 1.188673e-30
5.780000e+02 1.429013e-30
5.790000e+02 1.716895e-30
5.800000e+02 2.061504e-30
5.810000e+02 2.473723e-30
5.820000e+02 2.966338e-30
5.830000e+02 3.553393e-30
5.840000e+02 4.202776e-30
5.850000e+02 5.083134e-30
5.860000e+02 6.099354e-30
5.870000e+02 7.294999e-30
5.880000e+02 8.720223e-30
5.890000e+02 1.041547e-29
5.900000e+02 1.243401e-29
5.910000e+02 1.483415e-29
5.920000e+02 1.768828e-29
5.930000e+02 2.107910e-29
5.940000e+02 2.510578e-29
5.950000e+02 2.988494e-29
5.960000e+02 3.555508e-29
5.970000e+02 4.227635e-29
5.980000e+02 5.024052e-29
5.990000e+02 5.967232e-29
6.000000e+02 7.083616e-29
6.010000e+02 8.393106e-29
6.020000e+02 9.965907e-29
6.030000e+02 1.181124e-28
6.040000e+02 1.399082e-28
6.050000e+02 1.656379e-28
6.060000e+02 1.959957e-28
6.070000e+02 2.318021e-28
6.080000e+02 2.739983e-28
6.090000e+02 3.237071e-28
6.100000e+02 3.822327e-28
6.110000e+02 4.511146e-28
6.120000e+02 5.321321e-28
6.130000e+02 6.273795e-28
6.140000e+02 7.392996e-28
6.150000e+02 8.707453e-28
6.160000e+02 1.025045e-27
6.170000e+02 1.206131e-27
6.180000e+02 1.418447e-27
6.190000e+02 1.667300e-27
6.200000e+02 1.958862e-27
6.210000e+02 2.300271e-27
6.220000e+02 2.699865e-27
6.230000e+02 3.167329e-27
6.240000e+02 3.713948e-27
6.250000e+02 4.352799e-27
6.260000e+02 5.099098e-27
6.270000e+02 5.970583e-27
6.280000e+02 6.987614e-27
6.290000e+02 8.174006e-27
6.300000e+02 9.556570e-27
6.310000e+02 1.098131e-26
6.320000e+02 1.304721e-26
6.330000e+02 1.520855e-26
6.340000e+02 1.777986e-26
6.350000e+02 2.073255e-26
6.360000e+02 2.418118e-26
6.370000e+02 2.818534e-26
6.380000e+02 3.283428e-26
6.390000e+02 3.823281e-26
6.400000e+02 4.449900e-26
6.410000e+02 5.176910e-26
6.420000e+02 6.020024e-26
6.430000e+02 6.997372e-26
6.440000e+02 8.129798e-26
6.450000e+02 9.441210e-26
6.460000e+02 1.095973e-25
6.470000e+02 1.271688e-25
6.480000e+02 1.474925e-25
6.490000e+02 1.709909e-25
6.500000e+02 1.981187e-25
6.510000e+02 2.295189e-25
6.520000e+02 2.657487e-25
6.530000e+02 3.075644e-25
6.540000e+02 3.558110e-25
6.550000e+02 4.114535e-25
6.560000e+02 4.755997e-25
6.570000e+02 5.494806e-25
6.580000e+02 6.346647e-25
6.590000e+02 7.327036e-25
6.600000e+02 8.455258e-25
6.610000e+02 9.753666e-25
6.620000e+02 1.124661e-24
6.630000e+02 1.296284e-24
6.640000e+02 1.493498e-24
6.650000e+02 1.720023e-24
6.660000e+02 1.980135e-24
6.670000e+02 2.278669e-24
6.680000e+02 2.621186e-24
6.690000e+02 3.014001e-24
6.700000e+02 3.464332e-24
6.710000e+02 3.980400e-24
6.720000e+02 4.571572e-24
6.730000e+02 5.248523e-24
6.740000e+02 6.023403e-24
6.750000e+02 6.910101e-24
6.760000e+02 7.924246e-24
6.770000e+02 9.083786e-24
6.780000e+02 1.040907e-23
6.790000e+02 1.192324e-23
6.800000e+02 1.365256e-23
6.810000e+02 1.562687e-23
6.820000e+02 1.788005e-23
6.830000e+02 2.045057e-23
6.840000e+02 2.338204e-23
6.850000e+02 2.672357e-23
6.860000e+02 3.053233e-23
6.870000e+02 3.487090e-23
6.880000e+02 3.981182e-23
6.890000e+02 4.543608e-23
6.900000e+02 5.183631e-23
6.910000e+02 5.911701e-23
6.920000e+02 6.739638e-23
6.930000e+02 7.680811e-23
6.940000e+02 8.750334e-23
6.950000e+02 9.965289e-23
6.960000e+02 1.134497e-22
6.970000e+02 1.291088e-22
6.980000e+02 1.468852e-22
6.990000e+02 1.670476e-22
7.000000e+02 1.899124e-22
7.010000e+02 2.158348e-22
7.020000e+02 2.452098e-22
7.030000e+02 2.784767e-22
7.040000e+02 3.161761e-22
7.050000e+02 3.588435e-22
7.060000e+02 4.071290e-22
7.070000e+02 4.617664e-22
7.080000e+02 5.235564e-22
7.090000e+02 5.934085e-22
7.100000e+02 6.723804e-22
7.110000e+02 7.615993e-22
7.120000e+02 8.623747e-22
7.130000e+02 9.761748e-22
7.140000e+02 1.104624e-21
7.150000e+02 1.249566e-21
7.160000e+02 1.413083e-21
7.170000e+02 1.597470e-21
7.180000e+02 1.805327e-21
7.190000e+02 2.039651e-21
7.200000e+02 2.303617e-21
7.210000e+02 2.600924e-21
7.220000e+02 2.935679e-21
7.230000e+02 3.312482e-21
7.240000e+02 3.736481e-21
7.250000e+02 4.213479e-21
7.260000e+02 4.749785e-21
7.270000e+02 5.352881e-21
7.280000e+02 6.030593e-21
7.290000e+02 6.792033e-21
7.300000e+02 7.647282e-21
7.310000e+02 8.607608e-21
7.320000e+02 9.685599e-21
7.330000e+02 1.089531e-20
7.340000e+02 1.225243e-20
7.350000e+02 1.377448e-20
7.360000e+02 1.548052e-20
7.370000e+02 1.739383e-20
7.380000e+02 1.953717e-20
7.390000e+02 2.193815e-20
7.400000e+02 2.462676e-20
7.410000e+02 2.763725e-20
7.420000e+02 3.100621e-20
7.430000e+02 3.477634e-20
7.440000e+02 3.899338e-20
7.450000e+02 4.370910e-20
7.460000e+02 4.898106e-20
7.470000e+02 5.487321e-20
7.480000e+02 6.145664e-20
7.490000e+02 6.881041e-20
7.500000e+02 7.702233e-20
7.510000e+02 8.619000e-20
7.520000e+02 9.642182e-20
7.530000e+02 1.078381e-19
7.540000e+02 1.205725e-19
7.550000e+02 1.347732e-19
7.560000e+02 1.506048e-19
7.570000e+02 1.682382e-19
7.580000e+02 1.879105e-19
7.590000e+02 2.098095e-19
7.600000e+02 2.342007e-19
7.610000e+02 2.613538e-19
7.620000e+02 2.915777e-19
7.630000e+02 3.252078e-19
7.640000e+02 3.626192e-19
7.650000e+02 4.042247e-19
7.660000e+02 4.504863e-19
7.670000e+02 5.019072e-19
7.680000e+02 5.590411e-19
7.690000e+02 6.129430e-19
7.700000e+02 6.930446e-19
7.710000e+02 7.713391e-19
7.720000e+02 8.582550e-19
7.730000e+02 9.547157e-19
7.740000e+02 1.061742e-18
7.750000e+02 1.180462e-18
7.760000e+02 1.311498e-18
7.770000e+02 1.458085e-18
7.780000e+02 1.619875e-18
7.790000e+02 1.799162e-18
7.800000e+02 1.997781e-18
7.810000e+02 2.217765e-18
7.820000e+02 2.461352e-18
7.830000e+02 2.731006e-18
7.840000e+02 3.029443e-18
7.850000e+02 3.359656e-18
7.860000e+02 3.724917e-18
7.870000e+02 4.129226e-18
7.880000e+02 4.575908e-18
7.890000e+02 5.069661e-18
7.900000e+02 5.615314e-18
7.910000e+02 6.218175e-18
7.920000e+02 6.884081e-18
7.930000e+02 7.619447e-18
7.940000e+02 8.431320e-18
7.950000e+02 9.327472e-18
7.960000e+02 1.031637e-17
7.970000e+02 1.140737e-17
7.980000e+02 1.261075e-17
7.990000e+02 1.393774e-17
8.000000e+02 1.540073e-17
8.010000e+02 1.701318e-17
8.020000e+02 1.879018e-17
8.030000e+02 2.074782e-17
8.040000e+02 2.290406e-17
8.050000e+02 2.527850e-17
8.060000e+02 2.789260e-17
8.070000e+02 3.076989e-17
8.080000e+02 3.393616e-17
8.090000e+02 3.741963e-17
8.100000e+02 4.125121e-17
8.110000e+02 4.546480e-17
8.120000e+02 5.009723e-17
8.130000e+02 5.518917e-17
8.140000e+02 6.078484e-17
8.150000e+02 6.693276e-17
8.160000e+02 7.368590e-17
8.170000e+02 8.110188e-17
8.180000e+02 8.924499e-17
8.190000e+02 9.818343e-17
8.200000e+02 1.079931e-16
8.210000e+02 1.187566e-16
8.220000e+02 1.305641e-16
8.230000e+02 1.435140e-16
8.240000e+02 1.577136e-16
8.250000e+02 1.732805e-16
8.260000e+02 1.903427e-16
8.270000e+02 2.090391e-16
8.280000e+02 2.295222e-16
8.290000e+02 2.519580e-16
8.300000e+02 2.765275e-16
8.310000e+02 3.034277e-16
8.320000e+02 3.328737e-16
8.330000e+02 3.650994e-16
8.340000e+02 4.003600e-16
8.350000e+02 4.381985e-16
8.360000e+02 4.811173e-16
8.370000e+02 5.272524e-16
8.380000e+02 5.776504e-16
8.390000e+02 6.328114e-16
8.400000e+02 6.930535e-16
8.410000e+02 7.588739e-16
8.420000e+02 8.307550e-16
8.430000e+02 9.092933e-16
8.440000e+02 9.950317e-16
8.450000e+02 1.088632e-15
8.460000e+02 1.190792e-15
8.470000e+02 1.302275e-15
8.480000e+02 1.423905e-15
8.490000e+02 1.556580e-15
8.500000e+02 1.701274e-15
8.510000e+02 1.859043e-15
8.520000e+02 2.031031e-15
8.530000e+02 2.218498e-15
8.540000e+02 2.422797e-15
8.550000e+02 2.645369e-15
8.560000e+02 2.887807e-15
8.570000e+02 3.151847e-15
8.580000e+02 3.426904e-15
8.590000e+02 3.752335e-15
8.600000e+02 4.093005e-15
8.610000e+02 4.463732e-15
8.620000e+02 4.867092e-15
8.630000e+02 5.305855e-15
8.640000e+02 5.783090e-15
8.650000e+02 6.301480e-15
8.660000e+02 6.866185e-15
8.670000e+02 7.479427e-15
8.680000e+02 8.145885e-15
8.690000e+02 8.870047e-15
8.700000e+02 9.656743e-15
8.710000e+02 1.051122e-14
8.720000e+02 1.143916e-14
8.730000e+02 1.244666e-14
8.740000e+02 1.354037e-14
8.750000e+02 1.472743e-14
8.760000e+02 1.601557e-14
8.770000e+02 1.741304e-14
8.780000e+02 1.892916e-14
8.790000e+02 2.057339e-14
8.800000e+02 2.235630e-14
8.810000e+02 2.428927e-14
8.820000e+02 2.638453e-14
8.830000e+02 2.865520e-14
8.840000e+02 3.111587e-14
8.850000e+02 3.378158e-14
8.860000e+02 3.666903e-14
8.870000e+02 3.979610e-14
8.880000e+02 4.318209e-14
8.890000e+02 4.684776e-14
8.900000e+02 5.081558e-14
8.910000e+02 5.510961e-14
8.920000e+02 5.974518e-14
8.930000e+02 6.478240e-14
8.940000e+02 7.021936e-14
8.950000e+02 7.609922e-14
8.960000e+02 8.245698e-14
8.970000e+02 8.933027e-14
8.980000e+02 9.675961e-14
8.990000e+02 1.047886e-13
9.000000e+02 1.134642e-13
9.010000e+02 1.228368e-13
9.020000e+02 1.329606e-13
9.030000e+02 1.438921e-13
9.040000e+02 1.557002e-13
9.050000e+02 1.684166e-13
9.060000e+02 1.822041e-13
9.070000e+02 1.970495e-13
9.080000e+02 2.130750e-13
9.090000e+02 2.303613e-13
9.100000e+02 2.490081e-13
9.110000e+02 2.691272e-13
9.120000e+02 2.909103e-13
9.130000e+02 2.716606e-13
9.140000e+02 1.818989e-12
9.150000e+02 5.543100e-05
9.160000e+02 9.349736e-05
9.170000e+02 9.780968e-05
9.180000e+02 1.017954e-04
9.190000e+02 1.072437e-04
9.200000e+02 1.122333e-04
9.210000e+02 5.249134e-13
9.220000e+02 1.221742e-04
9.230000e+02 1.249383e-04
9.240000e+02 1.265498e-04
9.250000e+02 1.308716e-04
9.260000e+02 1.423290e-04
9.270000e+02 1.517090e-04
9.280000e+02 1.599152e-04
9.290000e+02 6.887655e-05
9.300000e+02 1.573168e-04
9.310000e+02 1.708785e-04
9.320000e+02 1.907191e-04
9.330000e+02 1.987657e-04
9.340000e+02 2.022158e-04
9.350000e+02 1.129774e-08
9.360000e+02 8.308312e-05
9.370000e+02 2.734737e-09
9.380000e+02 7.026701e-07
9.390000e+02 1.741529e-04
9.400000e+02 2.644903e-04
9.410000e+02 7.355447e-08
9.420000e+02 2.875003e-04
9.430000e+02 2.336715e-04
9.440000e+02 1.975777e-04
9.450000e+02 3.233131e-04
9.460000e+02 3.301984e-04
9.470000e+02 1.400127e-06
9.480000e+02 3.521091e-06
9.490000e+02 3.503001e-04
9.500000e+02 3.245077e-09
9.510000e+02 3.908430e-04
9.520000e+02 4.287470e-04
9.530000e+02 1.301720e-04
9.540000e+02 9.186537e-06
9.550000e+02 3.932454e-04
9.560000e+02 8.723437e-07
9.570000e+02 6.415794e-06
9.580000e+02 7.643248e-07
9.590000e+02 6.256140e-04
9.600000e+02 1.239823e-08
9.610000e+02 6.515157e-04
9.620000e+02 6.650308e-04
9.630000e+02 4.808910e-04
9.640000e+02 2.211891e-09
9.650000e+02 2.519548e-05
9.660000e+02 6.835491e-04
9.670000e+02 3.057608e-04
9.680000e+02 1.953498e-04
9.690000e+02 8.380987e-04
9.700000e+02 9.125928e-04
9.710000e+02 3.786579e-04
9.720000e+02 1.253699e-04
9.730000e+02 3.558132e-04
9.740000e+02 9.192448e-04
9.750000e+02 8.811162e-04
9.760000e+02 1.293319e-03
9.770000e+02 1.363983e-03
9.780000e+02 1.341674e-03
9.790000e+02 1.527213e-03
9.800000e+02 1.587995e-03
9.810000e+02 1.576890e-03
9.820000e+02 1.285218e-03
9.830000e+02 1.824585e-03
9.840000e+02 7.671811e-06
9.850000e+02 6.438189e-04
9.860000e+02 1.551447e-03
9.870000e+02 2.207046e-03
9.880000e+02 3.856013e-05
9.890000e+02 1.812158e-03
9.900000e+02 2.162157e-06
9.910000e+02 7.200817e-04
9.920000e+02 1.673267e-06
9.930000e+02 1.344902e-03
9.940000e+02 7.916242e-09
9.950000e+02 1.369272e-05
9.960000e+02 2.370074e-04
9.970000e+02 6.251503e-08
9.980000e+02 3.298138e-03
9.990000e+02 3.318217e-04
1.000000e+03 3.197360e-03
1.001000e+03 4.358071e-03
1.002000e+03 4.560778e-03
1.003000e+03 2.640998e-03
1.004000e+03 7.942447e-05
1.005000e+03 3.877412e-03
1.006000e+03 5.493298e-03
1.007000e+03 5.704938e-03
1.008000e+03 5.779230e-03
1.009000e+03 2.829397e-03
1.010000e+03 6.558456e-03
1.011000e+03 6.883240e-03
1.012000e+03 7.171236e-03
1.013000e+03 7.491020e-03
1.014000e+03 4.759990e-06
1.015000e+03 6.284192e-05
1.016000e+03 5.229958e-03
1.017000e+03 4.463829e-06
1.018000e+03 5.326592e-03
1.019000e+03 9.443704e-05
1.020000e+03 9.613480e-03
1.021000e+03 8.394010e-06
1.022000e+03 1.405802e-03
1.023000e+03 3.968519e-04
1.024000e+03 2.607037e-04
1.025000e+03 2.753448e-06
1.026000e+03 4.496748e-06
1.027000e+03 7.063674e-04
1.028000e+03 5.122274e-07
1.029000e+03 8.363277e-06
1.030000e+03 8.226883e-03
1.031000e+03 1.391412e-02
1.032000e+03 7.249677e-03
1.033000e+03 1.064688e-05
1.034000e+03 1.630990e-02
1.035000e+03 1.974404e-07
1.036000e+03 2.264231e-05
1.037000e+03 2.107684e-02
1.038000e+03 2.236682e-02
1.039000e+03 2.121789e-02
1.040000e+03 2.434761e-02
1.041000e+03 1.798937e-02
1.042000e+03 2.664611e-02
1.043000e+03 1.347521e-02
1.044000e+03 2.907466e-02
1.045000e+03 2.993346e-02
1.046000e+03 3.127035e-02
1.047000e+03 3.051091e-02
1.048000e+03 4.873507e-03
1.049000e+03 2.526911e-02
1.050000e+03 2.817518e-02
1.051000e+03 2.268019e-02
1.052000e+03 4.032120e-02
1.053000e+03 4.213390e-02
1.054000e+03 3.388524e-05
1.055000e+03 5.246274e-03
1.056000e+03 4.800358e-02
1.057000e+03 4.737773e-02
1.058000e+03 3.727584e-02
1.059000e+03 2.865574e-02
1.060000e+03 5.385123e-03
1.061000e+03 5.819354e-02
1.062000e+03 3.241080e-02
1.063000e+03 3.049550e-06
1.064000e+03 2.607703e-07
1.065000e+03 6.528199e-05
1.066000e+03 1.569390e-04
1.067000e+03 5.253827e-03
1.068000e+03 7.833762e-02
1.069000e+03 3.458233e-03
1.070000e+03 7.781097e-02
1.071000e+03 8.811114e-02
1.072000e+03 9.176341e-02
1.073000e+03 2.479181e-04
1.074000e+03 9.457635e-02
1.075000e+03 9.514943e-02
1.076000e+03 6.409751e-02
1.077000e+03 2.477318e-05
1.078000e+03 6.831851e-02
1.079000e+03 1.051165e-01
1.080000e+03 9.837339e-02
1.081000e+03 1.288764e-01
1.082000e+03 1.294294e-01
1.083000e+03 1.246126e-01
1.084000e+03 1.191969e-01
1.085000e+03 1.789804e-02
1.086000e+03 1.554623e-01
1.087000e+03 6.077139e-02
1.088000e+03 1.617169e-01
1.089000e+03 1.720646e-01
1.090000e+03 1.395301e-01
1.091000e+03 1.344453e-01
1.092000e+03 5.264124e-02
1.093000e+03 1.856878e-01
1.094000e+03 1.917308e-01
1.095000e+03 2.085536e-01
1.096000e+03 2.566129e-03
1.097000e+03 1.287535e-01
1.098000e+03 7.171262e-02
1.099000e+03 2.040049e-01
1.100000e+03 7.356577e-03
1.101000e+03 4.006332e-02
1.102000e+03 2.355391e-01
1.103000e+03 3.352990e-01
1.104000e+03 3.206349e-01
1.105000e+03 2.805731e-01
1.106000e+03 3.705261e-01
1.107000e+03 1.876488e-02
1.108000e+03 3.823452e-01
1.109000e+03 1.778840e-01
1.110000e+03 2.877169e-01
1.111000e+03 3.697894e-01
1.112000e+03 4.250534e-01
1.113000e+03 3.632717e-01
1.114000e+03 2.525907e-01
1.115000e+03 2.415114e-01
1.116000e+03 1.799792e-01
1.117000e+03 3.438626e-01
1.118000e+03 2.448410e-01
1.119000e+03 4.841731e-01
1.120000e+03 2.341197e-01
1.121000e+03 5.051294e-01
1.122000e+03 5.317175e-02
1.123000e+03 4.185119e-01
1.124000e+03 5.358510e-01
1.125000e+03 4.843747e-01
1.126000e+03 5.564143e-01
1.127000e+03 5.513229e-01
1.128000e+03 4.050932e-01
1.129000e+03 5.717427e-01
1.130000e+03 4.551266e-01
1.131000e+03 5.368949e-01
1.132000e+03 1.799041e-02
1.133000e+03 5.104655e-01
1.134000e+03 5.499187e-01
1.135000e+03 5.810857e-04
1.136000e+03 5.857831e-01
1.137000e+03 6.674086e-01
1.138000e+03 6.679826e-01
1.139000e+03 6.907215e-01
1.140000e+03 3.152591e-01
1.141000e+03 7.151144e-01
1.142000e+03 7.272945e-01
1.143000e+03 6.493449e-01
1.144000e+03 6.932893e-01
1.145000e+03 1.128081e-01
1.146000e+03 7.779031e-01
1.147000e+03 7.837107e-01
1.148000e+03 6.011084e-01
1.149000e+03 8.073583e-01
1.150000e+03 8.050844e-01
1.151000e+03 8.430262e-01
1.152000e+03 8.604511e-01
1.153000e+03 6.711125e-01
1.154000e+03 8.427265e-01
1.155000e+03 8.888722e-01
1.156000e+03 1.383398e-01
1.157000e+03 8.934156e-01
1.158000e+03 4.407445e-01
1.159000e+03 9.467112e-01
1.160000e+03 9.659668e-01
1.161000e+03 9.890024e-01
1.162000e+03 4.186292e-01
1.163000e+03 9.733263e-01
1.164000e+03 3.367662e-04
1.165000e+03 1.055261e+00
1.166000e+03 1.078415e+00
1.167000e+03 1.102383e+00
1.168000e+03 1.128681e+00
1.169000e+03 1.042956e+00
1.170000e+03 1.163934e+00
1.171000e+03 1.198926e+00
1.172000e+03 1.224635e+00
1.173000e+03 1.253266e+00
1.174000e+03 5.401332e-01
1.175000e+03 3.986359e-04
1.176000e+03 9.918213e-05
1.177000e+03 1.364675e+00
1.178000e+03 1.382768e+00
1.179000e+03 1.416462e+00
1.180000e+03 1.337501e+00
1.181000e+03 1.449331e+00
1.182000e+03 1.493486e+00
1.183000e+03 1.528849e+00
1.184000e+03 1.524118e+00
1.185000e+03 1.591910e+00
1.186000e+03 1.197806e+00
1.187000e+03 1.608200e+00
1.188000e+03 1.594108e+00
1.189000e+03 9.165140e-01
1.190000e+03 1.540444e+00
1.191000e+03 1.726677e+00
1.192000e+03 1.725370e+00
1.193000e+03 3.025959e-01
1.194000e+03 1.094856e+00
1.195000e+03 1.742858e+00
1.196000e+03 1.764192e+00
1.197000e+03 3.700933e+00
1.198000e+03 3.208504e+00
1.199000e+03 3.427122e+00
1.200000e+03 2.948174e+00
1.201000e+03 3.143368e+00
1.202000e+03 3.021221e+00
1.203000e+03 4.333631e+00
1.204000e+03 3.597168e+00
1.205000e+03 3.342692e+00
1.206000e+03 3.140106e+00
1.207000e+03 3.674054e-02
1.208000e+03 1.818120e+00
1.209000e+03 1.133638e+00
1.210000e+03 6.092191e-04
1.211000e+03 3.736125e-01
1.212000e+03 1.431788e-01
1.213000e+03 4.823645e-02
1.214000e+03 1.074449e-02
1.215000e+03 9.747357e-04
1.216000e+03 1.885806e-04
1.217000e+03 6.108220e-03
1.218000e+03 3.566342e-02
1.219000e+03 1.277568e-01
1.220000e+03 3.633575e-01
1.221000e+03 7.183492e-01
1.222000e+03 1.428861e+00
1.223000e+03 2.113036e+00
1.224000e+03 2.781950e+00
1.225000e+03 3.781256e+00
1.226000e+03 5.235096e+00
1.227000e+03 6.376349e+00
1.228000e+03 7.774620e+00
1.229000e+03 8.958326e+00
1.230000e+03 4.977787e-02
1.231000e+03 7.801851e+00
1.232000e+03 1.194980e+01
1.233000e+03 1.317895e+01
1.234000e+03 7.855091e+00
1.235000e+03 1.507622e+01
1.236000e+03 1.551808e+01
1.237000e+03 1.675781e+01
1.238000e+03 1.755948e+01
1.239000e+03 1.775537e+01
1.240000e+03 9.963903e-01
1.241000e+03 1.775029e+01
1.242000e+03 2.029545e+01
1.243000e+03 2.110431e+01
1.244000e+03 2.134501e+01
1.245000e+03 1.666882e+01
1.246000e+03 2.292477e+01
1.247000e+03 2.322405e+01
1.248000e+03 4.080185e+00
1.249000e+03 2.450955e+01
1.250000e+03 2.102042e+01
1.251000e+03 2.656693e+01
1.252000e+03 2.493443e+01
1.253000e+03 2.786892e+01
1.254000e+03 2.757559e+01
1.255000e+03 9.242683e+00
1.256000e+03 2.867282e+01
1.257000e+03 2.059123e+01
1.258000e+03 2.592114e+01
1.259000e+03 3.220397e+01
1.260000e+03 3.266229e+01
1.261000e+03 4.136906e-01
1.262000e+03 3.377390e+01
1.263000e+03 2.138553e+01
1.264000e+03 3.399285e+01
1.265000e+03 6.274605e-02
1.266000e+03 3.792449e+01
1.267000e+03 3.859367e+01
