# wavelength_A flux
5.000000e+02 7.012297e-34
5.010000e+02 8.948779e-34
5.020000e+02 1.140872e-33
5.030000e+02 1.453054e-33
5.040000e+02 1.848850e-33
5.050000e+02 2.355385e-33
5.060000e+02 2.990946e-33
5.070000e+02 3.794233e-33
5.080000e+02 4.808885e-33
5.090000e+02 6.088954e-33
5.100000e+02 7.687558e-33
5.110000e+02 9.734515e-33
5.120000e+02 1.229078e-32
5.130000e+02 1.550486e-32
5.140000e+02 1.954086e-32
5.150000e+02 2.460490e-32
5.160000e+02 3.095310e-32
5.170000e+02 3.890414e-32
5.180000e+02 4.885350e-32
5.190000e+02 6.129246e-32
5.200000e+02 7.683026e-32
5.210000e+02 9.622181e-32
5.220000e+02 1.204001e-31
5.230000e+02 1.505265e-31
5.240000e+02 1.880252e-31
5.250000e+02 2.346624e-31
5.260000e+02 2.926158e-31
5.270000e+02 3.645702e-31
5.280000e+02 4.538325e-31
5.290000e+02 5.644730e-31
5.300000e+02 7.014974e-31
5.310000e+02 8.710564e-31
5.320000e+02 1.080702e-30
5.330000e+02 1.339698e-30
5.340000e+02 1.659400e-30
5.350000e+02 2.053718e-30
5.360000e+02 2.539672e-30
5.370000e+02 3.136365e-30
5.380000e+02 3.874378e-30
5.390000e+02 4.779620e-30
5.400000e+02 5.891687e-30
5.410000e+02 7.256750e-30
5.420000e+02 8.931107e-30
5.430000e+02 1.098319e-29
5.440000e+02 1.349629e-29
5.450000e+02 1.657162e-29
5.460000e+02 2.033208e-29
5.470000e+02 2.492683e-29
5.480000e+02 3.053673e-29
5.490000e+02 3.738090e-29
5.500000e+02 4.572468e-29
5.510000e+02 5.588910e-29
5.520000e+02 6.826227e-29
5.530000e+02 8.331312e-29
5.540000e+02 1.016077e-28
5.550000e+02 1.238291e-28
5.560000e+02 1.508005e-28
5.570000e+02 1.835138e-28
5.580000e+02 2.231631e-28
5.590000e+02 2.711847e-28
5.600000e+02 3.293055e-28
5.610000e+02 3.995999e-28
5.620000e+02 4.845583e-28
5.630000e+02 5.871682e-28
5.640000e+02 7.110114e-28
5.650000e+02 8.603789e-28
5.660000e+02 1.040408e-27
5.670000e+02 1.257245e-27
5.680000e+02 1.518238e-27
5.690000e+02 1.832169e-27
5.700000e+02 2.209521e-27
5.710000e+02 2.662804e-27
5.720000e+02 3.206938e-27
5.730000e+02 3.859699e-27
5.740000e+02 4.642260e-27
5.750000e+02 5.579819e-27
5.760000e+02 6.702348e-27
5.770000e+02 8.045473e-27
5.780000e+02 9.651507e-27
5.790000e+02 1.157069e-26
5.800000e+02 1.386262e-26
5.810000e+02 1.659797e-26
5.820000e+02 1.986046e-26
5.830000e+02 2.374926e-26
5.840000e+02 2.838158e-26
5.850000e+02 3.389657e-26
5.860000e+02 4.045800e-26
5.870000e+02 4.825970e-26
5.880000e+02 5.753048e-26
5.890000e+02 6.854031e-26
5.900000e+02 8.160751e-26
5.910000e+02 9.710723e-26
5.920000e+02 1.154813e-25
5.930000e+02 1.372498e-25
5.940000e+02 1.630247e-25
5.950000e+02 1.935252e-25
5.960000e+02 2.295968e-25
5.970000e+02 2.722320e-25
5.980000e+02 3.225962e-25
5.990000e+02 3.820560e-25
6.000000e+02 4.522140e-25
6.010000e+02 5.349476e-25
6.020000e+02 6.324558e-25
6.030000e+02 7.473119e-25
6.040000e+02 8.825266e-25
6.050000e+02 1.041619e-24
6.060000e+02 1.228702e-24
6.070000e+02 1.448579e-24
6.080000e+02 1.706855e-24
6.090000e+02 2.010070e-24
6.100000e+02 2.365850e-24
6.110000e+02 2.783080e-24
6.120000e+02 3.272110e-24
6.130000e+02 3.844987e-24
6.140000e+02 4.515730e-24
6.150000e+02 5.300639e-24
6.160000e+02 6.218659e-24
6.170000e+02 7.291800e-24
6.180000e+02 8.545615e-24
6.190000e+02 1.000976e-23
6.200000e+02 1.171862e-23
6.210000e+02 1.371209e-23
6.220000e+02 1.603635e-23
6.230000e+02 1.874493e-23
6.240000e+02 2.189974e-23
6.250000e+02 2.557246e-23
6.260000e+02 2.984596e-23
6.270000e+02 3.481599e-23
6.280000e+02 4.059323e-23
6.290000e+02 4.730541e-23
6.300000e+02 5.510001e-23
6.310000e+02 6.414699e-23
6.320000e+02 7.464284e-23
6.330000e+02 8.681321e-23
6.340000e+02 1.009186e-22
6.350000e+02 1.172587e-22
6.360000e+02 1.361786e-22
6.370000e+02 1.580751e-22
6.380000e+02 1.834043e-22
6.390000e+02 2.126906e-22
6.400000e+02 2.465361e-22
6.410000e+02 2.856324e-22
6.420000e+02 3.307730e-22
6.430000e+02 3.828681e-22
6.440000e+02 4.429613e-22
6.450000e+02 5.122487e-22
6.460000e+02 5.921004e-22
6.470000e+02 6.840850e-22
6.480000e+02 7.899982e-22
6.490000e+02 9.118939e-22
6.500000e+02 1.052121e-21
6.510000e+02 1.213364e-21
6.520000e+02 1.398690e-21
6.530000e+02 1.611601e-21
6.540000e+02 1.856095e-21
6.550000e+02 2.136736e-21
6.560000e+02 2.458724e-21
6.570000e+02 2.827992e-21
6.580000e+02 3.251299e-21
6.590000e+02 3.736343e-21
6.600000e+02 4.291889e-21
6.610000e+02 4.927915e-21
6.620000e+02 5.655768e-21
6.630000e+02 6.488355e-21
6.640000e+02 7.440345e-21
6.650000e+02 8.528403e-21
6.660000e+02 9.771462e-21
6.670000e+02 1.119101e-20
6.680000e+02 1.281143e-20
6.690000e+02 1.466040e-20
6.700000e+02 1.676927e-20
6.710000e+02 1.917361e-20
6.720000e+02 2.191368e-20
6.730000e+02 2.503513e-20
6.740000e+02 2.858959e-20
6.750000e+02 3.263550e-20
6.760000e+02 3.723899e-20
6.770000e+02 4.247481e-20
6.780000e+02 4.842746e-20
6.790000e+02 5.519242e-20
6.800000e+02 6.287754e-20
6.810000e+02 7.160456e-20
6.820000e+02 8.151088e-20
6.830000e+02 9.275152e-20
6.840000e+02 1.055013e-19
6.850000e+02 1.199573e-19
6.860000e+02 1.363415e-19
6.870000e+02 1.549042e-19
6.880000e+02 1.759271e-19
6.890000e+02 1.997271e-19
6.900000e+02 2.266612e-19
6.910000e+02 2.571305e-19
6.920000e+02 2.915864e-19
6.930000e+02 3.305360e-19
6.940000e+02 3.745492e-19
6.950000e+02 4.242660e-19
6.960000e+02 4.804049e-19
6.970000e+02 5.437728e-19
6.980000e+02 6.152743e-19
6.990000e+02 6.959245e-19
7.000000e+02 7.868613e-19
7.010000e+02 8.893602e-19
7.020000e+02 1.004850e-18
7.030000e+02 1.134931e-18
7.040000e+02 1.281396e-18
7.050000e+02 1.446249e-18
7.060000e+02 1.631735e-18
7.070000e+02 1.840364e-18
7.080000e+02 2.074941e-18
7.090000e+02 2.338603e-18
7.100000e+02 2.634854e-18
7.110000e+02 2.967608e-18
7.120000e+02 3.341237e-18
7.130000e+02 3.760617e-18
7.140000e+02 4.231195e-18
7.150000e+02 4.759040e-18
7.160000e+02 5.350925e-18
7.170000e+02 6.014397e-18
7.180000e+02 6.757869e-18
7.190000e+02 7.590710e-18
7.200000e+02 8.523356e-18
7.210000e+02 9.567425e-18
7.220000e+02 1.073585e-17
7.230000e+02 1.204301e-17
7.240000e+02 1.350491e-17
7.250000e+02 1.513934e-17
7.260000e+02 1.696608e-17
7.270000e+02 1.900709e-17
7.280000e+02 2.128680e-17
7.290000e+02 2.383230e-17
7.300000e+02 2.667368e-17
7.310000e+02 2.984435e-17
7.320000e+02 3.338136e-17
7.330000e+02 3.732580e-17
7.340000e+02 4.172323e-17
7.350000e+02 4.662418e-17
7.360000e+02 5.208461e-17
7.370000e+02 5.816651e-17
7.380000e+02 6.493856e-17
7.390000e+02 7.247678e-17
7.400000e+02 8.086530e-17
7.410000e+02 9.019724e-17
7.420000e+02 1.005756e-16
7.430000e+02 1.121141e-16
7.440000e+02 1.249389e-16
7.450000e+02 1.391889e-16
7.460000e+02 1.550180e-16
7.470000e+02 1.725958e-16
7.480000e+02 1.921100e-16
7.490000e+02 2.137674e-16
7.500000e+02 2.377965e-16
7.510000e+02 2.644492e-16
7.520000e+02 2.940036e-16
7.530000e+02 3.267661e-16
7.540000e+02 3.630745e-16
7.550000e+02 4.033012e-16
7.560000e+02 4.478563e-16
7.570000e+02 4.971917e-16
7.580000e+02 5.518049e-16
7.590000e+02 6.122435e-16
7.600000e+02 6.791101e-16
7.610000e+02 7.530680e-16
7.620000e+02 8.348465e-16
7.630000e+02 9.252475e-16
7.640000e+02 1.025153e-15
7.650000e+02 1.135532e-15
7.660000e+02 1.257448e-15
7.670000e+02 1.392073e-15
7.680000e+02 1.540689e-15
7.690000e+02 1.704707e-15
7.700000e+02 1.885674e-15
7.710000e+02 2.085289e-15
7.720000e+02 2.305415e-15
7.730000e+02 2.548094e-15
7.740000e+02 2.815568e-15
7.750000e+02 3.110290e-15
7.760000e+02 3.434953e-15
7.770000e+02 3.792505e-15
7.780000e+02 4.186175e-15
7.790000e+02 4.619499e-15
7.800000e+02 5.096348e-15
7.810000e+02 5.620960e-15
7.820000e+02 6.197970e-15
7.830000e+02 6.832452e-15
7.840000e+02 7.529950e-15
7.850000e+02 8.296532e-15
7.860000e+02 9.138826e-15
7.870000e+02 1.006408e-14
7.880000e+02 1.108020e-14
7.890000e+02 1.219585e-14
7.900000e+02 1.342047e-14
7.910000e+02 1.476436e-14
7.920000e+02 1.623878e-14
7.930000e+02 1.785601e-14
7.940000e+02 1.962945e-14
7.950000e+02 2.157371e-14
7.960000e+02 2.370474e-14
7.970000e+02 2.603991e-14
7.980000e+02 2.859816e-14
7.990000e+02 3.140013e-14
8.000000e+02 3.446830e-14
8.010000e+02 3.782717e-14
8.020000e+02 4.150340e-14
8.030000e+02 4.552604e-14
8.040000e+02 4.992668e-14
8.050000e+02 5.473973e-14
8.060000e+02 6.000260e-14
8.070000e+02 6.575599e-14
8.080000e+02 7.204417e-14
8.090000e+02 7.891526e-14
8.100000e+02 8.642157e-14
8.110000e+02 9.461994e-14
8.120000e+02 1.035721e-13
8.130000e+02 1.133452e-13
8.140000e+02 1.240121e-13
8.150000e+02 1.356519e-13
8.160000e+02 1.483505e-13
8.170000e+02 1.622010e-13
8.180000e+02 1.773047e-13
8.190000e+02 1.937712e-13
8.200000e+02 2.117195e-13
8.210000e+02 2.312786e-13
8.220000e+02 2.525885e-13
8.230000e+02 2.758008e-13
8.240000e+02 3.010797e-13
8.250000e+02 3.286033e-13
8.260000e+02 3.585644e-13
8.270000e+02 3.911719e-13
8.280000e+02 4.266519e-13
8.290000e+02 4.652490e-13
8.300000e+02 5.072284e-13
8.310000e+02 5.528766e-13
8.320000e+02 6.025037e-13
8.330000e+02 6.564452e-13
8.340000e+02 7.150639e-13
8.350000e+02 7.787518e-13
8.360000e+02 8.479331e-13
8.370000e+02 9.230657e-13
8.380000e+02 1.004645e-12
8.390000e+02 1.093205e-12
8.400000e+02 1.189325e-12
8.410000e+02 1.293627e-12
8.420000e+02 1.406786e-12
8.430000e+02 1.529528e-12
8.440000e+02 1.662638e-12
8.450000e+02 1.806963e-12
8.460000e+02 1.963415e-12
8.470000e+02 2.132981e-12
8.480000e+02 2.316721e-12
8.490000e+02 2.515783e-12
8.500000e+02 2.731400e-12
8.510000e+02 2.964902e-12
8.520000e+02 3.217725e-12
8.530000e+02 3.491412e-12
8.540000e+02 3.787628e-12
8.550000e+02 4.108165e-12
8.560000e+02 4.454952e-12
8.570000e+02 4.830066e-12
8.580000e+02 5.235742e-12
8.590000e+02 5.674387e-12
8.600000e+02 6.148590e-12
8.610000e+02 6.661133e-12
8.620000e+02 7.215014e-12
8.630000e+02 7.813451e-12
8.640000e+02 8.459907e-12
8.650000e+02 9.158104e-12
8.660000e+02 9.912042e-12
8.670000e+02 1.072602e-11
8.680000e+02 1.160465e-11
8.690000e+02 1.255290e-11
8.700000e+02 1.357609e-11
8.710000e+02 1.467994e-11
8.720000e+02 1.587060e-11
8.730000e+02 1.715464e-11
8.740000e+02 1.853916e-11
8.750000e+02 2.003173e-11
8.760000e+02 2.164050e-11
8.770000e+02 2.337420e-11
8.780000e+02 2.524220e-11
8.790000e+02 2.725454e-11
8.800000e+02 2.942199e-11
8.810000e+02 3.175608e-11
8.820000e+02 3.426918e-11
8.830000e+02 3.697456e-11
8.840000e+02 3.988639e-11
8.850000e+02 4.301989e-11
8.860000e+02 4.639135e-11
8.870000e+02 5.001819e-11
8.880000e+02 5.391910e-11
8.890000e+02 5.811405e-11
8.900000e+02 6.262443e-11
8.910000e+02 6.747312e-11
8.920000e+02 7.268462e-11
8.930000e+02 7.828510e-11
8.940000e+02 8.430259e-11
8.950000e+02 9.076702e-11
8.960000e+02 9.771043e-11
8.970000e+02 1.051670e-10
8.980000e+02 1.131735e-10
8.990000e+02 1.217688e-10
9.000000e+02 1.309948e-10
9.010000e+02 1.408961e-10
9.020000e+02 1.515204e-10
9.030000e+02 1.629186e-10
9.040000e+02 1.751450e-10
9.050000e+02 1.882577e-10
9.060000e+02 2.023187e-10
9.070000e+02 2.173940e-10
9.080000e+02 2.335542e-10
9.090000e+02 2.508747e-10
9.100000e+02 2.694356e-10
9.110000e+02 2.893226e-10
9.120000e+02 3.106271e-10
9.130000e+02 3.334465e-10
9.140000e+02 3.688463e-10
9.150000e+02 7.811557e-08
9.160000e+02 3.867677e-07
9.170000e+02 3.801161e-09
9.180000e+02 1.007585e-07
9.190000e+02 1.073903e-06
9.200000e+02 2.706972e-06
9.210000e+02 5.845493e-10
9.220000e+02 5.721812e-07
9.230000e+02 5.470345e-09
9.240000e+02 5.501988e-09
9.250000e+02 7.009882e-08
9.260000e+02 1.405984e-07
9.270000e+02 5.435485e-09
9.280000e+02 1.231917e-05
9.290000e+02 1.368755e-05
9.300000e+02 3.548931e-06
9.310000e+02 9.267087e-09
9.320000e+02 1.156219e-05
9.330000e+02 4.516860e-07
9.340000e+02 1.116077e-07
9.350000e+02 4.223779e-08
9.360000e+02 1.835825e-08
9.370000e+02 5.222914e-09
9.380000e+02 3.028796e-08
9.390000e+02 6.285896e-08
9.400000e+02 5.411891e-06
9.410000e+02 8.416374e-07
9.420000e+02 4.358250e-05
9.430000e+02 9.273026e-08
9.440000e+02 4.930602e-05
9.450000e+02 3.900080e-05
9.460000e+02 1.526273e-06
9.470000e+02 3.879393e-09
9.480000e+02 1.087035e-05
9.490000e+02 2.133879e-06
9.500000e+02 6.922206e-08
9.510000e+02 1.610888e-06
9.520000e+02 3.513273e-06
9.530000e+02 2.209674e-08
9.540000e+02 5.633089e-09
9.550000e+02 2.250799e-07
9.560000e+02 3.424538e-05
9.570000e+02 1.227068e-07
9.580000e+02 6.910057e-09
9.590000e+02 8.534287e-06
9.600000e+02 1.330022e-07
9.610000e+02 2.369696e-06
9.620000e+02 8.349383e-07
9.630000e+02 1.218214e-07
9.640000e+02 3.474838e-08
9.650000e+02 1.294393e-08
9.660000e+02 2.425513e-07
9.670000e+02 4.274352e-08
9.680000e+02 3.133755e-08
9.690000e+02 1.459002e-06
9.700000e+02 2.569068e-06
9.710000e+02 7.249007e-08
9.720000e+02 3.401078e-08
9.730000e+02 6.259399e-07
9.740000e+02 2.598209e-06
9.750000e+02 5.713244e-07
9.760000e+02 2.812381e-05
9.770000e+02 1.096737e-05
9.780000e+02 4.303434e-06
9.790000e+02 2.204474e-04
9.800000e+02 1.471387e-04
9.810000e+02 2.373286e-06
9.820000e+02 4.334652e-07
9.830000e+02 9.549953e-05
9.840000e+02 1.054808e-05
9.850000e+02 1.054435e-06
9.860000e+02 1.875044e-06
9.870000e+02 8.855991e-05
9.880000e+02 5.063703e-08
9.890000e+02 1.435492e-05
9.900000e+02 5.613809e-05
9.910000e+02 5.148229e-07
9.920000e+02 5.645543e-08
9.930000e+02 3.925984e-04
9.940000e+02 1.206427e-07
9.950000e+02 1.517767e-05
9.960000e+02 1.432782e-07
9.970000e+02 3.997881e-05
9.980000e+02 6.137500e-05
9.990000e+02 8.629551e-07
1.000000e+03 8.091226e-04
1.001000e+03 5.849341e-04
1.002000e+03 3.301148e-04
1.003000e+03 8.458446e-07
1.004000e+03 1.185399e-07
1.005000e+03 3.386755e-06
1.006000e+03 2.094611e-04
1.007000e+03 4.383946e-04
1.008000e+03 1.024187e-04
1.009000e+03 1.364611e-06
1.010000e+03 9.949665e-05
1.011000e+03 1.230150e-04
1.012000e+03 1.567648e-04
1.013000e+03 1.486577e-04
1.014000e+03 2.032684e-07
1.015000e+03 2.255983e-07
1.016000e+03 4.967820e-06
1.017000e+03 2.409797e-07
1.018000e+03 1.318869e-06
1.019000e+03 2.729939e-07
1.020000e+03 3.076721e-04
1.021000e+03 3.247493e-06
1.022000e+03 4.561094e-06
1.023000e+03 3.946479e-07
1.024000e+03 8.792574e-05
1.025000e+03 3.774790e-07
1.026000e+03 6.203301e-07
1.027000e+03 1.803735e-05
1.028000e+03 3.689653e-06
1.029000e+03 4.711619e-07
1.030000e+03 1.689163e-05
1.031000e+03 4.415694e-05
1.032000e+03 6.635201e-04
1.033000e+03 2.755420e-05
1.034000e+03 5.211887e-05
1.035000e+03 2.896384e-06
1.036000e+03 6.915652e-07
1.037000e+03 4.280835e-04
1.038000e+03 3.270902e-03
1.039000e+03 4.669228e-04
1.040000e+03 3.457554e-04
1.041000e+03 2.827926e-03
1.042000e+03 1.708460e-03
1.043000e+03 2.138381e-03
1.044000e+03 1.208671e-02
1.045000e+03 2.060872e-06
1.046000e+03 3.552269e-04
1.047000e+03 1.600152e-04
1.048000e+03 3.085297e-06
1.049000e+03 1.390955e-04
1.050000e+03 3.521936e-05
1.051000e+03 1.961458e-05
1.052000e+03 2.453348e-03
1.053000e+03 4.231911e-03
1.054000e+03 1.809793e-06
1.055000e+03 5.321169e-03
1.056000e+03 6.247016e-03
1.057000e+03 5.019148e-04
1.058000e+03 1.808551e-05
1.059000e+03 2.150633e-05
1.060000e+03 5.087117e-06
1.061000e+03 9.386912e-04
1.062000e+03 1.018462e-05
1.063000e+03 8.112359e-04
1.064000e+03 4.913658e-06
1.065000e+03 3.203982e-06
1.066000e+03 1.436052e-03
1.067000e+03 1.603228e-05
1.068000e+03 1.659672e-02
1.069000e+03 5.141996e-06
1.070000e+03 1.816917e-04
1.071000e+03 3.401610e-03
1.072000e+03 1.814707e-02
1.073000e+03 4.819594e-06
1.074000e+03 5.871591e-04
1.075000e+03 3.305003e-04
1.076000e+03 2.011253e-02
1.077000e+03 1.841469e-05
1.078000e+03 2.859719e-05
1.079000e+03 1.352837e-04
1.080000e+03 6.712631e-04
1.081000e+03 3.794818e-03
1.082000e+03 1.917794e-03
1.083000e+03 9.537395e-04
1.084000e+03 6.525211e-02
1.085000e+03 2.190564e-04
1.086000e+03 2.839496e-02
1.087000e+03 4.436448e-05
1.088000e+03 7.226778e-02
1.089000e+03 8.216339e-02
1.090000e+03 1.738093e-04
1.091000e+03 2.783090e-04
1.092000e+03 5.652069e-02
1.093000e+03 8.745833e-02
1.094000e+03 2.310367e-03
1.095000e+03 1.358610e-01
1.096000e+03 1.302452e-02
1.097000e+03 1.728381e-02
1.098000e+03 9.762605e-02
1.099000e+03 6.615222e-04
1.100000e+03 2.007466e-05
1.101000e+03 3.785026e-05
1.102000e+03 4.787151e-04
1.103000e+03 1.106824e-01
1.104000e+03 1.425854e-01
1.105000e+03 1.354676e-01
1.106000e+03 2.443662e-03
1.107000e+03 3.200397e-05
1.108000e+03 1.998146e-02
1.109000e+03 2.843663e-04
1.110000e+03 1.571201e-01
1.111000e+03 7.419942e-02
1.112000e+03 8.034690e-03
1.113000e+03 1.447145e-01
1.114000e+03 4.509432e-03
1.115000e+03 3.339180e-04
1.116000e+03 1.121294e-04
1.117000e+03 9.085464e-02
1.118000e+03 4.946571e-04
1.119000e+03 8.431387e-03
1.120000e+03 1.798309e-04
1.121000e+03 5.006981e-02
1.122000e+03 4.080274e-01
1.123000e+03 1.275540e-01
1.124000e+03 1.547016e-01
1.125000e+03 5.936037e-02
1.126000e+03 8.640792e-01
1.127000e+03 6.868916e-02
1.128000e+03 3.546090e-01
1.129000e+03 3.013092e-02
1.130000e+03 2.546351e-01
1.131000e+03 3.899457e-01
1.132000e+03 3.378410e-04
1.133000e+03 3.137231e-03
1.134000e+03 4.332530e-02
1.135000e+03 3.606637e-01
1.136000e+03 6.353781e-03
1.137000e+03 1.621501e-01
1.138000e+03 3.339624e-02
1.139000e+03 3.815870e-01
1.140000e+03 3.035666e-01
1.141000e+03 3.574055e-01
1.142000e+03 4.753907e-01
1.143000e+03 3.763020e-02
1.144000e+03 4.728254e-01
1.145000e+03 2.372861e-04
1.146000e+03 5.132988e-01
1.147000e+03 3.979859e-01
1.148000e+03 1.636595e-03
1.149000e+03 1.825511e-01
1.150000e+03 1.323299e-01
1.151000e+03 4.571247e-01
1.152000e+03 2.101435e-01
1.153000e+03 4.174135e-01
1.154000e+03 5.766688e-01
1.155000e+03 1.812644e-01
1.156000e+03 4.339546e-01
1.157000e+03 5.102774e-01
1.158000e+03 4.912066e-02
1.159000e+03 4.647595e-01
1.160000e+03 7.424405e-02
1.161000e+03 3.989140e-01
1.162000e+03 7.743433e-03
1.163000e+03 3.149471e-02
1.164000e+03 2.596401e-03
1.165000e+03 1.785634e-01
1.166000e+03 1.057947e-01
1.167000e+03 9.279577e-02
1.168000e+03 5.314410e-01
1.169000e+03 6.036276e-01
1.170000e+03 6.238136e-02
1.171000e+03 2.702026e-01
1.172000e+03 1.148220e-01
1.173000e+03 2.202821e-01
1.174000e+03 1.359265e-03
1.175000e+03 1.597423e-03
1.176000e+03 6.829351e-04
1.177000e+03 7.650049e-01
1.178000e+03 7.404189e-01
1.179000e+03 6.327345e-01
1.180000e+03 2.659763e-01
1.181000e+03 6.494079e-01
1.182000e+03 5.585429e-01
1.183000e+03 2.579787e-01
1.184000e+03 2.086405e-01
1.185000e+03 2.560739e-01
1.186000e+03 6.914904e-03
1.187000e+03 4.276016e-01
1.188000e+03 1.640252e-01
1.189000e+03 5.324538e-01
1.190000e+03 5.102459e-01
1.191000e+03 3.885234e-01
1.192000e+03 4.328470e-01
1.193000e+03 3.320673e-01
1.194000e+03 4.199080e-01
1.195000e+03 3.955543e-01
1.196000e+03 2.564047e+00
1.197000e+03 5.594247e+00
1.198000e+03 2.213842e-02
1.199000e+03 4.781604e+00
1.200000e+03 8.312106e-02
1.201000e+03 3.283782e+00
1.202000e+03 6.851842e-01
1.203000e+03 2.145038e+00
1.204000e+03 9.758928e-02
1.205000e+03 1.409777e+00
1.206000e+03 1.281405e+00
1.207000e+03 2.698574e-01
1.208000e+03 7.176836e-01
1.209000e+03 6.183648e-01
1.210000e+03 3.354818e-03
1.211000e+03 2.516866e-01
1.212000e+03 1.070413e-01
1.213000e+03 6.314728e-02
1.214000e+03 2.015958e-02
1.215000e+03 3.497266e-03
1.216000e+03 2.748462e-03
1.217000e+03 1.302651e-02
1.218000e+03 5.330719e-02
1.219000e+03 1.344238e-01
1.220000e+03 9.004497e-02
1.221000e+03 4.964834e-01
1.222000e+03 6.482280e-01
1.223000e+03 6.033531e-01
1.224000e+03 1.573047e+00
1.225000e+03 4.333496e-02
1.226000e+03 3.261709e+00
1.227000e+03 3.960555e+00
1.228000e+03 3.790598e-01
1.229000e+03 4.145051e+00
1.230000e+03 2.889485e+00
1.231000e+03 1.916413e-01
1.232000e+03 1.115188e+01
1.233000e+03 1.334478e+01
1.234000e+03 1.392492e+01
1.235000e+03 1.131298e+01
1.236000e+03 6.419582e-01
1.237000e+03 1.900412e+01
1.238000e+03 1.639621e+01
1.239000e+03 4.562566e+00
1.240000e+03 1.014707e+01
1.241000e+03 5.950812e+00
1.242000e+03 1.499748e+01
1.243000e+03 2.912982e+01
1.244000e+03 3.294569e+01
1.245000e+03 2.954512e+01
1.246000e+03 1.222783e+01
1.247000e+03 2.049315e+01
1.248000e+03 3.193728e+01
1.249000e+03 4.594536e+01
1.250000e+03 2.553045e+01
1.251000e+03 4.338645e+01
1.252000e+03 2.693374e+01
1.253000e+03 4.967527e+01
1.254000e+03 3.017288e+01
1.255000e+03 1.163592e+01
1.256000e+03 2.133867e+01
1.257000e+03 2.662117e+01
1.258000e+03 8.908051e+00
1.259000e+03 1.512252e+01
1.260000e+03 4.988550e+01
1.261000e+03 1.318409e+00
1.262000e+03 5.621269e+01
1.263000e+03 3.903788e+01
1.264000e+03 1.201287e+01
1.265000e+03 2.015070e+01
1.266000e+03 5.883268e+01
1.267000e+03 2.190010e+01
