# wavelength_A flux
5.000000e+02 9.164629e-13
5.010000e+02 1.062069e-12
5.020000e+02 1.230060e-12
5.030000e+02 1.423758e-12
5.040000e+02 1.646963e-12
5.050000e+02 1.777133e-12
5.060000e+02 2.054438e-12
5.070000e+02 2.373597e-12
5.080000e+02 2.740708e-12
5.090000e+02 3.162730e-12
5.100000e+02 3.647598e-12
5.110000e+02 4.204344e-12
5.120000e+02 4.843261e-12
5.130000e+02 5.576057e-12
5.140000e+02 6.416052e-12
5.150000e+02 7.378570e-12
5.160000e+02 8.480249e-12
5.170000e+02 9.742492e-12
5.180000e+02 1.118335e-11
5.190000e+02 1.283190e-11
5.200000e+02 1.471533e-11
5.210000e+02 1.686603e-11
5.220000e+02 1.932670e-11
5.230000e+02 2.212015e-11
5.240000e+02 2.531170e-11
5.250000e+02 2.894737e-11
5.260000e+02 3.308840e-11
5.270000e+02 3.780178e-11
5.280000e+02 4.316380e-11
5.290000e+02 4.929743e-11
5.300000e+02 5.618916e-11
5.310000e+02 6.405908e-11
5.320000e+02 7.299361e-11
5.330000e+02 8.313171e-11
5.340000e+02 9.462973e-11
5.350000e+02 1.076638e-10
5.360000e+02 1.224338e-10
5.370000e+02 1.439379e-10
5.380000e+02 1.580941e-10
5.390000e+02 1.794960e-10
5.400000e+02 2.037095e-10
5.410000e+02 2.311441e-10
5.420000e+02 2.620028e-10
5.430000e+02 2.969028e-10
5.440000e+02 3.363018e-10
5.450000e+02 3.807468e-10
5.460000e+02 4.310844e-10
5.470000e+02 4.873393e-10
5.480000e+02 5.509633e-10
5.490000e+02 6.225996e-10
5.500000e+02 7.032241e-10
5.510000e+02 7.939216e-10
5.520000e+02 8.959042e-10
5.530000e+02 1.010524e-09
5.540000e+02 1.139290e-09
5.550000e+02 1.283882e-09
5.560000e+02 1.446173e-09
5.570000e+02 1.628250e-09
5.580000e+02 1.832435e-09
5.590000e+02 2.061312e-09
5.600000e+02 2.317756e-09
5.610000e+02 2.604961e-09
5.620000e+02 2.926481e-09
5.630000e+02 3.286260e-09
5.640000e+02 3.688681e-09
5.650000e+02 4.138609e-09
5.660000e+02 4.641432e-09
5.670000e+02 5.203143e-09
5.680000e+02 5.830374e-09
5.690000e+02 6.530477e-09
5.700000e+02 7.311608e-09
5.710000e+02 8.182753e-09
5.720000e+02 9.153927e-09
5.730000e+02 1.023616e-08
5.740000e+02 1.144167e-08
5.750000e+02 1.278343e-08
5.760000e+02 1.427981e-08
5.770000e+02 1.593950e-08
5.780000e+02 1.778803e-08
5.790000e+02 1.984304e-08
5.800000e+02 2.212674e-08
5.810000e+02 2.466359e-08
5.820000e+02 2.748068e-08
5.830000e+02 3.060840e-08
5.840000e+02 3.410295e-08
5.850000e+02 3.793133e-08
5.860000e+02 4.219127e-08
5.870000e+02 4.691865e-08
5.880000e+02 5.215664e-08
5.890000e+02 5.795857e-08
5.900000e+02 6.437993e-08
5.910000e+02 7.148713e-08
5.920000e+02 7.934948e-08
5.930000e+02 8.804403e-08
5.940000e+02 9.765539e-08
5.950000e+02 1.082764e-07
5.960000e+02 1.200089e-07
5.970000e+02 1.329646e-07
5.980000e+02 1.472659e-07
5.990000e+02 1.630469e-07
6.000000e+02 1.804548e-07
6.010000e+02 1.996511e-07
6.020000e+02 2.208102e-07
6.030000e+02 2.441269e-07
6.040000e+02 2.698114e-07
6.050000e+02 2.980947e-07
6.060000e+02 3.292308e-07
6.070000e+02 3.634901e-07
6.080000e+02 4.011793e-07
6.090000e+02 4.426258e-07
6.100000e+02 4.881888e-07
6.110000e+02 5.382605e-07
6.120000e+02 5.932690e-07
6.130000e+02 6.536811e-07
6.140000e+02 7.200060e-07
6.150000e+02 7.927983e-07
6.160000e+02 8.726633e-07
6.170000e+02 9.602597e-07
6.180000e+02 1.056305e-06
6.190000e+02 1.161581e-06
6.200000e+02 1.276938e-06
6.210000e+02 1.403301e-06
6.220000e+02 1.541676e-06
6.230000e+02 1.693159e-06
6.240000e+02 1.858940e-06
6.250000e+02 2.040311e-06
6.260000e+02 2.238678e-06
6.270000e+02 2.455566e-06
6.280000e+02 2.692633e-06
6.290000e+02 2.951677e-06
6.300000e+02 3.234651e-06
6.310000e+02 3.548586e-06
6.320000e+02 3.881035e-06
6.330000e+02 4.249288e-06
6.340000e+02 4.650962e-06
6.350000e+02 5.089322e-06
6.360000e+02 5.566998e-06
6.370000e+02 6.087827e-06
6.380000e+02 6.655465e-06
6.390000e+02 7.273896e-06
6.400000e+02 7.947468e-06
6.410000e+02 8.680891e-06
6.420000e+02 9.479255e-06
6.430000e+02 1.034806e-05
6.440000e+02 1.129326e-05
6.450000e+02 1.232129e-05
6.460000e+02 1.343905e-05
6.470000e+02 1.465412e-05
6.480000e+02 1.597451e-05
6.490000e+02 1.740901e-05
6.500000e+02 1.896708e-05
6.510000e+02 2.065881e-05
6.520000e+02 2.249525e-05
6.530000e+02 2.448821e-05
6.540000e+02 2.665047e-05
6.550000e+02 2.899573e-05
6.560000e+02 3.153885e-05
6.570000e+02 3.429664e-05
6.580000e+02 3.728369e-05
6.590000e+02 4.052110e-05
6.600000e+02 4.402792e-05
6.610000e+02 4.782556e-05
6.620000e+02 5.193710e-05
6.630000e+02 5.638734e-05
6.640000e+02 6.120291e-05
6.650000e+02 6.641258e-05
6.660000e+02 7.204691e-05
6.670000e+02 7.813922e-05
6.680000e+02 8.472500e-05
6.690000e+02 9.184242e-05
6.700000e+02 9.953250e-05
6.710000e+02 1.078392e-04
6.720000e+02 1.168099e-04
6.730000e+02 1.264950e-04
6.740000e+02 1.369491e-04
6.750000e+02 1.482304e-04
6.760000e+02 1.604014e-04
6.770000e+02 1.735291e-04
6.780000e+02 1.876853e-04
6.790000e+02 2.029469e-04
6.800000e+02 2.193963e-04
6.810000e+02 2.371217e-04
6.820000e+02 2.562177e-04
6.830000e+02 2.767852e-04
6.840000e+02 2.989327e-04
6.850000e+02 3.227758e-04
6.860000e+02 3.484383e-04
6.870000e+02 3.760530e-04
6.880000e+02 4.057612e-04
6.890000e+02 4.377144e-04
6.900000e+02 4.720746e-04
6.910000e+02 5.090144e-04
6.920000e+02 5.487187e-04
6.930000e+02 5.913848e-04
6.940000e+02 6.372233e-04
6.950000e+02 6.864592e-04
6.960000e+02 7.393325e-04
6.970000e+02 7.961267e-04
6.980000e+02 8.570331e-04
6.990000e+02 9.224254e-04
7.000000e+02 9.925870e-04
7.010000e+02 1.067849e-03
7.020000e+02 1.148566e-03
7.030000e+02 1.235114e-03
7.040000e+02 1.327894e-03
7.050000e+02 1.427333e-03
7.060000e+02 1.533888e-03
7.070000e+02 1.648044e-03
7.080000e+02 1.770315e-03
7.090000e+02 1.901254e-03
7.100000e+02 2.041443e-03
7.110000e+02 2.191506e-03
7.120000e+02 2.352105e-03
7.130000e+02 2.523944e-03
7.140000e+02 2.707772e-03
7.150000e+02 2.904386e-03
7.160000e+02 3.114632e-03
7.170000e+02 3.339422e-03
7.180000e+02 3.579751e-03
7.190000e+02 3.836442e-03
7.200000e+02 4.110792e-03
7.210000e+02 4.403868e-03
7.220000e+02 4.716889e-03
7.230000e+02 5.051144e-03
7.240000e+02 5.408006e-03
7.250000e+02 5.788927e-03
7.260000e+02 6.195451e-03
7.270000e+02 6.629214e-03
7.280000e+02 7.091953e-03
7.290000e+02 7.585508e-03
7.300000e+02 8.111830e-03
7.310000e+02 8.672989e-03
7.320000e+02 9.271176e-03
7.330000e+02 9.908712e-03
7.340000e+02 1.058806e-02
7.350000e+02 1.131183e-02
7.360000e+02 1.208279e-02
7.370000e+02 1.290382e-02
7.380000e+02 1.377806e-02
7.390000e+02 1.470878e-02
7.400000e+02 1.569944e-02
7.410000e+02 1.675368e-02
7.420000e+02 1.787542e-02
7.430000e+02 1.906873e-02
7.440000e+02 2.033798e-02
7.450000e+02 2.168773e-02
7.460000e+02 2.312285e-02
7.470000e+02 2.464847e-02
7.480000e+02 2.626999e-02
7.490000e+02 2.799314e-02
7.500000e+02 2.982397e-02
7.510000e+02 3.176887e-02
7.520000e+02 3.383458e-02
7.530000e+02 3.602824e-02
7.540000e+02 3.835735e-02
7.550000e+02 4.082986e-02
7.560000e+02 4.345414e-02
7.570000e+02 4.623920e-02
7.580000e+02 4.919387e-02
7.590000e+02 5.232866e-02
7.600000e+02 5.565327e-02
7.610000e+02 5.917908e-02
7.620000e+02 6.291756e-02
7.630000e+02 6.688086e-02
7.640000e+02 7.108177e-02
7.650000e+02 7.553384e-02
7.660000e+02 8.025122e-02
7.670000e+02 8.524897e-02
7.680000e+02 9.054343e-02
7.690000e+02 9.614963e-02
7.700000e+02 1.020865e-01
7.710000e+02 1.083722e-01
7.720000e+02 1.150261e-01
7.730000e+02 1.220686e-01
7.740000e+02 1.295212e-01
7.750000e+02 1.374065e-01
7.760000e+02 1.457515e-01
7.770000e+02 1.545717e-01
7.780000e+02 1.639030e-01
7.790000e+02 1.737699e-01
7.800000e+02 1.842015e-01
7.810000e+02 1.952284e-01
7.820000e+02 2.068828e-01
7.830000e+02 2.191986e-01
7.840000e+02 2.322111e-01
7.850000e+02 2.459578e-01
7.860000e+02 2.604779e-01
7.870000e+02 2.758115e-01
7.880000e+02 2.920039e-01
7.890000e+02 3.090994e-01
7.900000e+02 3.271459e-01
7.910000e+02 3.461933e-01
7.920000e+02 3.662941e-01
7.930000e+02 3.875035e-01
7.940000e+02 4.098793e-01
7.950000e+02 4.334822e-01
7.960000e+02 4.583759e-01
7.970000e+02 4.846271e-01
7.980000e+02 5.123057e-01
7.990000e+02 5.414854e-01
8.000000e+02 5.722428e-01
8.010000e+02 6.046589e-01
8.020000e+02 6.388179e-01
8.030000e+02 6.748087e-01
8.040000e+02 7.127240e-01
8.050000e+02 7.526612e-01
8.060000e+02 7.947220e-01
8.070000e+02 8.390132e-01
8.080000e+02 8.856465e-01
8.090000e+02 9.347391e-01
8.100000e+02 9.864132e-01
8.110000e+02 1.040797e+00
8.120000e+02 1.098026e+00
8.130000e+02 1.158239e+00
8.140000e+02 1.221584e+00
8.150000e+02 1.288215e+00
8.160000e+02 1.358291e+00
8.170000e+02 1.431982e+00
8.180000e+02 1.509465e+00
8.190000e+02 1.590922e+00
8.200000e+02 1.676546e+00
8.210000e+02 1.766539e+00
8.220000e+02 1.861111e+00
8.230000e+02 1.960482e+00
8.240000e+02 2.064882e+00
8.250000e+02 2.174550e+00
8.260000e+02 2.289737e+00
8.270000e+02 2.410707e+00
8.280000e+02 2.537731e+00
8.290000e+02 2.671098e+00
8.300000e+02 2.811103e+00
8.310000e+02 2.958061e+00
8.320000e+02 3.112296e+00
8.330000e+02 3.274147e+00
8.340000e+02 3.443970e+00
8.350000e+02 3.622580e+00
8.360000e+02 3.809061e+00
8.370000e+02 4.005051e+00
8.380000e+02 4.210627e+00
8.390000e+02 4.426191e+00
8.400000e+02 4.652203e+00
8.410000e+02 4.889140e+00
8.420000e+02 5.137648e+00
8.430000e+02 5.397799e+00
8.440000e+02 5.670580e+00
8.450000e+02 5.956407e+00
8.460000e+02 6.255867e+00
8.470000e+02 6.569571e+00
8.480000e+02 6.898160e+00
8.490000e+02 7.242297e+00
8.500000e+02 7.602675e+00
8.510000e+02 7.980015e+00
8.520000e+02 8.375075e+00
8.530000e+02 8.788624e+00
8.540000e+02 9.221447e+00
8.550000e+02 9.674470e+00
8.560000e+02 1.014854e+01
8.570000e+02 1.064457e+01
8.580000e+02 1.116354e+01
8.590000e+02 1.170640e+01
8.600000e+02 1.227422e+01
8.610000e+02 1.286809e+01
8.620000e+02 1.348910e+01
8.630000e+02 1.413845e+01
8.640000e+02 1.481733e+01
8.650000e+02 1.552702e+01
8.660000e+02 1.626882e+01
8.670000e+02 1.704411e+01
8.680000e+02 1.785430e+01
8.690000e+02 1.870088e+01
8.700000e+02 1.958543e+01
8.710000e+02 2.050937e+01
8.720000e+02 2.147455e+01
8.730000e+02 2.248262e+01
8.740000e+02 2.353538e+01
8.750000e+02 2.463469e+01
8.760000e+02 2.578247e+01
8.770000e+02 2.698077e+01
8.780000e+02 2.823161e+01
8.790000e+02 2.953720e+01
8.800000e+02 3.089979e+01
8.810000e+02 3.232170e+01
8.820000e+02 3.380537e+01
8.830000e+02 3.535330e+01
8.840000e+02 3.696812e+01
8.850000e+02 3.865253e+01
8.860000e+02 4.040936e+01
8.870000e+02 4.224152e+01
8.880000e+02 4.415205e+01
8.890000e+02 4.614407e+01
8.900000e+02 4.822087e+01
8.910000e+02 5.038583e+01
8.920000e+02 5.271678e+01
8.930000e+02 5.499438e+01
8.940000e+02 5.744538e+01
8.950000e+02 5.999939e+01
8.960000e+02 6.266044e+01
8.970000e+02 6.543275e+01
8.980000e+02 6.832069e+01
8.990000e+02 7.132876e+01
9.000000e+02 7.446166e+01
9.010000e+02 7.772424e+01
9.020000e+02 8.112154e+01
9.030000e+02 8.465877e+01
9.040000e+02 8.834129e+01
9.050000e+02 9.217474e+01
9.060000e+02 9.616491e+01
9.070000e+02 1.003183e+02
9.080000e+02 1.046396e+02
9.090000e+02 1.091368e+02
9.100000e+02 1.138160e+02
9.110000e+02 1.186837e+02
9.120000e+02 1.237456e+02
9.130000e+02 1.299521e+02
9.140000e+02 1.296384e+02
9.150000e+02 2.101613e+02
9.160000e+02 9.127767e+02
9.170000e+02 4.861941e+02
9.180000e+02 6.195699e+02
9.190000e+02 2.859230e+03
9.200000e+02 4.684455e+03
9.210000e+02 1.808550e+02
9.220000e+02 4.516964e+03
9.230000e+02 5.728023e+02
9.240000e+02 1.185188e+03
9.250000e+02 2.583710e+03
9.260000e+02 2.038078e+03
9.270000e+02 8.371943e+02
9.280000e+02 8.226935e+03
9.290000e+02 7.505916e+03
9.300000e+02 7.455238e+03
9.310000e+02 7.060320e+02
9.320000e+02 9.385694e+03
9.330000e+02 5.569830e+03
9.340000e+02 3.716225e+03
9.350000e+02 1.743168e+02
9.360000e+02 1.028010e+03
9.370000e+02 1.569361e+02
9.380000e+02 1.236653e+03
9.390000e+02 1.488815e+03
9.400000e+02 1.149734e+04
9.410000e+02 1.863555e+03
9.420000e+02 1.365525e+04
9.430000e+02 2.140242e+03
9.440000e+02 1.142430e+04
9.450000e+02 1.492443e+04
9.460000e+02 1.019417e+04
9.470000e+02 5.364526e+02
9.480000e+02 1.460760e+04
9.490000e+02 1.288796e+04
9.500000e+02 3.612969e+02
9.510000e+02 8.998328e+03
9.520000e+02 1.147700e+04
9.530000e+02 7.158411e+02
9.540000e+02 6.111919e+02
9.550000e+02 5.488293e+03
9.560000e+02 2.053044e+04
9.570000e+02 1.953423e+03
9.580000e+02 3.633125e+02
9.590000e+02 2.224129e+04
9.600000e+02 3.882031e+02
9.610000e+02 1.260955e+04
9.620000e+02 7.306154e+03
9.630000e+02 6.738859e+03
9.640000e+02 7.649502e+02
9.650000e+02 1.020611e+03
9.660000e+02 6.312760e+03
9.670000e+02 2.247682e+03
9.680000e+02 1.255084e+03
9.690000e+02 1.223103e+04
9.700000e+02 1.031856e+04
9.710000e+02 2.177009e+03
9.720000e+02 3.387195e+03
9.730000e+02 1.658980e+04
9.740000e+02 1.472340e+04
9.750000e+02 8.330493e+03
9.760000e+02 3.038057e+04
9.770000e+02 2.574592e+04
9.780000e+02 1.418366e+04
9.790000e+02 4.290871e+04
9.800000e+02 4.415229e+04
9.810000e+02 1.760362e+04
9.820000e+02 5.615227e+03
9.830000e+02 4.421661e+04
9.840000e+02 5.276526e+03
9.850000e+02 1.298859e+04
9.860000e+02 1.312267e+04
9.870000e+02 4.984225e+04
9.880000e+02 1.770027e+03
9.890000e+02 2.512579e+04
9.900000e+02 1.291009e+03
9.910000e+02 3.565552e+03
9.920000e+02 1.128788e+03
9.930000e+02 6.031484e+04
9.940000e+02 1.768799e+03
9.950000e+02 4.308610e+03
9.960000e+02 3.094578e+03
9.970000e+02 3.606205e+03
9.980000e+02 4.711004e+04
9.990000e+02 5.914992e+03
1.000000e+03 7.736859e+04
1.001000e+03 8.302865e+04
1.002000e+03 7.933783e+04
1.003000e+03 1.034599e+04
1.004000e+03 3.172961e+03
1.005000e+03 1.558594e+04
1.006000e+03 8.331465e+04
1.007000e+03 9.383155e+04
1.008000e+03 7.503445e+04
1.009000e+03 1.500722e+04
1.010000e+03 7.933749e+04
1.011000e+03 9.634689e+04
1.012000e+03 8.196771e+04
1.013000e+03 7.724552e+04
1.014000e+03 2.285488e+03
1.015000e+03 3.511141e+03
1.016000e+03 1.522355e+04
1.017000e+03 2.521539e+03
1.018000e+03 1.598433e+04
1.019000e+03 3.944031e+03
1.020000e+03 1.293242e+05
1.021000e+03 9.252750e+03
1.022000e+03 1.635691e+04
1.023000e+03 4.701891e+03
1.024000e+03 1.224425e+05
1.025000e+03 3.160564e+03
1.026000e+03 7.236439e+03
1.027000e+03 5.563493e+04
1.028000e+03 4.297969e+03
1.029000e+03 3.802008e+03
1.030000e+03 6.741288e+04
1.031000e+03 3.791105e+04
1.032000e+03 1.358961e+05
1.033000e+03 9.065742e+03
1.034000e+03 7.492565e+04
1.035000e+03 5.852250e+03
1.036000e+03 4.914875e+03
1.037000e+03 1.386741e+05
1.038000e+03 2.132650e+05
1.039000e+03 1.614259e+05
1.040000e+03 1.727527e+05
1.041000e+03 2.440751e+05
1.042000e+03 2.275225e+05
1.043000e+03 2.073917e+05
1.044000e+03 2.710528e+05
1.045000e+03 2.042047e+05
1.046000e+03 2.402277e+05
1.047000e+03 9.318541e+04
1.048000e+03 1.417338e+04
1.049000e+03 1.400523e+05
1.050000e+03 9.375005e+04
1.051000e+03 5.950038e+04
1.052000e+03 2.634413e+05
1.053000e+03 3.195106e+05
1.054000e+03 8.247406e+03
1.055000e+03 3.491372e+05
1.056000e+03 3.578997e+05
1.057000e+03 1.693887e+05
1.058000e+03 9.369146e+04
1.059000e+03 3.181050e+04
1.060000e+03 2.063122e+04
1.061000e+03 2.037601e+05
1.062000e+03 5.883436e+04
1.063000e+03 8.663669e+04
1.064000e+03 1.668450e+04
1.065000e+03 1.193438e+04
1.066000e+03 2.426232e+05
1.067000e+03 2.966659e+04
1.068000e+03 5.005555e+05
1.069000e+03 1.725809e+04
1.070000e+03 2.481612e+05
1.071000e+03 5.137571e+05
1.072000e+03 5.112297e+05
1.073000e+03 1.635606e+04
1.074000e+03 1.788531e+05
1.075000e+03 1.333243e+05
1.076000e+03 5.740704e+05
1.077000e+03 3.477591e+04
1.078000e+03 1.017903e+05
1.079000e+03 2.173982e+05
1.080000e+03 2.940346e+05
1.081000e+03 4.189535e+05
1.082000e+03 4.008627e+05
1.083000e+03 3.196767e+05
1.084000e+03 7.407408e+05
1.085000e+03 1.638205e+05
1.086000e+03 7.627757e+05
1.087000e+03 5.929169e+04
1.088000e+03 8.247640e+05
1.089000e+03 8.447813e+05
1.090000e+03 1.441949e+05
1.091000e+03 1.443438e+05
1.092000e+03 8.696856e+05
1.093000e+03 8.885399e+05
1.094000e+03 5.870797e+05
1.095000e+03 9.645896e+05
1.096000e+03 4.820579e+05
1.097000e+03 6.875409e+05
1.098000e+03 1.023007e+06
1.099000e+03 4.068241e+05
1.100000e+03 5.169794e+04
1.101000e+03 8.024333e+04
1.102000e+03 2.165601e+05
1.103000e+03 2.372116e+06
1.104000e+03 1.888283e+06
1.105000e+03 1.132002e+06
1.106000e+03 8.095140e+05
1.107000e+03 5.085650e+04
1.108000e+03 1.840576e+06
1.109000e+03 1.568130e+05
1.110000e+03 2.336021e+06
1.111000e+03 1.821257e+06
1.112000e+03 1.380922e+06
1.113000e+03 3.259258e+06
1.114000e+03 5.929911e+05
1.115000e+03 2.931344e+05
1.116000e+03 2.168690e+05
1.117000e+03 8.079789e+05
1.118000e+03 2.193698e+05
1.119000e+03 1.900796e+06
1.120000e+03 2.224092e+05
1.121000e+03 2.863007e+06
1.122000e+03 1.212972e+05
1.123000e+03 2.382567e+06
1.124000e+03 3.415698e+06
1.125000e+03 2.470395e+06
1.126000e+03 4.864972e+06
1.127000e+03 3.865512e+06
1.128000e+03 2.460640e+06
1.129000e+03 2.306615e+06
1.130000e+03 4.041607e+06
1.131000e+03 4.674542e+06
1.132000e+03 2.156435e+05
1.133000e+03 4.419640e+05
1.134000e+03 2.291643e+06
1.135000e+03 2.725332e+05
1.136000e+03 1.034848e+06
1.137000e+03 4.686822e+06
1.138000e+03 2.247578e+06
1.139000e+03 5.441560e+06
1.140000e+03 1.974867e+05
1.141000e+03 5.027122e+06
1.142000e+03 6.163677e+06
1.143000e+03 4.159009e+06
1.144000e+03 6.357816e+06
1.145000e+03 1.932950e+05
1.146000e+03 6.849685e+06
1.147000e+03 6.120128e+06
1.148000e+03 5.277672e+05
1.149000e+03 5.617303e+06
1.150000e+03 3.788364e+06
1.151000e+03 7.378680e+06
1.152000e+03 6.658074e+06
1.153000e+03 5.465252e+06
1.154000e+03 7.587879e+06
1.155000e+03 5.027202e+06
1.156000e+03 7.248901e+06
1.157000e+03 7.928060e+06
1.158000e+03 1.073702e+06
1.159000e+03 7.351232e+06
1.160000e+03 3.436588e+06
1.161000e+03 7.928050e+06
1.162000e+03 1.209470e+06
1.163000e+03 2.385341e+06
1.164000e+03 2.141950e+05
1.165000e+03 8.154442e+06
1.166000e+03 6.523054e+06
1.167000e+03 6.212071e+06
1.168000e+03 9.735194e+06
1.169000e+03 9.843701e+06
1.170000e+03 7.006690e+06
1.171000e+03 8.413831e+06
1.172000e+03 4.252942e+06
1.173000e+03 1.031803e+07
1.174000e+03 6.452730e+05
1.175000e+03 2.950430e+05
1.176000e+03 3.766138e+05
1.177000e+03 1.156122e+07
1.178000e+03 1.172742e+07
1.179000e+03 1.102410e+07
1.180000e+03 6.448638e+06
1.181000e+03 1.230747e+07
1.182000e+03 1.105963e+07
1.183000e+03 8.687596e+06
1.184000e+03 7.790417e+06
1.185000e+03 1.013228e+07
1.186000e+03 2.207609e+06
1.187000e+03 1.068149e+07
1.188000e+03 5.628687e+06
1.189000e+03 5.485310e+05
1.190000e+03 1.094960e+07
1.191000e+03 1.036349e+07
1.192000e+03 1.302564e+07
1.193000e+03 7.662180e+05
1.194000e+03 6.559110e+05
1.195000e+03 1.230196e+07
1.196000e+03 1.271934e+07
1.197000e+03 1.864502e+07
1.198000e+03 4.398118e+06
1.199000e+03 1.857107e+07
1.200000e+03 6.042405e+06
1.201000e+03 1.790848e+07
1.202000e+03 1.033746e+07
1.203000e+03 1.852296e+07
1.204000e+03 4.745242e+06
1.205000e+03 1.602446e+07
1.206000e+03 1.725839e+07
1.207000e+03 3.466501e+06
1.208000e+03 1.361942e+07
1.209000e+03 1.222146e+07
1.210000e+03 7.762390e+05
1.211000e+03 7.386706e+06
1.212000e+03 4.224805e+06
1.213000e+03 2.788168e+06
1.214000e+03 1.193461e+06
1.215000e+03 7.483238e+05
1.216000e+03 1.011398e+06
1.217000e+03 9.479687e+05
1.218000e+03 2.363383e+06
1.219000e+03 4.795960e+06
1.220000e+03 4.157772e+06
1.221000e+03 1.117371e+07
1.222000e+03 1.285579e+07
1.223000e+03 1.570158e+07
1.224000e+03 2.027574e+07
1.225000e+03 4.582634e+06
1.226000e+03 2.712313e+07
1.227000e+03 2.816092e+07
1.228000e+03 1.233073e+07
1.229000e+03 2.644137e+07
1.230000e+03 2.291304e+07
1.231000e+03 1.106016e+07
1.232000e+03 3.923275e+07
1.233000e+03 4.179609e+07
1.234000e+03 3.233383e+07
1.235000e+03 4.177134e+07
1.236000e+03 1.528069e+07
1.237000e+03 4.597910e+07
1.238000e+03 4.166121e+07
1.239000e+03 3.898369e+07
1.240000e+03 3.275679e+07
1.241000e+03 3.586786e+07
1.242000e+03 4.379997e+07
1.243000e+03 5.338599e+07
1.244000e+03 5.330240e+07
1.245000e+03 5.125210e+07
1.246000e+03 5.021461e+07
1.247000e+03 5.218171e+07
1.248000e+03 4.852546e+07
1.249000e+03 6.075415e+07
1.250000e+03 4.833867e+07
1.251000e+03 6.572156e+07
1.252000e+03 5.897891e+07
1.253000e+03 6.755447e+07
1.254000e+03 6.160930e+07
1.255000e+03 6.967402e+07
1.256000e+03 6.174059e+07
1.257000e+03 6.410291e+07
1.258000e+03 4.832626e+07
1.259000e+03 6.365351e+07
1.260000e+03 7.471362e+07
1.261000e+03 2.988940e+06
1.262000e+03 6.601962e+07
1.263000e+03 7.547596e+07
1.264000e+03 5.813567e+07
1.265000e+03 3.801776e+06
1.266000e+03 7.931203e+07
1.267000e+03 6.432569e+07
