# wavelength_A flux
5.000000e+02 1.363300e-18
5.010000e+02 1.620939e-18
5.020000e+02 1.925904e-18
5.030000e+02 2.286636e-18
5.040000e+02 2.713039e-18
5.050000e+02 3.372616e-18
5.060000e+02 3.994609e-18
5.070000e+02 4.728082e-18
5.080000e+02 5.592432e-18
5.090000e+02 6.610489e-18
5.100000e+02 7.808444e-18
5.110000e+02 9.217341e-18
5.120000e+02 1.087324e-17
5.130000e+02 1.281816e-17
5.140000e+02 1.510107e-17
5.150000e+02 1.777875e-17
5.160000e+02 2.091819e-17
5.170000e+02 2.459322e-17
5.180000e+02 2.890158e-17
5.190000e+02 3.393944e-17
5.200000e+02 3.983021e-17
5.210000e+02 4.671384e-17
5.220000e+02 5.474129e-17
5.230000e+02 6.413544e-17
5.240000e+02 7.508003e-17
5.250000e+02 8.783886e-17
5.260000e+02 1.027020e-16
5.270000e+02 1.200071e-16
5.280000e+02 1.401433e-16
5.290000e+02 1.634602e-16
5.300000e+02 1.907751e-16
5.310000e+02 2.223865e-16
5.320000e+02 2.590844e-16
5.330000e+02 3.016589e-16
5.340000e+02 3.510242e-16
5.350000e+02 4.082298e-16
5.360000e+02 4.744781e-16
5.370000e+02 5.386220e-16
5.380000e+02 6.398635e-16
5.390000e+02 7.424826e-16
5.400000e+02 8.610262e-16
5.410000e+02 9.977936e-16
5.420000e+02 1.155930e-15
5.430000e+02 1.338274e-15
5.440000e+02 1.548483e-15
5.450000e+02 1.790725e-15
5.460000e+02 2.069070e-15
5.470000e+02 2.390912e-15
5.480000e+02 2.760440e-15
5.490000e+02 3.185369e-15
5.500000e+02 3.673745e-15
5.510000e+02 4.234746e-15
5.520000e+02 4.878838e-15
5.530000e+02 5.617939e-15
5.540000e+02 6.465626e-15
5.550000e+02 7.437352e-15
5.560000e+02 8.550699e-15
5.570000e+02 9.825652e-15
5.580000e+02 1.128493e-14
5.590000e+02 1.295435e-14
5.600000e+02 1.486320e-14
5.610000e+02 1.704475e-14
5.620000e+02 1.953671e-14
5.630000e+02 2.238185e-14
5.640000e+02 2.562863e-14
5.650000e+02 2.933193e-14
5.660000e+02 3.355393e-14
5.670000e+02 3.836492e-14
5.680000e+02 4.384445e-14
5.690000e+02 5.008245e-14
5.700000e+02 5.718050e-14
5.710000e+02 6.525344e-14
5.720000e+02 7.443078e-14
5.730000e+02 8.485876e-14
5.740000e+02 9.670230e-14
5.750000e+02 1.101505e-13
5.760000e+02 1.253981e-13
5.770000e+02 1.427105e-13
5.780000e+02 1.623269e-13
5.790000e+02 1.845552e-13
5.800000e+02 2.097317e-13
5.810000e+02 2.382345e-13
5.820000e+02 2.704881e-13
5.830000e+02 3.069653e-13
5.840000e+02 3.480336e-13
5.850000e+02 3.947911e-13
5.860000e+02 4.474986e-13
5.870000e+02 5.069679e-13
5.880000e+02 5.740842e-13
5.890000e+02 6.497996e-13
5.900000e+02 7.351877e-13
5.910000e+02 8.314356e-13
5.920000e+02 9.398814e-13
5.930000e+02 1.062020e-12
5.940000e+02 1.199522e-12
5.950000e+02 1.354227e-12
5.960000e+02 1.528310e-12
5.970000e+02 1.724014e-12
5.980000e+02 1.943971e-12
5.990000e+02 2.191087e-12
6.000000e+02 2.468602e-12
6.010000e+02 2.780129e-12
6.020000e+02 3.129696e-12
6.030000e+02 3.521792e-12
6.040000e+02 3.961414e-12
6.050000e+02 4.454130e-12
6.060000e+02 5.006118e-12
6.070000e+02 5.624314e-12
6.080000e+02 6.316339e-12
6.090000e+02 7.090725e-12
6.100000e+02 7.956942e-12
6.110000e+02 8.925504e-12
6.120000e+02 1.000809e-11
6.130000e+02 1.121767e-11
6.140000e+02 1.256862e-11
6.150000e+02 1.407690e-11
6.160000e+02 1.576020e-11
6.170000e+02 1.763812e-11
6.180000e+02 1.973239e-11
6.190000e+02 2.206708e-11
6.200000e+02 2.466882e-11
6.210000e+02 2.756710e-11
6.220000e+02 3.079455e-11
6.230000e+02 3.438724e-11
6.240000e+02 3.838507e-11
6.250000e+02 4.283213e-11
6.260000e+02 4.777713e-11
6.270000e+02 5.327386e-11
6.280000e+02 5.938176e-11
6.290000e+02 6.616634e-11
6.300000e+02 7.369996e-11
6.310000e+02 8.204966e-11
6.320000e+02 9.134161e-11
6.330000e+02 1.016345e-10
6.340000e+02 1.130481e-10
6.350000e+02 1.256992e-10
6.360000e+02 1.396497e-10
6.370000e+02 1.552491e-10
6.380000e+02 1.724463e-10
6.390000e+02 1.914835e-10
6.400000e+02 2.125503e-10
6.410000e+02 2.358555e-10
6.420000e+02 2.616285e-10
6.430000e+02 2.901212e-10
6.440000e+02 3.216101e-10
6.450000e+02 3.563989e-10
6.460000e+02 3.948215e-10
6.470000e+02 4.372430e-10
6.480000e+02 4.840647e-10
6.490000e+02 5.357275e-10
6.500000e+02 5.927124e-10
6.510000e+02 6.555483e-10
6.520000e+02 7.248141e-10
6.530000e+02 8.011438e-10
6.540000e+02 8.852314e-10
6.550000e+02 9.778367e-10
6.560000e+02 1.079791e-09
6.570000e+02 1.191991e-09
6.580000e+02 1.315468e-09
6.590000e+02 1.451271e-09
6.600000e+02 1.600602e-09
6.610000e+02 1.764757e-09
6.620000e+02 1.945154e-09
6.630000e+02 2.143341e-09
6.640000e+02 2.361006e-09
6.650000e+02 2.599994e-09
6.660000e+02 2.862315e-09
6.670000e+02 3.150164e-09
6.680000e+02 3.465930e-09
6.690000e+02 3.812223e-09
6.700000e+02 4.191879e-09
6.710000e+02 4.607998e-09
6.720000e+02 5.063946e-09
6.730000e+02 5.563394e-09
6.740000e+02 6.110336e-09
6.750000e+02 6.709118e-09
6.760000e+02 7.364468e-09
6.770000e+02 8.081529e-09
6.780000e+02 8.865892e-09
6.790000e+02 9.723634e-09
6.800000e+02 1.066136e-08
6.810000e+02 1.168625e-08
6.820000e+02 1.280609e-08
6.830000e+02 1.402934e-08
6.840000e+02 1.536519e-08
6.850000e+02 1.682361e-08
6.860000e+02 1.841542e-08
6.870000e+02 2.015227e-08
6.880000e+02 2.204710e-08
6.890000e+02 2.411335e-08
6.900000e+02 2.636645e-08
6.910000e+02 2.882220e-08
6.920000e+02 3.149826e-08
6.930000e+02 3.441365e-08
6.940000e+02 3.758893e-08
6.950000e+02 4.104638e-08
6.960000e+02 4.481011e-08
6.970000e+02 4.890479e-08
6.980000e+02 5.336279e-08
6.990000e+02 5.821045e-08
7.000000e+02 6.348214e-08
7.010000e+02 6.921348e-08
7.020000e+02 7.544300e-08
7.030000e+02 8.221229e-08
7.040000e+02 8.956628e-08
7.050000e+02 9.755350e-08
7.060000e+02 1.062263e-07
7.070000e+02 1.156412e-07
7.080000e+02 1.258593e-07
7.090000e+02 1.369463e-07
7.100000e+02 1.489732e-07
7.110000e+02 1.620164e-07
7.120000e+02 1.761586e-07
7.130000e+02 1.914885e-07
7.140000e+02 2.081020e-07
7.150000e+02 2.261023e-07
7.160000e+02 2.456004e-07
7.170000e+02 2.667156e-07
7.180000e+02 2.895742e-07
7.190000e+02 3.143250e-07
7.200000e+02 3.411062e-07
7.210000e+02 3.700820e-07
7.220000e+02 4.014251e-07
7.230000e+02 4.353209e-07
7.240000e+02 4.719691e-07
7.250000e+02 5.115841e-07
7.260000e+02 5.543962e-07
7.270000e+02 6.006530e-07
7.280000e+02 6.506206e-07
7.290000e+02 7.045844e-07
7.300000e+02 7.628491e-07
7.310000e+02 8.257492e-07
7.320000e+02 8.936325e-07
7.330000e+02 9.668797e-07
7.340000e+02 1.045897e-06
7.350000e+02 1.131121e-06
7.360000e+02 1.223017e-06
7.370000e+02 1.322091e-06
7.380000e+02 1.428875e-06
7.390000e+02 1.543946e-06
7.400000e+02 1.667922e-06
7.410000e+02 1.801461e-06
7.420000e+02 1.945273e-06
7.430000e+02 2.100113e-06
7.440000e+02 2.266792e-06
7.450000e+02 2.446179e-06
7.460000e+02 2.639200e-06
7.470000e+02 2.846851e-06
7.480000e+02 3.070192e-06
7.490000e+02 3.310359e-06
7.500000e+02 3.568569e-06
7.510000e+02 3.846118e-06
7.520000e+02 4.144394e-06
7.530000e+02 4.464880e-06
7.540000e+02 4.809160e-06
7.550000e+02 5.178926e-06
7.560000e+02 5.575985e-06
7.570000e+02 6.002263e-06
7.580000e+02 6.459828e-06
7.590000e+02 6.950861e-06
7.600000e+02 7.477737e-06
7.610000e+02 8.042938e-06
7.620000e+02 8.649130e-06
7.630000e+02 9.299163e-06
7.640000e+02 9.996075e-06
7.650000e+02 1.074310e-05
7.660000e+02 1.154369e-05
7.670000e+02 1.240152e-05
7.680000e+02 1.332045e-05
7.690000e+02 1.430482e-05
7.700000e+02 1.535891e-05
7.710000e+02 1.648749e-05
7.720000e+02 1.769562e-05
7.730000e+02 1.898866e-05
7.740000e+02 2.037230e-05
7.750000e+02 2.185263e-05
7.760000e+02 2.343597e-05
7.770000e+02 2.512961e-05
7.780000e+02 2.694046e-05
7.790000e+02 2.887640e-05
7.800000e+02 3.094572e-05
7.810000e+02 3.315721e-05
7.820000e+02 3.552020e-05
7.830000e+02 3.804460e-05
7.840000e+02 4.074098e-05
7.850000e+02 4.362051e-05
7.860000e+02 4.669510e-05
7.870000e+02 4.997752e-05
7.880000e+02 5.348090e-05
7.890000e+02 5.721961e-05
7.900000e+02 6.120864e-05
7.910000e+02 6.546436e-05
7.920000e+02 7.000345e-05
7.930000e+02 7.484405e-05
7.940000e+02 8.000529e-05
7.950000e+02 8.550749e-05
7.960000e+02 9.137214e-05
7.970000e+02 9.762206e-05
7.980000e+02 1.042813e-04
7.990000e+02 1.113758e-04
8.000000e+02 1.189325e-04
8.010000e+02 1.269801e-04
8.020000e+02 1.355491e-04
8.030000e+02 1.446718e-04
8.040000e+02 1.543823e-04
8.050000e+02 1.647169e-04
8.060000e+02 1.757138e-04
8.070000e+02 1.874134e-04
8.080000e+02 1.998588e-04
8.090000e+02 2.130952e-04
8.100000e+02 2.271706e-04
8.110000e+02 2.421359e-04
8.120000e+02 2.580443e-04
8.130000e+02 2.749535e-04
8.140000e+02 2.929227e-04
8.150000e+02 3.120154e-04
8.160000e+02 3.322992e-04
8.170000e+02 3.538441e-04
8.180000e+02 3.767259e-04
8.190000e+02 4.010229e-04
8.200000e+02 4.268189e-04
8.210000e+02 4.542022e-04
8.220000e+02 4.832658e-04
8.230000e+02 5.141080e-04
8.240000e+02 5.468327e-04
8.250000e+02 5.815495e-04
8.260000e+02 6.183739e-04
8.270000e+02 6.574279e-04
8.280000e+02 6.988402e-04
8.290000e+02 7.427467e-04
8.300000e+02 7.892904e-04
8.310000e+02 8.386223e-04
8.320000e+02 8.909016e-04
8.330000e+02 9.462962e-04
8.340000e+02 1.004983e-03
8.350000e+02 1.067025e-03
8.360000e+02 1.132978e-03
8.370000e+02 1.202711e-03
8.380000e+02 1.276534e-03
8.390000e+02 1.354686e-03
8.400000e+02 1.437410e-03
8.410000e+02 1.524960e-03
8.420000e+02 1.617559e-03
8.430000e+02 1.715628e-03
8.440000e+02 1.819324e-03
8.450000e+02 1.929007e-03
8.460000e+02 2.045006e-03
8.470000e+02 2.167668e-03
8.480000e+02 2.297356e-03
8.490000e+02 2.434454e-03
8.500000e+02 2.579365e-03
8.510000e+02 2.732513e-03
8.520000e+02 2.894342e-03
8.530000e+02 3.065323e-03
8.540000e+02 3.245959e-03
8.550000e+02 3.436744e-03
8.560000e+02 3.638234e-03
8.570000e+02 3.851000e-03
8.580000e+02 4.075642e-03
8.590000e+02 4.312792e-03
8.600000e+02 4.563111e-03
8.610000e+02 4.827296e-03
8.620000e+02 5.106077e-03
8.630000e+02 5.400219e-03
8.640000e+02 5.710531e-03
8.650000e+02 6.037855e-03
8.660000e+02 6.383079e-03
8.670000e+02 6.747134e-03
8.680000e+02 7.130997e-03
8.690000e+02 7.535691e-03
8.700000e+02 7.962266e-03
8.710000e+02 8.411927e-03
8.720000e+02 8.885778e-03
8.730000e+02 9.385086e-03
8.740000e+02 9.911148e-03
8.750000e+02 1.046533e-02
8.760000e+02 1.104905e-02
8.770000e+02 1.166382e-02
8.780000e+02 1.231120e-02
8.790000e+02 1.299284e-02
8.800000e+02 1.371045e-02
8.810000e+02 1.446584e-02
8.820000e+02 1.526090e-02
8.830000e+02 1.609761e-02
8.840000e+02 1.697805e-02
8.850000e+02 1.790437e-02
8.860000e+02 1.887885e-02
8.870000e+02 1.990388e-02
8.880000e+02 2.098193e-02
8.890000e+02 2.211561e-02
8.900000e+02 2.330765e-02
8.910000e+02 2.456091e-02
8.920000e+02 2.584031e-02
8.930000e+02 2.726311e-02
8.940000e+02 2.871845e-02
8.950000e+02 3.024778e-02
8.960000e+02 3.185467e-02
8.970000e+02 3.354286e-02
8.980000e+02 3.531625e-02
8.990000e+02 3.717891e-02
9.000000e+02 3.913512e-02
9.010000e+02 4.118932e-02
9.020000e+02 4.334618e-02
9.030000e+02 4.561055e-02
9.040000e+02 4.798739e-02
9.050000e+02 5.048241e-02
9.060000e+02 5.310077e-02
9.070000e+02 5.584825e-02
9.080000e+02 5.873128e-02
9.090000e+02 6.175580e-02
9.100000e+02 6.492855e-02
9.110000e+02 6.825659e-02
9.120000e+02 7.174797e-02
9.130000e+02 7.485608e-02
9.140000e+02 8.330214e-02
9.150000e+02 1.037605e+00
9.160000e+02 1.153752e+00
9.170000e+02 1.204416e+00
9.180000e+02 1.256951e+00
9.190000e+02 1.312229e+00
9.200000e+02 1.369456e+00
9.210000e+02 1.109762e-01
9.220000e+02 1.490087e+00
9.230000e+02 1.552565e+00
9.240000e+02 1.561987e+00
9.250000e+02 1.672971e+00
9.260000e+02 1.761089e+00
9.270000e+02 1.838953e+00
9.280000e+02 1.920271e+00
9.290000e+02 1.860234e+00
9.300000e+02 2.068668e+00
9.310000e+02 2.163259e+00
9.320000e+02 2.269816e+00
9.330000e+02 2.366058e+00
9.340000e+02 2.465516e+00
9.350000e+02 5.106924e-01
9.360000e+02 2.666303e+00
9.370000e+02 4.941473e-01
9.380000e+02 1.853978e+00
9.390000e+02 3.028368e+00
9.400000e+02 3.155997e+00
9.410000e+02 2.142857e+00
9.420000e+02 3.425333e+00
9.430000e+02 3.567624e+00
9.440000e+02 3.519305e+00
9.450000e+02 3.867638e+00
9.460000e+02 4.027133e+00
9.470000e+02 4.014839e+00
9.480000e+02 4.347385e+00
9.490000e+02 4.511201e+00
9.500000e+02 1.379168e+00
9.510000e+02 4.838811e+00
9.520000e+02 5.127735e+00
9.530000e+02 5.336379e+00
9.540000e+02 4.863149e+00
9.550000e+02 5.785303e+00
9.560000e+02 6.039269e+00
9.570000e+02 3.476925e+00
9.580000e+02 6.471372e+00
9.590000e+02 6.800753e+00
9.600000e+02 1.373600e+00
9.610000e+02 7.365668e+00
9.620000e+02 7.660503e+00
9.630000e+02 7.964731e+00
9.640000e+02 9.741859e-01
9.650000e+02 8.043402e+00
9.660000e+02 8.953098e+00
9.670000e+02 9.307671e+00
9.680000e+02 9.638177e+00
9.690000e+02 1.001380e+01
9.700000e+02 1.042863e+01
9.710000e+02 1.077154e+01
9.720000e+02 1.048217e+01
9.730000e+02 1.065373e+01
9.740000e+02 1.204602e+01
9.750000e+02 1.263384e+01
9.760000e+02 1.314943e+01
9.770000e+02 1.366883e+01
9.780000e+02 1.419273e+01
9.790000e+02 1.475500e+01
9.800000e+02 1.532379e+01
9.810000e+02 1.591663e+01
9.820000e+02 1.650896e+01
9.830000e+02 1.715671e+01
9.840000e+02 7.471173e+00
9.850000e+02 1.849528e+01
9.860000e+02 1.919937e+01
9.870000e+02 1.992595e+01
9.880000e+02 2.064417e+01
9.890000e+02 1.852549e+01
9.900000e+02 3.673346e+00
9.910000e+02 2.298389e+01
9.920000e+02 2.384544e+01
9.930000e+02 2.448001e+01
9.940000e+02 4.358984e+00
9.950000e+02 8.134285e+00
9.960000e+02 2.707118e+01
9.970000e+02 1.261566e+01
9.980000e+02 2.974951e+01
9.990000e+02 3.087402e+01
1.000000e+03 3.213140e+01
1.001000e+03 3.331566e+01
1.002000e+03 3.453885e+01
1.003000e+03 3.517473e+01
1.004000e+03 3.710553e+01
1.005000e+03 3.799019e+01
1.006000e+03 3.987384e+01
1.007000e+03 4.132329e+01
1.008000e+03 4.281514e+01
1.009000e+03 4.405462e+01
1.010000e+03 4.596998e+01
1.011000e+03 4.762273e+01
1.012000e+03 4.933212e+01
1.013000e+03 5.109747e+01
1.014000e+03 5.284167e+01
1.015000e+03 5.439702e+01
1.016000e+03 5.670971e+01
1.017000e+03 5.861824e+01
1.018000e+03 6.076708e+01
1.019000e+03 6.283194e+01
1.020000e+03 6.497598e+01
1.021000e+03 5.576339e+01
1.022000e+03 6.457279e+01
1.023000e+03 7.061550e+01
1.024000e+03 7.036149e+01
1.025000e+03 5.704239e+01
1.026000e+03 2.969873e+01
1.027000e+03 7.432762e+01
1.028000e+03 2.121532e+01
1.029000e+03 8.744780e+01
1.030000e+03 9.106258e+01
1.031000e+03 9.479376e+01
1.032000e+03 9.823856e+01
1.033000e+03 3.626759e+01
1.034000e+03 1.054012e+02
1.035000e+03 2.468846e+01
1.036000e+03 1.124372e+02
1.037000e+03 9.986295e+01
1.038000e+03 1.208667e+02
1.039000e+03 1.249435e+02
1.040000e+03 1.293173e+02
1.041000e+03 1.336679e+02
1.042000e+03 1.381547e+02
1.043000e+03 1.393889e+02
1.044000e+03 1.478554e+02
1.045000e+03 1.528602e+02
1.046000e+03 1.580686e+02
1.047000e+03 1.633985e+02
1.048000e+03 1.687398e+02
1.049000e+03 1.744171e+02
1.050000e+03 1.804112e+02
1.051000e+03 1.864393e+02
1.052000e+03 1.926624e+02
1.053000e+03 1.988694e+02
1.054000e+03 2.053875e+02
1.055000e+03 2.124866e+02
1.056000e+03 2.195305e+02
1.057000e+03 2.267758e+02
1.058000e+03 2.342414e+02
1.059000e+03 2.419314e+02
1.060000e+03 2.498375e+02
1.061000e+03 2.580590e+02
1.062000e+03 2.664771e+02
1.063000e+03 2.396081e+02
1.064000e+03 6.389191e+01
1.065000e+03 2.932318e+02
1.066000e+03 3.027233e+02
1.067000e+03 3.123466e+02
1.068000e+03 3.228358e+02
1.069000e+03 3.330271e+02
1.070000e+03 3.439719e+02
1.071000e+03 3.551823e+02
1.072000e+03 3.665481e+02
1.073000e+03 3.779728e+02
1.074000e+03 3.903336e+02
1.075000e+03 4.027465e+02
1.076000e+03 4.155523e+02
1.077000e+03 4.281231e+02
1.078000e+03 4.423052e+02
1.079000e+03 4.553478e+02
1.080000e+03 4.706580e+02
1.081000e+03 4.854783e+02
1.082000e+03 5.004243e+02
1.083000e+03 5.163802e+02
1.084000e+03 5.324502e+02
1.085000e+03 5.383661e+02
1.086000e+03 5.660106e+02
1.087000e+03 5.834709e+02
1.088000e+03 6.000067e+02
1.089000e+03 6.200726e+02
1.090000e+03 6.391056e+02
1.091000e+03 6.587556e+02
1.092000e+03 6.788424e+02
1.093000e+03 6.992323e+02
1.094000e+03 7.210754e+02
1.095000e+03 7.428609e+02
1.096000e+03 7.655067e+02
1.097000e+03 7.850217e+02
1.098000e+03 8.126058e+02
1.099000e+03 8.371654e+02
1.100000e+03 8.552060e+02
1.101000e+03 8.109728e+02
1.102000e+03 2.033608e+03
1.103000e+03 7.071483e+03
1.104000e+03 1.959540e+03
1.105000e+03 9.831768e+02
1.106000e+03 1.471791e+04
1.107000e+03 1.479188e+04
1.108000e+03 1.546942e+04
1.109000e+03 1.522688e+04
1.110000e+03 8.880893e+03
1.111000e+03 2.268730e+03
1.112000e+03 1.658292e+04
1.113000e+03 1.739688e+04
1.114000e+03 9.758682e+02
1.115000e+03 1.803088e+04
1.116000e+03 1.848609e+04
1.117000e+03 7.773320e+02
1.118000e+03 1.920284e+04
1.119000e+03 1.988324e+04
1.120000e+03 2.029222e+04
1.121000e+03 1.976023e+04
1.122000e+03 3.499473e+02
1.123000e+03 5.929607e+03
1.124000e+03 2.228152e+04
1.125000e+03 1.988985e+04
1.126000e+03 2.340801e+04
1.127000e+03 2.314306e+04
1.128000e+03 1.171057e+04
1.129000e+03 2.462372e+04
1.130000e+03 2.498365e+04
1.131000e+03 2.631196e+04
1.132000e+03 1.447496e+03
1.133000e+03 2.742824e+04
1.134000e+03 2.744775e+04
1.135000e+03 2.407104e+03
1.136000e+03 2.947306e+04
1.137000e+03 3.018255e+04
1.138000e+03 3.091443e+04
1.139000e+03 3.082071e+04
1.140000e+03 8.185059e+02
1.141000e+03 3.311757e+04
1.142000e+03 3.387969e+04
1.143000e+03 3.462317e+04
1.144000e+03 3.547061e+04
1.145000e+03 3.006815e+04
1.146000e+03 3.717145e+04
1.147000e+03 3.741182e+04
1.148000e+03 3.834731e+04
1.149000e+03 3.967069e+04
1.150000e+03 4.038705e+04
1.151000e+03 4.125564e+04
1.152000e+03 4.255303e+04
1.153000e+03 3.315274e+04
1.154000e+03 6.273207e+03
1.155000e+03 4.527036e+04
1.156000e+03 3.476120e+04
1.157000e+03 4.736567e+04
1.158000e+03 2.967063e+03
1.159000e+03 4.395094e+04
1.160000e+03 5.086918e+04
1.161000e+03 5.203340e+04
1.162000e+03 1.929754e+04
1.163000e+03 5.433430e+04
1.164000e+03 2.040859e+03
1.165000e+03 5.692519e+04
1.166000e+03 5.834454e+04
1.167000e+03 5.966755e+04
1.168000e+03 6.143048e+04
1.169000e+03 6.143943e+04
1.170000e+03 6.458247e+04
1.171000e+03 6.620803e+04
1.172000e+03 6.773968e+04
1.173000e+03 6.953708e+04
1.174000e+03 7.101427e+04
1.175000e+03 2.479141e+03
1.176000e+03 2.222930e+03
1.177000e+03 7.650713e+04
1.178000e+03 7.816975e+04
1.179000e+03 8.014623e+04
1.180000e+03 7.282928e+04
1.181000e+03 8.367516e+04
1.182000e+03 8.613780e+04
1.183000e+03 8.802178e+04
1.184000e+03 8.989410e+04
1.185000e+03 9.172637e+04
1.186000e+03 9.355127e+04
1.187000e+03 9.542909e+04
1.188000e+03 9.708705e+04
1.189000e+03 3.305438e+03
1.190000e+03 5.425435e+04
1.191000e+03 1.006425e+05
1.192000e+03 1.021274e+05
1.193000e+03 2.881602e+03
1.194000e+03 3.822344e+03
1.195000e+03 9.060933e+04
1.196000e+03 1.075104e+05
1.197000e+03 1.691066e+05
1.198000e+03 1.707337e+05
1.199000e+03 1.665290e+05
1.200000e+03 1.492879e+05
1.201000e+03 1.567878e+05
1.202000e+03 1.556378e+05
1.203000e+03 2.001253e+05
1.204000e+03 1.827075e+05
1.205000e+03 1.651388e+05
1.206000e+03 1.564006e+05
1.207000e+03 2.264059e+04
1.208000e+03 1.109056e+05
1.209000e+03 8.633410e+04
1.210000e+03 5.978090e+03
1.211000e+03 4.764607e+04
1.212000e+03 3.144362e+04
1.213000e+03 1.927258e+04
1.214000e+03 1.137758e+04
1.215000e+03 6.959367e+03
1.216000e+03 5.996039e+03
1.217000e+03 1.024205e+04
1.218000e+03 1.815737e+04
1.219000e+03 3.170189e+04
1.220000e+03 5.166811e+04
1.221000e+03 7.785770e+04
1.222000e+03 1.096021e+05
1.223000e+03 1.461460e+05
1.224000e+03 1.868760e+05
1.225000e+03 2.311530e+05
1.226000e+03 2.789188e+05
1.227000e+03 3.249347e+05
1.228000e+03 3.828358e+05
1.229000e+03 4.386239e+05
1.230000e+03 4.957633e+05
1.231000e+03 5.555996e+05
1.232000e+03 6.176089e+05
1.233000e+03 6.801842e+05
1.234000e+03 4.040392e+05
1.235000e+03 8.100694e+05
1.236000e+03 8.754177e+05
1.237000e+03 9.427501e+05
1.238000e+03 1.011289e+06
1.239000e+03 1.079211e+06
1.240000e+03 1.053753e+06
1.241000e+03 1.594528e+06
1.242000e+03 1.043578e+06
1.243000e+03 1.632657e+06
1.244000e+03 7.908362e+05
1.245000e+03 1.090227e+06
1.246000e+03 2.701481e+06
1.247000e+03 2.841482e+06
1.248000e+03 8.345919e+05
1.249000e+03 1.217145e+06
1.250000e+03 3.488823e+06
1.251000e+03 3.734371e+06
1.252000e+03 3.956674e+06
1.253000e+03 4.184141e+06
1.254000e+03 4.410300e+06
1.255000e+03 4.666844e+06
1.256000e+03 4.831726e+06
1.257000e+03 5.106010e+06
1.258000e+03 5.297511e+06
1.259000e+03 5.178154e+06
1.260000e+03 3.510703e+06
1.261000e+03 1.834375e+04
1.262000e+03 6.199088e+05
1.263000e+03 6.045549e+06
1.264000e+03 5.057658e+06
1.265000e+03 1.866206e+04
1.266000e+03 6.692220e+06
1.267000e+03 7.613138e+06
