# wavelength_A flux
5.000000e+02 4.285070e-06
5.010000e+02 4.811792e-06
5.020000e+02 5.400656e-06
5.030000e+02 6.058688e-06
5.040000e+02 6.793668e-06
5.050000e+02 7.769590e-06
5.060000e+02 8.702815e-06
5.070000e+02 9.743594e-06
5.080000e+02 1.090379e-05
5.090000e+02 1.219689e-05
5.100000e+02 1.363670e-05
5.110000e+02 1.523956e-05
5.120000e+02 1.702310e-05
5.130000e+02 1.900676e-05
5.140000e+02 2.121219e-05
5.150000e+02 2.366283e-05
5.160000e+02 2.638537e-05
5.170000e+02 2.940709e-05
5.180000e+02 3.276261e-05
5.190000e+02 3.648404e-05
5.200000e+02 4.061068e-05
5.210000e+02 4.518463e-05
5.220000e+02 5.024787e-05
5.230000e+02 5.586473e-05
5.240000e+02 6.207768e-05
5.250000e+02 6.895366e-05
5.260000e+02 7.655863e-05
5.270000e+02 8.496717e-05
5.280000e+02 9.426043e-05
5.290000e+02 1.045078e-04
5.300000e+02 1.158649e-04
5.310000e+02 1.283802e-04
5.320000e+02 1.421910e-04
5.330000e+02 1.574243e-04
5.340000e+02 1.742203e-04
5.350000e+02 1.927319e-04
5.360000e+02 2.131255e-04
5.370000e+02 2.331084e-04
5.380000e+02 2.603105e-04
5.390000e+02 2.875245e-04
5.400000e+02 3.174601e-04
5.410000e+02 3.503565e-04
5.420000e+02 3.865556e-04
5.430000e+02 4.263153e-04
5.440000e+02 4.699847e-04
5.450000e+02 5.179338e-04
5.460000e+02 5.704832e-04
5.470000e+02 6.283039e-04
5.480000e+02 6.916358e-04
5.490000e+02 7.610773e-04
5.500000e+02 8.371837e-04
5.510000e+02 9.205689e-04
5.520000e+02 1.011895e-03
5.530000e+02 1.111883e-03
5.540000e+02 1.221317e-03
5.550000e+02 1.341048e-03
5.560000e+02 1.471998e-03
5.570000e+02 1.615171e-03
5.580000e+02 1.771652e-03
5.590000e+02 1.942621e-03
5.600000e+02 2.129356e-03
5.610000e+02 2.333238e-03
5.620000e+02 2.555776e-03
5.630000e+02 2.798577e-03
5.640000e+02 3.063428e-03
5.650000e+02 3.352217e-03
5.660000e+02 3.667017e-03
5.670000e+02 4.010045e-03
5.680000e+02 4.383717e-03
5.690000e+02 4.790638e-03
5.700000e+02 5.233615e-03
5.710000e+02 5.715718e-03
5.720000e+02 6.240205e-03
5.730000e+02 6.810638e-03
5.740000e+02 7.430840e-03
5.750000e+02 8.105052e-03
5.760000e+02 8.836629e-03
5.770000e+02 9.633170e-03
5.780000e+02 1.049711e-02
5.790000e+02 1.143503e-02
5.800000e+02 1.245290e-02
5.810000e+02 1.355719e-02
5.820000e+02 1.475488e-02
5.830000e+02 1.605335e-02
5.840000e+02 1.745679e-02
5.850000e+02 1.898535e-02
5.860000e+02 2.063876e-02
5.870000e+02 2.242842e-02
5.880000e+02 2.436590e-02
5.890000e+02 2.646261e-02
5.900000e+02 2.873205e-02
5.910000e+02 3.118658e-02
5.920000e+02 3.384070e-02
5.930000e+02 3.671039e-02
5.940000e+02 3.981196e-02
5.950000e+02 4.316190e-02
5.960000e+02 4.678328e-02
5.970000e+02 5.069252e-02
5.980000e+02 5.491300e-02
5.990000e+02 5.946819e-02
6.000000e+02 6.438328e-02
6.010000e+02 6.968081e-02
6.020000e+02 7.540303e-02
6.030000e+02 8.156748e-02
6.040000e+02 8.821194e-02
6.050000e+02 9.537160e-02
6.060000e+02 1.030840e-01
6.070000e+02 1.113908e-01
6.080000e+02 1.203345e-01
6.090000e+02 1.299617e-01
6.100000e+02 1.403217e-01
6.110000e+02 1.514679e-01
6.120000e+02 1.634564e-01
6.130000e+02 1.763472e-01
6.140000e+02 1.902055e-01
6.150000e+02 2.051001e-01
6.160000e+02 2.211039e-01
6.170000e+02 2.382955e-01
6.180000e+02 2.567583e-01
6.190000e+02 2.765814e-01
6.200000e+02 2.978598e-01
6.210000e+02 3.206946e-01
6.220000e+02 3.451937e-01
6.230000e+02 3.714716e-01
6.240000e+02 3.996513e-01
6.250000e+02 4.298629e-01
6.260000e+02 4.622450e-01
6.270000e+02 4.969451e-01
6.280000e+02 5.341206e-01
6.290000e+02 5.739384e-01
6.300000e+02 6.165763e-01
6.310000e+02 6.622092e-01
6.320000e+02 7.110761e-01
6.330000e+02 7.633559e-01
6.340000e+02 8.192875e-01
6.350000e+02 8.791099e-01
6.360000e+02 9.420295e-01
6.370000e+02 1.011469e+00
6.380000e+02 1.084567e+00
6.390000e+02 1.162681e+00
6.400000e+02 1.246136e+00
6.410000e+02 1.335276e+00
6.420000e+02 1.430467e+00
6.430000e+02 1.532099e+00
6.440000e+02 1.640583e+00
6.450000e+02 1.756354e+00
6.460000e+02 1.879879e+00
6.470000e+02 2.011640e+00
6.480000e+02 2.152169e+00
6.490000e+02 2.302005e+00
6.500000e+02 2.461735e+00
6.510000e+02 2.631975e+00
6.520000e+02 2.813380e+00
6.530000e+02 3.006639e+00
6.540000e+02 3.212485e+00
6.550000e+02 3.431691e+00
6.560000e+02 3.665076e+00
6.570000e+02 3.913444e+00
6.580000e+02 4.177882e+00
6.590000e+02 4.459198e+00
6.600000e+02 4.758453e+00
6.610000e+02 5.076756e+00
6.620000e+02 5.415223e+00
6.630000e+02 5.775064e+00
6.640000e+02 6.157559e+00
6.650000e+02 6.564034e+00
6.660000e+02 6.995951e+00
6.670000e+02 7.454767e+00
6.680000e+02 7.942078e+00
6.690000e+02 8.459550e+00
6.700000e+02 9.008943e+00
6.710000e+02 9.592113e+00
6.720000e+02 1.021084e+01
6.730000e+02 1.086772e+01
6.740000e+02 1.156431e+01
6.750000e+02 1.230325e+01
6.760000e+02 1.308686e+01
6.770000e+02 1.391769e+01
6.780000e+02 1.479843e+01
6.790000e+02 1.573184e+01
6.800000e+02 1.672099e+01
6.810000e+02 1.776897e+01
6.820000e+02 1.887907e+01
6.830000e+02 2.005468e+01
6.840000e+02 2.129959e+01
6.850000e+02 2.261752e+01
6.860000e+02 2.401265e+01
6.870000e+02 2.548891e+01
6.880000e+02 2.705131e+01
6.890000e+02 2.870404e+01
6.900000e+02 3.045218e+01
6.910000e+02 3.230098e+01
6.920000e+02 3.425581e+01
6.930000e+02 3.632241e+01
6.940000e+02 3.850680e+01
6.950000e+02 4.081529e+01
6.960000e+02 4.325449e+01
6.970000e+02 4.583082e+01
6.980000e+02 4.855325e+01
6.990000e+02 5.142759e+01
7.000000e+02 5.446278e+01
7.010000e+02 5.766710e+01
7.020000e+02 6.104940e+01
7.030000e+02 6.461896e+01
7.040000e+02 6.838551e+01
7.050000e+02 7.235928e+01
7.060000e+02 7.655092e+01
7.070000e+02 8.097176e+01
7.080000e+02 8.563345e+01
7.090000e+02 9.054806e+01
7.100000e+02 9.572934e+01
7.110000e+02 1.011900e+02
7.120000e+02 1.069436e+02
7.130000e+02 1.130066e+02
7.140000e+02 1.193938e+02
7.150000e+02 1.261213e+02
7.160000e+02 1.332063e+02
7.170000e+02 1.406661e+02
7.180000e+02 1.485184e+02
7.190000e+02 1.567875e+02
7.200000e+02 1.654886e+02
7.210000e+02 1.746448e+02
7.220000e+02 1.842785e+02
7.230000e+02 1.944128e+02
7.240000e+02 2.050722e+02
7.250000e+02 2.162821e+02
7.260000e+02 2.280693e+02
7.270000e+02 2.404616e+02
7.280000e+02 2.534881e+02
7.290000e+02 2.671790e+02
7.300000e+02 2.815663e+02
7.310000e+02 2.966830e+02
7.320000e+02 3.125638e+02
7.330000e+02 3.292447e+02
7.340000e+02 3.467637e+02
7.350000e+02 3.651600e+02
7.360000e+02 3.844731e+02
7.370000e+02 4.047495e+02
7.380000e+02 4.260317e+02
7.390000e+02 4.483668e+02
7.400000e+02 4.718021e+02
7.410000e+02 4.963924e+02
7.420000e+02 5.221852e+02
7.430000e+02 5.492417e+02
7.440000e+02 5.776149e+02
7.450000e+02 6.073662e+02
7.460000e+02 6.385584e+02
7.470000e+02 6.712513e+02
7.480000e+02 7.055233e+02
7.490000e+02 7.414401e+02
7.500000e+02 7.790753e+02
7.510000e+02 8.185058e+02
7.520000e+02 8.598117e+02
7.530000e+02 9.030744e+02
7.540000e+02 9.483842e+02
7.550000e+02 9.958292e+02
7.560000e+02 1.045504e+03
7.570000e+02 1.097482e+03
7.580000e+02 1.151933e+03
7.590000e+02 1.208895e+03
7.600000e+02 1.268510e+03
7.610000e+02 1.330883e+03
7.620000e+02 1.396134e+03
7.630000e+02 1.464388e+03
7.640000e+02 1.535773e+03
7.650000e+02 1.610424e+03
7.660000e+02 1.688482e+03
7.670000e+02 1.770089e+03
7.680000e+02 1.855389e+03
7.690000e+02 1.944562e+03
7.700000e+02 2.037747e+03
7.710000e+02 2.135120e+03
7.720000e+02 2.236857e+03
7.730000e+02 2.343141e+03
7.740000e+02 2.454160e+03
7.750000e+02 2.570111e+03
7.760000e+02 2.690997e+03
7.770000e+02 2.817633e+03
7.780000e+02 2.949637e+03
7.790000e+02 3.087401e+03
7.800000e+02 3.231233e+03
7.810000e+02 3.381344e+03
7.820000e+02 3.537990e+03
7.830000e+02 3.701431e+03
7.840000e+02 3.871952e+03
7.850000e+02 4.049828e+03
7.860000e+02 4.235355e+03
7.870000e+02 4.428858e+03
7.880000e+02 4.630627e+03
7.890000e+02 4.841002e+03
7.900000e+02 5.060326e+03
7.910000e+02 5.288954e+03
7.920000e+02 5.527250e+03
7.930000e+02 5.775595e+03
7.940000e+02 6.034384e+03
7.950000e+02 6.304025e+03
7.960000e+02 6.584940e+03
7.970000e+02 6.877567e+03
7.980000e+02 7.182360e+03
7.990000e+02 7.499789e+03
8.000000e+02 7.830340e+03
8.010000e+02 8.174503e+03
8.020000e+02 8.532832e+03
8.030000e+02 8.905843e+03
8.040000e+02 9.294103e+03
8.050000e+02 9.698185e+03
8.060000e+02 1.011869e+04
8.070000e+02 1.055624e+04
8.080000e+02 1.101147e+04
8.090000e+02 1.148495e+04
8.100000e+02 1.197755e+04
8.110000e+02 1.248990e+04
8.120000e+02 1.302273e+04
8.130000e+02 1.357679e+04
8.140000e+02 1.415287e+04
8.150000e+02 1.475175e+04
8.160000e+02 1.537435e+04
8.170000e+02 1.602146e+04
8.180000e+02 1.669401e+04
8.190000e+02 1.739292e+04
8.200000e+02 1.811904e+04
8.210000e+02 1.887356e+04
8.220000e+02 1.965740e+04
8.230000e+02 2.047162e+04
8.240000e+02 2.131732e+04
8.250000e+02 2.219562e+04
8.260000e+02 2.310768e+04
8.270000e+02 2.405469e+04
8.280000e+02 2.503791e+04
8.290000e+02 2.605861e+04
8.300000e+02 2.711812e+04
8.310000e+02 2.821780e+04
8.320000e+02 2.935906e+04
8.330000e+02 3.054335e+04
8.340000e+02 3.177218e+04
8.350000e+02 3.304463e+04
8.360000e+02 3.436954e+04
8.370000e+02 3.574160e+04
8.380000e+02 3.716396e+04
8.390000e+02 3.863991e+04
8.400000e+02 4.017023e+04
8.410000e+02 4.175701e+04
8.420000e+02 4.340147e+04
8.430000e+02 4.510770e+04
8.440000e+02 4.687564e+04
8.450000e+02 4.870812e+04
8.460000e+02 5.060729e+04
8.470000e+02 5.257540e+04
8.480000e+02 5.461476e+04
8.490000e+02 5.672775e+04
8.500000e+02 5.891683e+04
8.510000e+02 6.118453e+04
8.520000e+02 6.353335e+04
8.530000e+02 6.596621e+04
8.540000e+02 6.848598e+04
8.550000e+02 7.109499e+04
8.560000e+02 7.379645e+04
8.570000e+02 7.659337e+04
8.580000e+02 7.948886e+04
8.590000e+02 8.248616e+04
8.600000e+02 8.558853e+04
8.610000e+02 8.879938e+04
8.620000e+02 9.212220e+04
8.630000e+02 9.556048e+04
8.640000e+02 9.911825e+04
8.650000e+02 1.027978e+05
8.660000e+02 1.066057e+05
8.670000e+02 1.105444e+05
8.680000e+02 1.146184e+05
8.690000e+02 1.188318e+05
8.700000e+02 1.231891e+05
8.710000e+02 1.276948e+05
8.720000e+02 1.323535e+05
8.730000e+02 1.371700e+05
8.740000e+02 1.421493e+05
8.750000e+02 1.472963e+05
8.760000e+02 1.526155e+05
8.770000e+02 1.581135e+05
8.780000e+02 1.637961e+05
8.790000e+02 1.696678e+05
8.800000e+02 1.757348e+05
8.810000e+02 1.820030e+05
8.820000e+02 1.884787e+05
8.830000e+02 1.951681e+05
8.840000e+02 2.020777e+05
8.850000e+02 2.092142e+05
8.860000e+02 2.165843e+05
8.870000e+02 2.241952e+05
8.880000e+02 2.320540e+05
8.890000e+02 2.401682e+05
8.900000e+02 2.485453e+05
8.910000e+02 2.571905e+05
8.920000e+02 2.658162e+05
8.930000e+02 2.753311e+05
8.940000e+02 2.848405e+05
8.950000e+02 2.946538e+05
8.960000e+02 3.047810e+05
8.970000e+02 3.152302e+05
8.980000e+02 3.260112e+05
8.990000e+02 3.371337e+05
9.000000e+02 3.486074e+05
9.010000e+02 3.604427e+05
9.020000e+02 3.726486e+05
9.030000e+02 3.852384e+05
9.040000e+02 3.982182e+05
9.050000e+02 4.116100e+05
9.060000e+02 4.254156e+05
9.070000e+02 4.396425e+05
9.080000e+02 4.543231e+05
9.090000e+02 4.694501e+05
9.100000e+02 4.850430e+05
9.110000e+02 5.011166e+05
9.120000e+02 5.176912e+05
9.130000e+02 5.284217e+05
9.140000e+02 5.580649e+05
9.150000e+02 1.599369e+06
9.160000e+02 5.381623e+06
9.170000e+02 5.737774e+06
9.180000e+02 4.865632e+06
9.190000e+02 7.665723e+06
9.200000e+02 8.455461e+06
9.210000e+02 6.689008e+05
9.220000e+02 9.079783e+06
9.230000e+02 6.126062e+06
9.240000e+02 8.394351e+06
9.250000e+02 9.748675e+06
9.260000e+02 8.117904e+06
9.270000e+02 1.029151e+07
9.280000e+02 1.071036e+07
9.290000e+02 9.566244e+06
9.300000e+02 1.098664e+07
9.310000e+02 9.567130e+06
9.320000e+02 1.182140e+07
9.330000e+02 1.213257e+07
9.340000e+02 1.247332e+07
9.350000e+02 3.465432e+06
9.360000e+02 1.304332e+07
9.370000e+02 2.500775e+06
9.380000e+02 6.374056e+06
9.390000e+02 1.400082e+07
9.400000e+02 1.446374e+07
9.410000e+02 6.675345e+06
9.420000e+02 1.520968e+07
9.430000e+02 1.555926e+07
9.440000e+02 1.041192e+07
9.450000e+02 1.635849e+07
9.460000e+02 1.675043e+07
9.470000e+02 1.291949e+07
9.480000e+02 1.500234e+07
9.490000e+02 1.756231e+07
9.500000e+02 3.512680e+06
9.510000e+02 1.809288e+07
9.520000e+02 1.934159e+07
9.530000e+02 1.936703e+07
9.540000e+02 1.697309e+07
9.550000e+02 2.079783e+07
9.560000e+02 1.753126e+07
9.570000e+02 1.576094e+07
9.580000e+02 2.154648e+07
9.590000e+02 2.299064e+07
9.600000e+02 4.785690e+06
9.610000e+02 2.406828e+07
9.620000e+02 2.461108e+07
9.630000e+02 2.526022e+07
9.640000e+02 2.660582e+06
9.650000e+02 2.415660e+07
9.660000e+02 2.707458e+07
9.670000e+02 2.745218e+07
9.680000e+02 2.778698e+07
9.690000e+02 2.883524e+07
9.700000e+02 2.957906e+07
9.710000e+02 2.982587e+07
9.720000e+02 2.758128e+07
9.730000e+02 2.731625e+07
9.740000e+02 3.201847e+07
9.750000e+02 3.318485e+07
9.760000e+02 3.411807e+07
9.770000e+02 3.492583e+07
9.780000e+02 3.563092e+07
9.790000e+02 3.661333e+07
9.800000e+02 3.745210e+07
9.810000e+02 3.828434e+07
9.820000e+02 3.883480e+07
9.830000e+02 4.007110e+07
9.840000e+02 1.676659e+07
9.850000e+02 4.186329e+07
9.860000e+02 4.277274e+07
9.870000e+02 4.382790e+07
9.880000e+02 4.398952e+07
9.890000e+02 3.517573e+07
9.900000e+02 6.495331e+06
9.910000e+02 4.700797e+07
9.920000e+02 4.178658e+07
9.930000e+02 4.730797e+07
9.940000e+02 8.194432e+06
9.950000e+02 1.440970e+07
9.960000e+02 2.019498e+07
9.970000e+02 1.195674e+07
9.980000e+02 5.573319e+07
9.990000e+02 5.562156e+07
1.000000e+03 5.838154e+07
1.001000e+03 5.968644e+07
1.002000e+03 6.095545e+07
1.003000e+03 5.696154e+07
1.004000e+03 6.298594e+07
1.005000e+03 5.841405e+07
1.006000e+03 6.645373e+07
1.007000e+03 6.774190e+07
1.008000e+03 6.923852e+07
1.009000e+03 6.884449e+07
1.010000e+03 7.233146e+07
1.011000e+03 7.388408e+07
1.012000e+03 7.542366e+07
1.013000e+03 7.701982e+07
1.014000e+03 7.366824e+07
1.015000e+03 7.772130e+07
1.016000e+03 8.139441e+07
1.017000e+03 7.932870e+07
1.018000e+03 8.504042e+07
1.019000e+03 8.556678e+07
1.020000e+03 8.872631e+07
1.021000e+03 5.555301e+07
1.022000e+03 8.516911e+07
1.023000e+03 9.031887e+07
1.024000e+03 8.710087e+07
1.025000e+03 6.589832e+07
1.026000e+03 3.176574e+07
1.027000e+03 8.863148e+07
1.028000e+03 2.813311e+07
1.029000e+03 1.004313e+08
1.030000e+03 1.071078e+08
1.031000e+03 1.108826e+08
1.032000e+03 1.131411e+08
1.033000e+03 5.685594e+07
1.034000e+03 1.188815e+08
1.035000e+03 2.676790e+07
1.036000e+03 1.128631e+08
1.037000e+03 2.005234e+07
1.038000e+03 1.293190e+08
1.039000e+03 1.306912e+08
1.040000e+03 1.346321e+08
1.041000e+03 1.363205e+08
1.042000e+03 1.378748e+08
1.043000e+03 1.390810e+08
1.044000e+03 1.455315e+08
1.045000e+03 1.486188e+08
1.046000e+03 1.519424e+08
1.047000e+03 1.545467e+08
1.048000e+03 1.548846e+08
1.049000e+03 1.566327e+08
1.050000e+03 1.642395e+08
1.051000e+03 1.672081e+08
1.052000e+03 1.710472e+08
1.053000e+03 1.720639e+08
1.054000e+03 1.669724e+08
1.055000e+03 1.800148e+08
1.056000e+03 1.850152e+08
1.057000e+03 1.883093e+08
1.058000e+03 1.919353e+08
1.059000e+03 1.939255e+08
1.060000e+03 1.972429e+08
1.061000e+03 2.035691e+08
1.062000e+03 2.072035e+08
1.063000e+03 8.403267e+07
1.064000e+03 4.630459e+07
1.065000e+03 2.119285e+08
1.066000e+03 1.878344e+08
1.067000e+03 2.199009e+08
1.068000e+03 2.349020e+08
1.069000e+03 2.290666e+08
1.070000e+03 2.403877e+08
1.071000e+03 2.487515e+08
1.072000e+03 2.534366e+08
1.073000e+03 2.498299e+08
1.074000e+03 2.625148e+08
1.075000e+03 2.671499e+08
1.076000e+03 2.731653e+08
1.077000e+03 2.763677e+08
1.078000e+03 2.828207e+08
1.079000e+03 2.875860e+08
1.080000e+03 2.937897e+08
1.081000e+03 2.995126e+08
1.082000e+03 3.050152e+08
1.083000e+03 3.102293e+08
1.084000e+03 3.132733e+08
1.085000e+03 2.422346e+08
1.086000e+03 3.285810e+08
1.087000e+03 3.312119e+08
1.088000e+03 3.397907e+08
1.089000e+03 3.468794e+08
1.090000e+03 3.516080e+08
1.091000e+03 3.578872e+08
1.092000e+03 3.662042e+08
1.093000e+03 3.725964e+08
1.094000e+03 3.794529e+08
1.095000e+03 3.861534e+08
1.096000e+03 3.932157e+08
1.097000e+03 3.965220e+08
1.098000e+03 4.015304e+08
1.099000e+03 4.142042e+08
1.100000e+03 4.100169e+08
1.101000e+03 3.913669e+08
1.102000e+03 8.411699e+08
1.103000e+03 2.567193e+09
1.104000e+03 1.066928e+09
1.105000e+03 4.238034e+08
1.106000e+03 5.647442e+09
1.107000e+03 2.902554e+09
1.108000e+03 5.933934e+09
1.109000e+03 3.181299e+09
1.110000e+03 1.189977e+09
1.111000e+03 9.447962e+08
1.112000e+03 5.295179e+09
1.113000e+03 6.497446e+09
1.114000e+03 3.359739e+08
1.115000e+03 5.707553e+09
1.116000e+03 5.550575e+09
1.117000e+03 3.742991e+08
1.118000e+03 4.262555e+09
1.119000e+03 6.799000e+09
1.120000e+03 6.061144e+09
1.121000e+03 5.981984e+09
1.122000e+03 1.301944e+08
1.123000e+03 7.354107e+08
1.124000e+03 7.317495e+09
1.125000e+03 3.265064e+09
1.126000e+03 7.611751e+09
1.127000e+03 7.403235e+09
1.128000e+03 3.088746e+09
1.129000e+03 7.493126e+09
1.130000e+03 6.489522e+09
1.131000e+03 8.116580e+09
1.132000e+03 3.738230e+08
1.133000e+03 5.788359e+09
1.134000e+03 7.881202e+09
1.135000e+03 2.093261e+08
1.136000e+03 7.811719e+09
1.137000e+03 8.722664e+09
1.138000e+03 8.540942e+09
1.139000e+03 8.741603e+09
1.140000e+03 2.332621e+08
1.141000e+03 9.161512e+09
1.142000e+03 8.937572e+09
1.143000e+03 9.343789e+09
1.144000e+03 9.580364e+09
1.145000e+03 6.103478e+09
1.146000e+03 9.807929e+09
1.147000e+03 9.769870e+09
1.148000e+03 8.541548e+09
1.149000e+03 1.013791e+10
1.150000e+03 9.770590e+09
1.151000e+03 1.037632e+10
1.152000e+03 1.044147e+10
1.153000e+03 2.792304e+09
1.154000e+03 6.831135e+08
1.155000e+03 8.135696e+09
1.156000e+03 2.606186e+09
1.157000e+03 1.118341e+10
1.158000e+03 3.396660e+08
1.159000e+03 9.321178e+09
1.160000e+03 1.073050e+10
1.161000e+03 1.178150e+10
1.162000e+03 2.418181e+09
1.163000e+03 1.119830e+10
1.164000e+03 5.097708e+08
1.165000e+03 1.237605e+10
1.166000e+03 1.232361e+10
1.167000e+03 1.201495e+10
1.168000e+03 1.291043e+10
1.169000e+03 1.274052e+10
1.170000e+03 1.320188e+10
1.171000e+03 1.334339e+10
1.172000e+03 1.265664e+10
1.173000e+03 1.374291e+10
1.174000e+03 1.154866e+10
1.175000e+03 5.716091e+08
1.176000e+03 4.674816e+08
1.177000e+03 1.438571e+10
1.178000e+03 1.339050e+10
1.179000e+03 1.478462e+10
1.180000e+03 1.088661e+10
1.181000e+03 1.499332e+10
1.182000e+03 1.529798e+10
1.183000e+03 1.538011e+10
1.184000e+03 1.548666e+10
1.185000e+03 1.526627e+10
1.186000e+03 1.522428e+10
1.187000e+03 1.598484e+10
1.188000e+03 1.531549e+10
1.189000e+03 5.519012e+08
1.190000e+03 2.295098e+09
1.191000e+03 1.599550e+10
1.192000e+03 1.621517e+10
1.193000e+03 4.986778e+08
1.194000e+03 6.295501e+08
1.195000e+03 1.072231e+10
1.196000e+03 1.625441e+10
1.197000e+03 2.068755e+10
1.198000e+03 2.016597e+10
1.199000e+03 2.027320e+10
1.200000e+03 1.776856e+10
1.201000e+03 1.894819e+10
1.202000e+03 1.829829e+10
1.203000e+03 2.074568e+10
1.204000e+03 1.791274e+10
1.205000e+03 1.756648e+10
1.206000e+03 1.481937e+10
1.207000e+03 4.166745e+09
1.208000e+03 1.216683e+10
1.209000e+03 9.298916e+09
1.210000e+03 9.013924e+08
1.211000e+03 5.693380e+09
1.212000e+03 3.755553e+09
1.213000e+03 2.391960e+09
1.214000e+03 1.389736e+09
1.215000e+03 8.561512e+08
1.216000e+03 7.708210e+08
1.217000e+03 1.210553e+09
1.218000e+03 2.149165e+09
1.219000e+03 3.675262e+09
1.220000e+03 5.717502e+09
1.221000e+03 8.243522e+09
1.222000e+03 1.103056e+10
1.223000e+03 1.405447e+10
1.224000e+03 1.720883e+10
1.225000e+03 1.957656e+10
1.226000e+03 2.337777e+10
1.227000e+03 2.639561e+10
1.228000e+03 2.893792e+10
1.229000e+03 3.220668e+10
1.230000e+03 3.459390e+10
1.231000e+03 3.674259e+10
1.232000e+03 4.102784e+10
1.233000e+03 4.361270e+10
1.234000e+03 2.905754e+10
1.235000e+03 4.812433e+10
1.236000e+03 4.731734e+10
1.237000e+03 5.249931e+10
1.238000e+03 5.387211e+10
1.239000e+03 5.589419e+10
1.240000e+03 5.206424e+10
1.241000e+03 9.654199e+10
1.242000e+03 4.978873e+10
1.243000e+03 7.734107e+10
1.244000e+03 2.946309e+10
1.245000e+03 4.511832e+10
1.246000e+03 1.513599e+11
1.247000e+03 1.531961e+11
1.248000e+03 3.141481e+10
1.249000e+03 3.980257e+10
1.250000e+03 1.821985e+11
1.251000e+03 1.940742e+11
1.252000e+03 1.878023e+11
1.253000e+03 2.064600e+11
1.254000e+03 2.002891e+11
1.255000e+03 2.176999e+11
1.256000e+03 2.097444e+11
1.257000e+03 2.282207e+11
1.258000e+03 2.015665e+11
1.259000e+03 2.175976e+11
1.260000e+03 1.920719e+11
1.261000e+03 1.640883e+09
1.262000e+03 1.797221e+10
1.263000e+03 2.516091e+11
1.264000e+03 2.061687e+11
1.265000e+03 1.639772e+09
1.266000e+03 2.558975e+11
1.267000e+03 2.503818e+11
