# wavelength_A flux
5.000000e+02 7.146295e-02
5.010000e+02 7.870738e-02
5.020000e+02 8.665121e-02
5.030000e+02 9.535834e-02
5.040000e+02 1.048987e-01
5.050000e+02 1.175000e-01
5.060000e+02 1.291360e-01
5.070000e+02 1.418688e-01
5.080000e+02 1.557967e-01
5.090000e+02 1.710306e-01
5.100000e+02 1.876774e-01
5.110000e+02 2.058657e-01
5.120000e+02 2.257309e-01
5.130000e+02 2.474198e-01
5.140000e+02 2.710912e-01
5.150000e+02 2.969145e-01
5.160000e+02 3.250821e-01
5.170000e+02 3.557783e-01
5.180000e+02 3.892527e-01
5.190000e+02 4.257095e-01
5.200000e+02 4.654129e-01
5.210000e+02 5.086353e-01
5.220000e+02 5.556271e-01
5.230000e+02 6.068458e-01
5.240000e+02 6.624932e-01
5.250000e+02 7.230042e-01
5.260000e+02 7.887566e-01
5.270000e+02 8.601902e-01
5.280000e+02 9.377693e-01
5.290000e+02 1.021830e+00
5.300000e+02 1.113402e+00
5.310000e+02 1.212576e+00
5.320000e+02 1.320142e+00
5.330000e+02 1.436764e+00
5.340000e+02 1.563168e+00
5.350000e+02 1.700127e+00
5.360000e+02 1.848468e+00
5.370000e+02 1.989347e+00
5.380000e+02 2.182969e+00
5.390000e+02 2.371162e+00
5.400000e+02 2.574732e+00
5.410000e+02 2.794730e+00
5.420000e+02 3.032845e+00
5.430000e+02 3.290078e+00
5.440000e+02 3.567983e+00
5.450000e+02 3.868150e+00
5.460000e+02 4.191780e+00
5.470000e+02 4.542125e+00
5.480000e+02 4.919652e+00
5.490000e+02 5.326961e+00
5.500000e+02 5.766211e+00
5.510000e+02 6.239786e+00
5.520000e+02 6.750227e+00
5.530000e+02 7.300237e+00
5.540000e+02 7.892713e+00
5.550000e+02 8.530709e+00
5.560000e+02 9.217596e+00
5.570000e+02 9.956856e+00
5.580000e+02 1.075228e+01
5.590000e+02 1.160789e+01
5.600000e+02 1.252795e+01
5.610000e+02 1.351707e+01
5.620000e+02 1.458013e+01
5.630000e+02 1.572232e+01
5.640000e+02 1.694921e+01
5.650000e+02 1.826670e+01
5.660000e+02 1.968113e+01
5.670000e+02 2.119918e+01
5.680000e+02 2.282802e+01
5.690000e+02 2.457524e+01
5.700000e+02 2.644891e+01
5.710000e+02 2.845782e+01
5.720000e+02 3.061096e+01
5.730000e+02 3.291818e+01
5.740000e+02 3.538981e+01
5.750000e+02 3.803734e+01
5.760000e+02 4.086787e+01
5.770000e+02 4.390548e+01
5.780000e+02 4.715225e+01
5.790000e+02 5.062592e+01
5.800000e+02 5.434139e+01
5.810000e+02 5.831448e+01
5.820000e+02 6.256183e+01
5.830000e+02 6.710104e+01
5.840000e+02 7.193715e+01
5.850000e+02 7.713102e+01
5.860000e+02 8.266926e+01
5.870000e+02 8.857938e+01
5.880000e+02 9.488808e+01
5.890000e+02 1.016198e+02
5.900000e+02 1.088046e+02
5.910000e+02 1.164676e+02
5.920000e+02 1.246397e+02
5.930000e+02 1.333532e+02
5.940000e+02 1.426414e+02
5.950000e+02 1.525356e+02
5.960000e+02 1.630864e+02
5.970000e+02 1.743208e+02
5.980000e+02 1.862848e+02
5.990000e+02 1.990235e+02
6.000000e+02 2.125836e+02
6.010000e+02 2.270053e+02
6.020000e+02 2.423695e+02
6.030000e+02 2.587031e+02
6.040000e+02 2.760746e+02
6.050000e+02 2.945452e+02
6.060000e+02 3.141791e+02
6.070000e+02 3.350483e+02
6.080000e+02 3.572227e+02
6.090000e+02 3.807797e+02
6.100000e+02 4.057996e+02
6.110000e+02 4.323684e+02
6.120000e+02 4.605752e+02
6.130000e+02 4.905140e+02
6.140000e+02 5.222854e+02
6.150000e+02 5.559952e+02
6.160000e+02 5.917524e+02
6.170000e+02 6.296743e+02
6.180000e+02 6.698820e+02
6.190000e+02 7.125070e+02
6.200000e+02 7.576837e+02
6.210000e+02 8.055557e+02
6.220000e+02 8.562731e+02
6.230000e+02 9.099939e+02
6.240000e+02 9.668846e+02
6.250000e+02 1.027120e+03
6.260000e+02 1.090884e+03
6.270000e+02 1.158367e+03
6.280000e+02 1.229777e+03
6.290000e+02 1.305320e+03
6.300000e+02 1.385231e+03
6.310000e+02 1.469715e+03
6.320000e+02 1.559092e+03
6.330000e+02 1.653547e+03
6.340000e+02 1.753381e+03
6.350000e+02 1.858875e+03
6.360000e+02 1.968487e+03
6.370000e+02 2.088062e+03
6.380000e+02 2.212402e+03
6.390000e+02 2.343693e+03
6.400000e+02 2.482299e+03
6.410000e+02 2.628600e+03
6.420000e+02 2.782994e+03
6.430000e+02 2.945902e+03
6.440000e+02 3.117757e+03
6.450000e+02 3.299016e+03
6.460000e+02 3.490169e+03
6.470000e+02 3.691699e+03
6.480000e+02 3.904166e+03
6.490000e+02 4.128091e+03
6.500000e+02 4.364052e+03
6.510000e+02 4.612669e+03
6.520000e+02 4.874566e+03
6.530000e+02 5.150403e+03
6.540000e+02 5.440872e+03
6.550000e+02 5.746683e+03
6.560000e+02 6.068615e+03
6.570000e+02 6.407371e+03
6.580000e+02 6.764005e+03
6.590000e+02 7.139141e+03
6.600000e+02 7.533767e+03
6.610000e+02 7.948846e+03
6.620000e+02 8.385307e+03
6.630000e+02 8.844232e+03
6.640000e+02 9.326685e+03
6.650000e+02 9.833757e+03
6.660000e+02 1.036667e+04
6.670000e+02 1.092659e+04
6.680000e+02 1.151483e+04
6.690000e+02 1.213267e+04
6.700000e+02 1.278155e+04
6.710000e+02 1.346291e+04
6.720000e+02 1.417771e+04
6.730000e+02 1.492910e+04
6.740000e+02 1.571717e+04
6.750000e+02 1.654415e+04
6.760000e+02 1.741182e+04
6.770000e+02 1.832202e+04
6.780000e+02 1.927671e+04
6.790000e+02 2.027790e+04
6.800000e+02 2.132769e+04
6.810000e+02 2.242827e+04
6.820000e+02 2.358192e+04
6.830000e+02 2.479100e+04
6.840000e+02 2.605800e+04
6.850000e+02 2.738545e+04
6.860000e+02 2.877604e+04
6.870000e+02 3.023250e+04
6.880000e+02 3.175800e+04
6.890000e+02 3.335526e+04
6.900000e+02 3.502748e+04
6.910000e+02 3.677810e+04
6.920000e+02 3.861030e+04
6.930000e+02 4.052755e+04
6.940000e+02 4.253377e+04
6.950000e+02 4.463265e+04
6.960000e+02 4.682816e+04
6.970000e+02 4.912392e+04
6.980000e+02 5.152566e+04
6.990000e+02 5.403638e+04
7.000000e+02 5.666107e+04
7.010000e+02 5.940474e+04
7.020000e+02 6.227227e+04
7.030000e+02 6.526880e+04
7.040000e+02 6.839973e+04
7.050000e+02 7.167062e+04
7.060000e+02 7.508723e+04
7.070000e+02 7.865547e+04
7.080000e+02 8.238182e+04
7.090000e+02 8.627243e+04
7.100000e+02 9.033455e+04
7.110000e+02 9.457457e+04
7.120000e+02 9.899991e+04
7.130000e+02 1.036180e+05
7.140000e+02 1.084367e+05
7.150000e+02 1.134639e+05
7.160000e+02 1.187081e+05
7.170000e+02 1.241775e+05
7.180000e+02 1.298806e+05
7.190000e+02 1.358298e+05
7.200000e+02 1.420312e+05
7.210000e+02 1.484959e+05
7.220000e+02 1.552337e+05
7.230000e+02 1.622565e+05
7.240000e+02 1.695744e+05
7.250000e+02 1.771994e+05
7.260000e+02 1.851430e+05
7.270000e+02 1.934177e+05
7.280000e+02 2.020361e+05
7.290000e+02 2.110113e+05
7.300000e+02 2.203570e+05
7.310000e+02 2.300873e+05
7.320000e+02 2.402166e+05
7.330000e+02 2.507601e+05
7.340000e+02 2.617334e+05
7.350000e+02 2.731526e+05
7.360000e+02 2.850342e+05
7.370000e+02 2.973958e+05
7.380000e+02 3.102544e+05
7.390000e+02 3.236284e+05
7.400000e+02 3.375380e+05
7.410000e+02 3.520037e+05
7.420000e+02 3.670430e+05
7.430000e+02 3.826801e+05
7.440000e+02 3.989342e+05
7.450000e+02 4.158286e+05
7.460000e+02 4.333865e+05
7.470000e+02 4.516318e+05
7.480000e+02 4.705892e+05
7.490000e+02 4.902824e+05
7.500000e+02 5.107414e+05
7.510000e+02 5.319916e+05
7.520000e+02 5.540611e+05
7.530000e+02 5.769789e+05
7.540000e+02 6.007748e+05
7.550000e+02 6.254796e+05
7.560000e+02 6.511259e+05
7.570000e+02 6.777378e+05
7.580000e+02 7.053733e+05
7.590000e+02 7.340416e+05
7.600000e+02 7.637921e+05
7.610000e+02 7.946576e+05
7.620000e+02 8.266772e+05
7.630000e+02 8.598904e+05
7.640000e+02 8.943382e+05
7.650000e+02 9.300626e+05
7.660000e+02 9.671074e+05
7.670000e+02 1.005517e+06
7.680000e+02 1.045334e+06
7.690000e+02 1.086615e+06
7.700000e+02 1.129401e+06
7.710000e+02 1.173744e+06
7.720000e+02 1.219696e+06
7.730000e+02 1.267308e+06
7.740000e+02 1.316636e+06
7.750000e+02 1.367742e+06
7.760000e+02 1.420622e+06
7.770000e+02 1.475514e+06
7.780000e+02 1.532302e+06
7.790000e+02 1.591107e+06
7.800000e+02 1.651997e+06
7.810000e+02 1.715038e+06
7.820000e+02 1.780300e+06
7.830000e+02 1.847852e+06
7.840000e+02 1.917775e+06
7.850000e+02 1.990129e+06
7.860000e+02 2.065009e+06
7.870000e+02 2.142493e+06
7.880000e+02 2.222656e+06
7.890000e+02 2.305584e+06
7.900000e+02 2.391366e+06
7.910000e+02 2.480092e+06
7.920000e+02 2.571852e+06
7.930000e+02 2.666740e+06
7.940000e+02 2.764858e+06
7.950000e+02 2.866302e+06
7.960000e+02 2.971178e+06
7.970000e+02 3.079588e+06
7.980000e+02 3.191644e+06
7.990000e+02 3.307440e+06
8.000000e+02 3.427122e+06
8.010000e+02 3.550788e+06
8.020000e+02 3.678571e+06
8.030000e+02 3.810584e+06
8.040000e+02 3.946959e+06
8.050000e+02 4.087817e+06
8.060000e+02 4.233310e+06
8.070000e+02 4.383570e+06
8.080000e+02 4.538737e+06
8.090000e+02 4.698958e+06
8.100000e+02 4.864381e+06
8.110000e+02 5.035160e+06
8.120000e+02 5.211454e+06
8.130000e+02 5.393409e+06
8.140000e+02 5.581220e+06
8.150000e+02 5.775034e+06
8.160000e+02 5.975052e+06
8.170000e+02 6.181428e+06
8.180000e+02 6.394355e+06
8.190000e+02 6.614020e+06
8.200000e+02 6.840619e+06
8.210000e+02 7.074348e+06
8.220000e+02 7.315380e+06
8.230000e+02 7.563984e+06
8.240000e+02 7.820352e+06
8.250000e+02 8.084696e+06
8.260000e+02 8.357240e+06
8.270000e+02 8.638218e+06
8.280000e+02 8.927828e+06
8.290000e+02 9.226386e+06
8.300000e+02 9.534106e+06
8.310000e+02 9.851241e+06
8.320000e+02 1.017805e+07
8.330000e+02 1.051481e+07
8.340000e+02 1.086178e+07
8.350000e+02 1.121869e+07
8.360000e+02 1.158745e+07
8.370000e+02 1.196681e+07
8.380000e+02 1.235749e+07
8.390000e+02 1.275993e+07
8.400000e+02 1.317434e+07
8.410000e+02 1.360109e+07
8.420000e+02 1.404035e+07
8.430000e+02 1.449290e+07
8.440000e+02 1.495859e+07
8.450000e+02 1.543805e+07
8.460000e+02 1.593158e+07
8.470000e+02 1.643956e+07
8.480000e+02 1.696236e+07
8.490000e+02 1.750038e+07
8.500000e+02 1.805401e+07
8.510000e+02 1.862367e+07
8.520000e+02 1.920976e+07
8.530000e+02 1.981273e+07
8.540000e+02 2.043308e+07
8.550000e+02 2.107112e+07
8.560000e+02 2.172738e+07
8.570000e+02 2.240232e+07
8.580000e+02 2.309643e+07
8.590000e+02 2.381020e+07
8.600000e+02 2.454412e+07
8.610000e+02 2.529871e+07
8.620000e+02 2.607450e+07
8.630000e+02 2.687200e+07
8.640000e+02 2.769175e+07
8.650000e+02 2.853428e+07
8.660000e+02 2.940036e+07
8.670000e+02 3.029040e+07
8.680000e+02 3.120490e+07
8.690000e+02 3.214474e+07
8.700000e+02 3.311038e+07
8.710000e+02 3.410257e+07
8.720000e+02 3.512184e+07
8.730000e+02 3.616890e+07
8.740000e+02 3.724444e+07
8.750000e+02 3.834914e+07
8.760000e+02 3.948373e+07
8.770000e+02 4.064885e+07
8.780000e+02 4.184544e+07
8.790000e+02 4.307408e+07
8.800000e+02 4.433558e+07
8.810000e+02 4.563076e+07
8.820000e+02 4.696040e+07
8.830000e+02 4.832535e+07
8.840000e+02 4.972642e+07
8.850000e+02 5.116450e+07
8.860000e+02 5.264044e+07
8.870000e+02 5.415515e+07
8.880000e+02 5.570954e+07
8.890000e+02 5.730454e+07
8.900000e+02 5.894109e+07
8.910000e+02 6.062002e+07
8.920000e+02 6.230094e+07
8.930000e+02 6.410956e+07
8.940000e+02 6.592225e+07
8.950000e+02 6.778148e+07
8.960000e+02 6.968854e+07
8.970000e+02 7.164431e+07
8.980000e+02 7.364998e+07
8.990000e+02 7.570669e+07
9.000000e+02 7.781558e+07
9.010000e+02 7.997787e+07
9.020000e+02 8.219474e+07
9.030000e+02 8.446743e+07
9.040000e+02 8.679630e+07
9.050000e+02 8.918485e+07
9.060000e+02 9.163270e+07
9.070000e+02 9.414066e+07
9.080000e+02 9.671265e+07
9.090000e+02 9.934754e+07
9.100000e+02 1.020476e+08
9.110000e+02 1.048144e+08
9.120000e+02 1.076503e+08
9.130000e+02 1.099641e+08
9.140000e+02 1.139180e+08
9.150000e+02 1.640360e+08
9.160000e+02 2.882507e+08
9.170000e+02 3.091770e+08
9.180000e+02 2.543358e+08
9.190000e+02 5.554372e+08
9.200000e+02 8.647423e+08
9.210000e+02 1.348367e+08
9.220000e+02 1.159505e+09
9.230000e+02 3.178314e+08
9.240000e+02 1.089310e+09
9.250000e+02 1.424466e+09
9.260000e+02 4.645169e+08
9.270000e+02 1.258722e+09
9.280000e+02 1.751813e+09
9.290000e+02 1.557031e+09
9.300000e+02 1.308174e+09
9.310000e+02 5.676952e+08
9.320000e+02 1.775289e+09
9.330000e+02 2.069633e+09
9.340000e+02 2.175468e+09
9.350000e+02 6.681464e+08
9.360000e+02 2.125369e+09
9.370000e+02 4.630207e+08
9.380000e+02 5.064833e+08
9.390000e+02 2.015775e+09
9.400000e+02 2.401055e+09
9.410000e+02 1.228711e+09
9.420000e+02 2.624420e+09
9.430000e+02 2.688603e+09
9.440000e+02 1.673078e+09
9.450000e+02 2.790713e+09
9.460000e+02 2.824592e+09
9.470000e+02 2.267164e+09
9.480000e+02 2.384584e+09
9.490000e+02 1.914956e+09
9.500000e+02 5.562218e+08
9.510000e+02 2.503932e+09
9.520000e+02 3.045439e+09
9.530000e+02 3.199724e+09
9.540000e+02 2.811559e+09
9.550000e+02 3.403735e+09
9.560000e+02 2.904208e+09
9.570000e+02 2.640402e+09
9.580000e+02 3.610180e+09
9.590000e+02 3.701818e+09
9.600000e+02 7.851136e+08
9.610000e+02 3.842481e+09
9.620000e+02 3.898441e+09
9.630000e+02 3.994155e+09
9.640000e+02 4.111872e+08
9.650000e+02 3.828129e+09
9.660000e+02 4.210705e+09
9.670000e+02 4.256092e+09
9.680000e+02 4.297158e+09
9.690000e+02 4.348064e+09
9.700000e+02 4.324200e+09
9.710000e+02 4.007221e+09
9.720000e+02 2.331089e+09
9.730000e+02 2.129092e+09
9.740000e+02 4.168817e+09
9.750000e+02 4.727088e+09
9.760000e+02 4.961361e+09
9.770000e+02 5.105862e+09
9.780000e+02 5.218605e+09
9.790000e+02 5.337653e+09
9.800000e+02 5.442310e+09
9.810000e+02 5.547583e+09
9.820000e+02 5.603834e+09
9.830000e+02 5.751307e+09
9.840000e+02 2.437840e+09
9.850000e+02 5.965408e+09
9.860000e+02 6.071843e+09
9.870000e+02 6.172324e+09
9.880000e+02 6.227932e+09
9.890000e+02 4.596646e+09
9.900000e+02 8.855368e+08
9.910000e+02 6.576139e+09
9.920000e+02 6.043006e+09
9.930000e+02 6.512038e+09
9.940000e+02 1.103869e+09
9.950000e+02 1.944678e+09
9.960000e+02 1.965488e+09
9.970000e+02 1.613184e+09
9.980000e+02 7.470769e+09
9.990000e+02 7.401938e+09
1.000000e+03 7.736335e+09
1.001000e+03 7.882230e+09
1.002000e+03 8.011689e+09
1.003000e+03 7.066454e+09
1.004000e+03 8.292853e+09
1.005000e+03 7.319867e+09
1.006000e+03 8.576866e+09
1.007000e+03 8.697762e+09
1.008000e+03 8.856673e+09
1.009000e+03 8.641187e+09
1.010000e+03 9.166026e+09
1.011000e+03 9.318553e+09
1.012000e+03 9.467384e+09
1.013000e+03 9.625904e+09
1.014000e+03 9.785119e+09
1.015000e+03 9.780930e+09
1.016000e+03 1.008194e+10
1.017000e+03 1.025430e+10
1.018000e+03 1.040147e+10
1.019000e+03 1.055228e+10
1.020000e+03 1.067875e+10
1.021000e+03 6.907549e+09
1.022000e+03 1.019597e+10
1.023000e+03 1.066048e+10
1.024000e+03 9.548278e+09
1.025000e+03 6.250917e+09
1.026000e+03 3.049544e+09
1.027000e+03 9.054312e+09
1.028000e+03 3.316024e+09
1.029000e+03 1.203469e+10
1.030000e+03 1.224276e+10
1.031000e+03 1.280230e+10
1.032000e+03 1.288938e+10
1.033000e+03 6.698077e+09
1.034000e+03 1.357742e+10
1.035000e+03 3.014100e+09
1.036000e+03 1.338269e+10
1.037000e+03 2.118446e+09
1.038000e+03 1.451750e+10
1.039000e+03 1.454477e+10
1.040000e+03 1.499423e+10
1.041000e+03 1.511468e+10
1.042000e+03 1.479585e+10
1.043000e+03 1.531093e+10
1.044000e+03 1.585099e+10
1.045000e+03 1.619696e+10
1.046000e+03 1.648401e+10
1.047000e+03 1.671490e+10
1.048000e+03 1.671728e+10
1.049000e+03 1.687684e+10
1.050000e+03 1.755198e+10
1.051000e+03 1.782768e+10
1.052000e+03 1.810390e+10
1.053000e+03 1.781233e+10
1.054000e+03 1.862686e+10
1.055000e+03 1.881546e+10
1.056000e+03 1.924943e+10
1.057000e+03 1.952335e+10
1.058000e+03 1.981862e+10
1.059000e+03 2.013936e+10
1.060000e+03 2.045180e+10
1.061000e+03 2.076544e+10
1.062000e+03 2.108015e+10
1.063000e+03 8.658664e+09
1.064000e+03 4.527908e+09
1.065000e+03 2.241648e+10
1.066000e+03 1.902441e+10
1.067000e+03 2.129688e+10
1.068000e+03 2.346421e+10
1.069000e+03 2.370231e+10
1.070000e+03 2.333588e+10
1.071000e+03 2.455186e+10
1.072000e+03 2.490962e+10
1.073000e+03 2.528646e+10
1.074000e+03 2.565385e+10
1.075000e+03 2.601200e+10
1.076000e+03 2.641424e+10
1.077000e+03 2.658049e+10
1.078000e+03 2.716400e+10
1.079000e+03 2.744439e+10
1.080000e+03 2.794073e+10
1.081000e+03 2.840493e+10
1.082000e+03 2.881005e+10
1.083000e+03 2.912356e+10
1.084000e+03 2.804755e+10
1.085000e+03 2.342013e+10
1.086000e+03 3.052116e+10
1.087000e+03 3.093216e+10
1.088000e+03 3.131519e+10
1.089000e+03 3.181488e+10
1.090000e+03 3.219257e+10
1.091000e+03 3.272772e+10
1.092000e+03 3.321451e+10
1.093000e+03 3.366310e+10
1.094000e+03 3.416295e+10
1.095000e+03 3.457475e+10
1.096000e+03 3.507205e+10
1.097000e+03 3.533848e+10
1.098000e+03 3.494131e+10
1.099000e+03 3.652969e+10
1.100000e+03 3.662081e+10
1.101000e+03 3.471575e+10
1.102000e+03 6.812280e+10
1.103000e+03 1.594975e+11
1.104000e+03 8.286089e+10
1.105000e+03 3.666647e+10
1.106000e+03 2.857830e+11
1.107000e+03 2.858713e+11
1.108000e+03 2.916000e+11
1.109000e+03 1.869839e+11
1.110000e+03 6.791591e+10
1.111000e+03 7.433983e+10
1.112000e+03 2.676479e+11
1.113000e+03 3.091100e+11
1.114000e+03 2.849310e+10
1.115000e+03 3.083904e+11
1.116000e+03 3.165815e+11
1.117000e+03 3.245313e+10
1.118000e+03 2.631054e+11
1.119000e+03 3.260052e+11
1.120000e+03 3.303497e+11
1.121000e+03 2.787764e+11
1.122000e+03 9.983574e+09
1.123000e+03 5.386460e+10
1.124000e+03 3.421519e+11
1.125000e+03 1.659774e+11
1.126000e+03 3.510600e+11
1.127000e+03 3.450661e+11
1.128000e+03 1.546970e+11
1.129000e+03 3.546536e+11
1.130000e+03 2.900446e+11
1.131000e+03 3.715727e+11
1.132000e+03 2.897655e+10
1.133000e+03 3.315074e+11
1.134000e+03 3.758312e+11
1.135000e+03 1.489125e+10
1.136000e+03 3.817197e+11
1.137000e+03 3.956916e+11
1.138000e+03 4.009903e+11
1.139000e+03 3.948902e+11
1.140000e+03 1.725976e+10
1.141000e+03 4.134195e+11
1.142000e+03 3.871864e+11
1.143000e+03 4.202473e+11
1.144000e+03 4.260060e+11
1.145000e+03 3.868334e+11
1.146000e+03 4.330097e+11
1.147000e+03 4.354612e+11
1.148000e+03 4.408811e+11
1.149000e+03 4.479967e+11
1.150000e+03 4.378907e+11
1.151000e+03 4.551869e+11
1.152000e+03 4.553587e+11
1.153000e+03 1.435673e+11
1.154000e+03 4.745763e+10
1.155000e+03 3.928425e+11
1.156000e+03 1.454316e+11
1.157000e+03 4.829852e+11
1.158000e+03 2.276582e+10
1.159000e+03 4.118025e+11
1.160000e+03 4.730593e+11
1.161000e+03 5.048884e+11
1.162000e+03 1.201229e+11
1.163000e+03 4.958465e+11
1.164000e+03 3.392350e+10
1.165000e+03 5.246462e+11
1.166000e+03 5.215490e+11
1.167000e+03 4.994828e+11
1.168000e+03 5.409681e+11
1.169000e+03 5.337699e+11
1.170000e+03 5.530580e+11
1.171000e+03 5.585827e+11
1.172000e+03 5.392184e+11
1.173000e+03 5.666219e+11
1.174000e+03 5.532826e+11
1.175000e+03 3.653835e+10
1.176000e+03 2.947609e+10
1.177000e+03 5.818687e+11
1.178000e+03 5.305866e+11
1.179000e+03 5.992670e+11
1.180000e+03 4.477951e+11
1.181000e+03 6.015220e+11
1.182000e+03 6.171787e+11
1.183000e+03 6.216592e+11
1.184000e+03 6.267081e+11
1.185000e+03 5.992434e+11
1.186000e+03 6.344740e+11
1.187000e+03 6.382440e+11
1.188000e+03 6.138163e+11
1.189000e+03 3.387054e+10
1.190000e+03 1.252066e+11
1.191000e+03 6.365697e+11
1.192000e+03 6.410345e+11
1.193000e+03 2.940453e+10
1.194000e+03 3.832958e+10
1.195000e+03 4.127689e+11
1.196000e+03 6.402205e+11
1.197000e+03 7.254656e+11
1.198000e+03 7.292180e+11
1.199000e+03 7.159556e+11
1.200000e+03 6.719550e+11
1.201000e+03 6.814585e+11
1.202000e+03 6.702539e+11
1.203000e+03 7.017889e+11
1.204000e+03 6.563695e+11
1.205000e+03 6.251598e+11
1.206000e+03 5.051544e+11
1.207000e+03 2.234126e+11
1.208000e+03 4.751929e+11
1.209000e+03 3.813443e+11
1.210000e+03 5.075763e+10
1.211000e+03 2.642186e+11
1.212000e+03 1.880434e+11
1.213000e+03 1.276206e+11
1.214000e+03 7.729711e+10
1.215000e+03 4.719393e+10
1.216000e+03 4.201796e+10
1.217000e+03 6.689995e+10
1.218000e+03 1.151096e+11
1.219000e+03 1.837238e+11
1.220000e+03 2.658048e+11
1.221000e+03 3.543268e+11
1.222000e+03 4.456451e+11
1.223000e+03 5.354109e+11
1.224000e+03 6.219352e+11
1.225000e+03 7.033658e+11
1.226000e+03 7.746261e+11
1.227000e+03 8.498903e+11
1.228000e+03 9.262315e+11
1.229000e+03 9.824362e+11
1.230000e+03 1.045981e+12
1.231000e+03 1.108112e+12
1.232000e+03 1.163552e+12
1.233000e+03 1.214968e+12
1.234000e+03 9.878076e+11
1.235000e+03 1.304284e+12
1.236000e+03 1.352639e+12
1.237000e+03 1.391157e+12
1.238000e+03 1.433562e+12
1.239000e+03 1.472249e+12
1.240000e+03 1.393340e+12
1.241000e+03 2.103071e+12
1.242000e+03 1.380175e+12
1.243000e+03 1.815673e+12
1.244000e+03 9.134620e+11
1.245000e+03 1.276171e+12
1.246000e+03 2.668551e+12
1.247000e+03 2.749614e+12
1.248000e+03 9.559583e+11
1.249000e+03 1.147686e+12
1.250000e+03 2.993678e+12
1.251000e+03 3.080257e+12
1.252000e+03 3.080448e+12
1.253000e+03 3.263517e+12
1.254000e+03 3.328662e+12
1.255000e+03 3.360982e+12
1.256000e+03 3.359769e+12
1.257000e+03 3.534549e+12
1.258000e+03 3.584620e+12
1.259000e+03 3.583380e+12
1.260000e+03 3.383740e+12
1.261000e+03 7.826109e+10
1.262000e+03 5.866898e+11
1.263000e+03 3.870116e+12
1.264000e+03 3.790122e+12
1.265000e+03 7.647317e+10
1.266000e+03 4.079469e+12
1.267000e+03 4.204124e+12
