# wavelength_A flux
5.000000e+02 6.436307e-21
5.010000e+02 7.749833e-21
5.020000e+02 9.324381e-21
5.030000e+02 1.121041e-20
5.040000e+02 1.346783e-20
5.050000e+02 1.372945e-20
5.060000e+02 1.647489e-20
5.070000e+02 1.975486e-20
5.080000e+02 2.367059e-20
5.090000e+02 2.834195e-20
5.100000e+02 3.391081e-20
5.110000e+02 4.054479e-20
5.120000e+02 4.844214e-20
5.130000e+02 5.783682e-20
5.140000e+02 6.900493e-20
5.150000e+02 8.227696e-20
5.160000e+02 9.802170e-20
5.170000e+02 1.167361e-19
5.180000e+02 1.388557e-19
5.190000e+02 1.650968e-19
5.200000e+02 1.961640e-19
5.210000e+02 2.329227e-19
5.220000e+02 2.765677e-19
5.230000e+02 3.277347e-19
5.240000e+02 3.883560e-19
5.250000e+02 4.598814e-19
5.260000e+02 5.442372e-19
5.270000e+02 6.436466e-19
5.280000e+02 7.607199e-19
5.290000e+02 9.000011e-19
5.300000e+02 1.060571e-18
5.310000e+02 1.251068e-18
5.320000e+02 1.474844e-18
5.330000e+02 1.737550e-18
5.340000e+02 2.045769e-18
5.350000e+02 2.407175e-18
5.360000e+02 2.830790e-18
5.370000e+02 3.631641e-18
5.380000e+02 3.907601e-18
5.390000e+02 4.585765e-18
5.400000e+02 5.379218e-18
5.410000e+02 6.310665e-18
5.420000e+02 7.389113e-18
5.430000e+02 8.651365e-18
5.440000e+02 1.012408e-17
5.450000e+02 1.184050e-17
5.460000e+02 1.385937e-17
5.470000e+02 1.616718e-17
5.480000e+02 1.887507e-17
5.490000e+02 2.202360e-17
5.500000e+02 2.568266e-17
5.510000e+02 2.993250e-17
5.520000e+02 3.486574e-17
5.530000e+02 4.058906e-17
5.540000e+02 4.722528e-17
5.550000e+02 5.491574e-17
5.560000e+02 6.382301e-17
5.570000e+02 7.413394e-17
5.580000e+02 8.606322e-17
5.590000e+02 9.985734e-17
5.600000e+02 1.157992e-16
5.610000e+02 1.342133e-16
5.620000e+02 1.554717e-16
5.630000e+02 1.800007e-16
5.640000e+02 2.082884e-16
5.650000e+02 2.408944e-16
5.660000e+02 2.784559e-16
5.670000e+02 3.217060e-16
5.680000e+02 3.714795e-16
5.690000e+02 4.287309e-16
5.700000e+02 4.945510e-16
5.710000e+02 5.701800e-16
5.720000e+02 6.570395e-16
5.730000e+02 7.567457e-16
5.740000e+02 8.711410e-16
5.750000e+02 1.002203e-15
5.760000e+02 1.153086e-15
5.770000e+02 1.324780e-15
5.780000e+02 1.522000e-15
5.790000e+02 1.747719e-15
5.800000e+02 2.005931e-15
5.810000e+02 2.301180e-15
5.820000e+02 2.638643e-15
5.830000e+02 3.024364e-15
5.840000e+02 3.472296e-15
5.850000e+02 3.968469e-15
5.860000e+02 4.539283e-15
5.870000e+02 5.192079e-15
5.880000e+02 5.936197e-15
5.890000e+02 6.784221e-15
5.900000e+02 7.748950e-15
5.910000e+02 8.847257e-15
5.920000e+02 1.009658e-14
5.930000e+02 1.151702e-14
5.940000e+02 1.313130e-14
5.950000e+02 1.496504e-14
5.960000e+02 1.704714e-14
5.970000e+02 1.941017e-14
5.980000e+02 2.209086e-14
5.990000e+02 2.513056e-14
6.000000e+02 2.857583e-14
6.010000e+02 3.248010e-14
6.020000e+02 3.689930e-14
6.030000e+02 4.190274e-14
6.040000e+02 4.756394e-14
6.050000e+02 5.396662e-14
6.060000e+02 6.120536e-14
6.070000e+02 6.938405e-14
6.080000e+02 7.862281e-14
6.090000e+02 8.905394e-14
6.100000e+02 1.008265e-13
6.110000e+02 1.141072e-13
6.120000e+02 1.290832e-13
6.130000e+02 1.459641e-13
6.140000e+02 1.649843e-13
6.150000e+02 1.864060e-13
6.160000e+02 2.105228e-13
6.170000e+02 2.376627e-13
6.180000e+02 2.681925e-13
6.190000e+02 3.025220e-13
6.200000e+02 3.411080e-13
6.210000e+02 3.844619e-13
6.220000e+02 4.331533e-13
6.230000e+02 4.878180e-13
6.240000e+02 5.491647e-13
6.250000e+02 6.179836e-13
6.260000e+02 6.951548e-13
6.270000e+02 7.816590e-13
6.280000e+02 8.785869e-13
6.290000e+02 9.871539e-13
6.300000e+02 1.108712e-12
6.310000e+02 1.251596e-12
6.320000e+02 1.396978e-12
6.330000e+02 1.567307e-12
6.340000e+02 1.757534e-12
6.350000e+02 1.970500e-12
6.360000e+02 2.207845e-12
6.370000e+02 2.473189e-12
6.380000e+02 2.769407e-12
6.390000e+02 3.099964e-12
6.400000e+02 3.468708e-12
6.410000e+02 3.879902e-12
6.420000e+02 4.338268e-12
6.430000e+02 4.849036e-12
6.440000e+02 5.417994e-12
6.450000e+02 6.051556e-12
6.460000e+02 6.756782e-12
6.470000e+02 7.541539e-12
6.480000e+02 8.414461e-12
6.490000e+02 9.385138e-12
6.500000e+02 1.046420e-11
6.510000e+02 1.166313e-11
6.520000e+02 1.299501e-11
6.530000e+02 1.447401e-11
6.540000e+02 1.611583e-11
6.550000e+02 1.793770e-11
6.560000e+02 1.995879e-11
6.570000e+02 2.220291e-11
6.580000e+02 2.468479e-11
6.590000e+02 2.743837e-11
6.600000e+02 3.048903e-11
6.610000e+02 3.386745e-11
6.620000e+02 3.760789e-11
6.630000e+02 4.174771e-11
6.640000e+02 4.632805e-11
6.650000e+02 5.139444e-11
6.660000e+02 5.699576e-11
6.670000e+02 6.318746e-11
6.680000e+02 7.002924e-11
6.690000e+02 7.758699e-11
6.700000e+02 8.593301e-11
6.710000e+02 9.514661e-11
6.720000e+02 1.053148e-10
6.730000e+02 1.165330e-10
6.740000e+02 1.289058e-10
6.750000e+02 1.425479e-10
6.760000e+02 1.575847e-10
6.770000e+02 1.741540e-10
6.780000e+02 1.924062e-10
6.790000e+02 2.125063e-10
6.800000e+02 2.346347e-10
6.810000e+02 2.589887e-10
6.820000e+02 2.857842e-10
6.830000e+02 3.152568e-10
6.840000e+02 3.476651e-10
6.850000e+02 3.832911e-10
6.860000e+02 4.224416e-10
6.870000e+02 4.654539e-10
6.880000e+02 5.126947e-10
6.890000e+02 5.645647e-10
6.900000e+02 6.215010e-10
6.910000e+02 6.839805e-10
6.920000e+02 7.525237e-10
6.930000e+02 8.276973e-10
6.940000e+02 9.101195e-10
6.950000e+02 1.000464e-09
6.960000e+02 1.099464e-09
6.970000e+02 1.208086e-09
6.980000e+02 1.326697e-09
6.990000e+02 1.456747e-09
7.000000e+02 1.599099e-09
7.010000e+02 1.754873e-09
7.020000e+02 1.925288e-09
7.030000e+02 2.111670e-09
7.040000e+02 2.315460e-09
7.050000e+02 2.538222e-09
7.060000e+02 2.781659e-09
7.070000e+02 3.047616e-09
7.080000e+02 3.338101e-09
7.090000e+02 3.655307e-09
7.100000e+02 4.001550e-09
7.110000e+02 4.379443e-09
7.120000e+02 4.791750e-09
7.130000e+02 5.241489e-09
7.140000e+02 5.731931e-09
7.150000e+02 6.266622e-09
7.160000e+02 6.849403e-09
7.170000e+02 7.484586e-09
7.180000e+02 8.177065e-09
7.190000e+02 8.929660e-09
7.200000e+02 9.750011e-09
7.210000e+02 1.064301e-08
7.220000e+02 1.161485e-08
7.230000e+02 1.267220e-08
7.240000e+02 1.382233e-08
7.250000e+02 1.507306e-08
7.260000e+02 1.643285e-08
7.270000e+02 1.791085e-08
7.280000e+02 1.951693e-08
7.290000e+02 2.126179e-08
7.300000e+02 2.315694e-08
7.310000e+02 2.521483e-08
7.320000e+02 2.744890e-08
7.330000e+02 2.987366e-08
7.340000e+02 3.250474e-08
7.350000e+02 3.535903e-08
7.360000e+02 3.845502e-08
7.370000e+02 4.181145e-08
7.380000e+02 4.545036e-08
7.390000e+02 4.939426e-08
7.400000e+02 5.366806e-08
7.410000e+02 5.829718e-08
7.420000e+02 6.331147e-08
7.430000e+02 6.874035e-08
7.440000e+02 7.461777e-08
7.450000e+02 8.097899e-08
7.460000e+02 8.786224e-08
7.470000e+02 9.530871e-08
7.480000e+02 1.033626e-07
7.490000e+02 1.120717e-07
7.500000e+02 1.214869e-07
7.510000e+02 1.316634e-07
7.520000e+02 1.426602e-07
7.530000e+02 1.545410e-07
7.540000e+02 1.673737e-07
7.550000e+02 1.812319e-07
7.560000e+02 1.961940e-07
7.570000e+02 2.123517e-07
7.580000e+02 2.297741e-07
7.590000e+02 2.485854e-07
7.600000e+02 2.688666e-07
7.610000e+02 2.907442e-07
7.620000e+02 3.143346e-07
7.630000e+02 3.397669e-07
7.640000e+02 3.671782e-07
7.650000e+02 3.967170e-07
7.660000e+02 4.285392e-07
7.670000e+02 4.628171e-07
7.680000e+02 4.997526e-07
7.690000e+02 5.395289e-07
7.700000e+02 5.822578e-07
7.710000e+02 6.283034e-07
7.720000e+02 6.778487e-07
7.730000e+02 7.311511e-07
7.740000e+02 7.884823e-07
7.750000e+02 8.501345e-07
7.760000e+02 9.166325e-07
7.770000e+02 9.876726e-07
7.780000e+02 1.064247e-06
7.790000e+02 1.146529e-06
7.800000e+02 1.234923e-06
7.810000e+02 1.329865e-06
7.820000e+02 1.431821e-06
7.830000e+02 1.541286e-06
7.840000e+02 1.658792e-06
7.850000e+02 1.784903e-06
7.860000e+02 1.920227e-06
7.870000e+02 2.065354e-06
7.880000e+02 2.221070e-06
7.890000e+02 2.388061e-06
7.900000e+02 2.567110e-06
7.910000e+02 2.759052e-06
7.920000e+02 2.964775e-06
7.930000e+02 3.185228e-06
7.940000e+02 3.421420e-06
7.950000e+02 3.674429e-06
7.960000e+02 3.945401e-06
7.970000e+02 4.235556e-06
7.980000e+02 4.546197e-06
7.990000e+02 4.878707e-06
8.000000e+02 5.234561e-06
8.010000e+02 5.615338e-06
8.020000e+02 6.022678e-06
8.030000e+02 6.458388e-06
8.040000e+02 6.924348e-06
8.050000e+02 7.422568e-06
8.060000e+02 7.955185e-06
8.070000e+02 8.524473e-06
8.080000e+02 9.132849e-06
8.090000e+02 9.782882e-06
8.100000e+02 1.047730e-05
8.110000e+02 1.121900e-05
8.120000e+02 1.201107e-05
8.130000e+02 1.285678e-05
8.140000e+02 1.375960e-05
8.150000e+02 1.472328e-05
8.160000e+02 1.575156e-05
8.170000e+02 1.684879e-05
8.180000e+02 1.801930e-05
8.190000e+02 1.926778e-05
8.200000e+02 2.059921e-05
8.210000e+02 2.201885e-05
8.220000e+02 2.353228e-05
8.230000e+02 2.514544e-05
8.240000e+02 2.686460e-05
8.250000e+02 2.869641e-05
8.260000e+02 3.064796e-05
8.270000e+02 3.272672e-05
8.280000e+02 3.494060e-05
8.290000e+02 3.729800e-05
8.300000e+02 3.980783e-05
8.310000e+02 4.247949e-05
8.320000e+02 4.532295e-05
8.330000e+02 4.834878e-05
8.340000e+02 5.156815e-05
8.350000e+02 5.504386e-05
8.360000e+02 5.863901e-05
8.370000e+02 6.250924e-05
8.380000e+02 6.662829e-05
8.390000e+02 7.100695e-05
8.400000e+02 7.566140e-05
8.410000e+02 8.060804e-05
8.420000e+02 8.588028e-05
8.430000e+02 9.144895e-05
8.440000e+02 9.738131e-05
8.450000e+02 1.036821e-04
8.460000e+02 1.103733e-04
8.470000e+02 1.174779e-04
8.480000e+02 1.250203e-04
8.490000e+02 1.330262e-04
8.500000e+02 1.415229e-04
8.510000e+02 1.505390e-04
8.520000e+02 1.601058e-04
8.530000e+02 1.702525e-04
8.540000e+02 1.810095e-04
8.550000e+02 1.924235e-04
8.560000e+02 2.045261e-04
8.570000e+02 2.173571e-04
8.580000e+02 2.309904e-04
8.590000e+02 2.453737e-04
8.600000e+02 2.606500e-04
8.610000e+02 2.768406e-04
8.620000e+02 2.939835e-04
8.630000e+02 3.121476e-04
8.640000e+02 3.313838e-04
8.650000e+02 3.517558e-04
8.660000e+02 3.733226e-04
8.670000e+02 3.961555e-04
8.680000e+02 4.203238e-04
8.690000e+02 4.459019e-04
8.700000e+02 4.729781e-04
8.710000e+02 5.016054e-04
8.720000e+02 5.319003e-04
8.730000e+02 5.639442e-04
8.740000e+02 5.978335e-04
8.750000e+02 6.336696e-04
8.760000e+02 6.715587e-04
8.770000e+02 7.116171e-04
8.780000e+02 7.539511e-04
8.790000e+02 7.986957e-04
8.800000e+02 8.459782e-04
8.810000e+02 8.959352e-04
8.820000e+02 9.487109e-04
8.830000e+02 1.004457e-03
8.840000e+02 1.063333e-03
8.850000e+02 1.125505e-03
8.860000e+02 1.191150e-03
8.870000e+02 1.260452e-03
8.880000e+02 1.333606e-03
8.890000e+02 1.410814e-03
8.900000e+02 1.492291e-03
8.910000e+02 1.578262e-03
8.920000e+02 1.684398e-03
8.930000e+02 1.764641e-03
8.940000e+02 1.865557e-03
8.950000e+02 1.971983e-03
8.960000e+02 2.084204e-03
8.970000e+02 2.202523e-03
8.980000e+02 2.327255e-03
8.990000e+02 2.458728e-03
9.000000e+02 2.597291e-03
9.010000e+02 2.743307e-03
9.020000e+02 2.897158e-03
9.030000e+02 3.059251e-03
9.040000e+02 3.229982e-03
9.050000e+02 3.409815e-03
9.060000e+02 3.599196e-03
9.070000e+02 3.798783e-03
9.080000e+02 4.008579e-03
9.090000e+02 4.229613e-03
9.100000e+02 4.462274e-03
9.110000e+02 4.707061e-03
9.120000e+02 4.963984e-03
9.130000e+02 5.661655e-03
9.140000e+02 3.891826e-03
9.150000e+02 3.842822e+00
9.160000e+02 1.399238e+01
9.170000e+02 2.931482e+00
9.180000e+02 1.122122e+01
9.190000e+02 2.622010e+01
9.200000e+02 3.083208e+01
9.210000e+02 8.630172e-03
9.220000e+02 2.809980e+01
9.230000e+02 4.404890e+00
9.240000e+02 5.575857e+00
9.250000e+02 1.597828e+01
9.260000e+02 2.588084e+01
9.270000e+02 3.414210e+00
9.280000e+02 4.333573e+01
9.290000e+02 3.872917e+01
9.300000e+02 4.482661e+01
9.310000e+02 3.658049e+00
9.320000e+02 5.059163e+01
9.330000e+02 3.560284e+01
9.340000e+02 2.353946e+01
9.350000e+02 7.777166e-02
9.360000e+02 5.170706e+00
9.370000e+02 3.913093e-02
9.380000e+02 5.738886e+00
9.390000e+02 9.433901e+00
9.400000e+02 6.650590e+01
9.410000e+02 2.831280e+00
9.420000e+02 7.243043e+01
9.430000e+02 1.366552e+01
9.440000e+02 5.708409e+01
9.450000e+02 8.047684e+01
9.460000e+02 6.482046e+01
9.470000e+02 1.053524e+00
9.480000e+02 7.284209e+01
9.490000e+02 8.519865e+01
9.500000e+02 1.933746e-01
9.510000e+02 6.571527e+01
9.520000e+02 7.966148e+01
9.530000e+02 2.615070e+00
9.540000e+02 1.071735e+00
9.550000e+02 3.604373e+01
9.560000e+02 1.085348e+02
9.570000e+02 5.168266e+00
9.580000e+02 3.194771e-01
9.590000e+02 1.313347e+02
9.600000e+02 1.152802e-01
9.610000e+02 9.411875e+01
9.620000e+02 5.803574e+01
9.630000e+02 3.812459e+01
9.640000e+02 4.397583e-02
9.650000e+02 2.311050e+00
9.660000e+02 4.137390e+01
9.670000e+02 9.542786e+00
9.680000e+02 4.490555e+00
9.690000e+02 1.005196e+02
9.700000e+02 8.943556e+01
9.710000e+02 9.986746e+00
9.720000e+02 1.249583e+01
9.730000e+02 1.229059e+02
9.740000e+02 1.187964e+02
9.750000e+02 6.001672e+01
9.760000e+02 2.185005e+02
9.770000e+02 1.992631e+02
9.780000e+02 1.262213e+02
9.790000e+02 2.758742e+02
9.800000e+02 2.860217e+02
9.810000e+02 1.417948e+02
9.820000e+02 3.803055e+01
9.830000e+02 3.055670e+02
9.840000e+02 1.007275e+01
9.850000e+02 9.897168e+01
9.860000e+02 1.056685e+02
9.870000e+02 3.527297e+02
9.880000e+02 3.905823e+00
9.890000e+02 2.044814e+02
9.900000e+02 5.326685e-01
9.910000e+02 1.823112e+01
9.920000e+02 1.028859e+00
9.930000e+02 3.781811e+02
9.940000e+02 2.035370e-01
9.950000e+02 1.156000e+01
9.960000e+02 1.062897e+01
9.970000e+02 4.451252e+00
9.980000e+02 4.029635e+02
9.990000e+02 2.159877e+01
1.000000e+03 5.285776e+02
1.001000e+03 6.045649e+02
1.002000e+03 6.086087e+02
1.003000e+03 6.729492e+01
1.004000e+03 6.893982e+00
1.005000e+03 1.367562e+02
1.006000e+03 6.733835e+02
1.007000e+03 7.275788e+02
1.008000e+03 6.538881e+02
1.009000e+03 1.026942e+02
1.010000e+03 7.022473e+02
1.011000e+03 8.166890e+02
1.012000e+03 7.530536e+02
1.013000e+03 7.421560e+02
1.014000e+03 2.158569e+00
1.015000e+03 7.189636e+00
1.016000e+03 1.294838e+02
1.017000e+03 2.183044e+00
1.018000e+03 1.043415e+02
1.019000e+03 7.428101e+00
1.020000e+03 1.076522e+03
1.021000e+03 4.030566e+01
1.022000e+03 1.159001e+02
1.023000e+03 1.196118e+01
1.024000e+03 8.952556e+02
1.025000e+03 2.299047e+00
1.026000e+03 1.361178e+01
1.027000e+03 4.567898e+02
1.028000e+03 1.908386e+00
1.029000e+03 3.764771e+00
1.030000e+03 6.601032e+02
1.031000e+03 4.674045e+02
1.032000e+03 1.196722e+03
1.033000e+03 1.278101e+01
1.034000e+03 8.250855e+02
1.035000e+03 1.571533e+00
1.036000e+03 5.882690e+00
1.037000e+03 1.552213e+03
1.038000e+03 1.986179e+03
1.039000e+03 1.716580e+03
1.040000e+03 1.869305e+03
1.041000e+03 2.204356e+03
1.042000e+03 2.203612e+03
1.043000e+03 1.782525e+03
1.044000e+03 2.488028e+03
1.045000e+03 2.144070e+03
1.046000e+03 2.337608e+03
1.047000e+03 1.190359e+03
1.048000e+03 6.451111e+01
1.049000e+03 1.592440e+03
1.050000e+03 9.652087e+02
1.051000e+03 5.816094e+02
1.052000e+03 2.905365e+03
1.053000e+03 3.214284e+03
1.054000e+03 9.100098e+00
1.055000e+03 3.463367e+03
1.056000e+03 3.554657e+03
1.057000e+03 2.234511e+03
1.058000e+03 8.410516e+02
1.059000e+03 2.791982e+02
1.060000e+03 9.607544e+01
1.061000e+03 2.771654e+03
1.062000e+03 4.356292e+02
1.063000e+03 2.440788e+02
1.064000e+03 3.818848e+00
1.065000e+03 1.497314e+01
1.066000e+03 2.975026e+03
1.067000e+03 2.007363e+02
1.068000e+03 5.196432e+03
1.069000e+03 5.533280e+01
1.070000e+03 3.012365e+03
1.071000e+03 5.529415e+03
1.072000e+03 5.704876e+03
1.073000e+03 2.749951e+01
1.074000e+03 2.680537e+03
1.075000e+03 1.921242e+03
1.076000e+03 6.462622e+03
1.077000e+03 5.028809e+01
1.078000e+03 8.646577e+02
1.079000e+03 2.629430e+03
1.080000e+03 3.854516e+03
1.081000e+03 5.943510e+03
1.082000e+03 5.518711e+03
1.083000e+03 4.497410e+03
1.084000e+03 8.288220e+03
1.085000e+03 1.837324e+03
1.086000e+03 8.769359e+03
1.087000e+03 4.542373e+02
1.088000e+03 9.299286e+03
1.089000e+03 9.590506e+03
1.090000e+03 1.719223e+03
1.091000e+03 1.886193e+03
1.092000e+03 1.022440e+04
1.093000e+03 1.054096e+04
1.094000e+03 8.161576e+03
1.095000e+03 1.125963e+04
1.096000e+03 1.901789e+03
1.097000e+03 9.850952e+03
1.098000e+03 1.216341e+04
1.099000e+03 5.398815e+03
1.100000e+03 1.965786e+02
1.101000e+03 4.881654e+02
1.102000e+03 2.878912e+03
1.103000e+03 2.115924e+04
1.104000e+03 1.835723e+04
1.105000e+03 1.418389e+04
1.106000e+03 1.086811e+04
1.107000e+03 1.867383e+02
1.108000e+03 2.090640e+04
1.109000e+03 1.663746e+03
1.110000e+03 1.821244e+04
1.111000e+03 2.002490e+04
1.112000e+03 1.770083e+04
1.113000e+03 2.433085e+04
1.114000e+03 9.703812e+03
1.115000e+03 2.993809e+03
1.116000e+03 1.896492e+03
1.117000e+03 1.317599e+04
1.118000e+03 2.484891e+03
1.119000e+03 2.258677e+04
1.120000e+03 1.892941e+03
1.121000e+03 2.907250e+04
1.122000e+03 2.267617e+02
1.123000e+03 2.655257e+04
1.124000e+03 3.292816e+04
1.125000e+03 2.695541e+04
1.126000e+03 3.700525e+04
1.127000e+03 3.457738e+04
1.128000e+03 2.020624e+04
1.129000e+03 2.869773e+04
1.130000e+03 3.768116e+04
1.131000e+03 3.701095e+04
1.132000e+03 1.403342e+03
1.133000e+03 6.790453e+03
1.134000e+03 3.050609e+04
1.135000e+03 1.375915e+03
1.136000e+03 1.527185e+04
1.137000e+03 4.276946e+04
1.138000e+03 3.082994e+04
1.139000e+03 4.624027e+04
1.140000e+03 5.920962e+03
1.141000e+03 4.687920e+04
1.142000e+03 4.902587e+04
1.143000e+03 4.130977e+04
1.144000e+03 5.057911e+04
1.145000e+03 1.136078e+03
1.146000e+03 5.356310e+04
1.147000e+03 5.309695e+04
1.148000e+03 6.341914e+03
1.149000e+03 5.226797e+04
1.150000e+03 4.763895e+04
1.151000e+03 5.847251e+04
1.152000e+03 5.811145e+04
1.153000e+03 4.753355e+04
1.154000e+03 6.114856e+04
1.155000e+03 5.552335e+04
1.156000e+03 6.174357e+04
1.157000e+03 6.205506e+04
1.158000e+03 2.292148e+04
1.159000e+03 6.578854e+04
1.160000e+03 4.871098e+04
1.161000e+03 6.865919e+04
1.162000e+03 1.661063e+04
1.163000e+03 3.621341e+04
1.164000e+03 2.307734e+02
1.165000e+03 7.213076e+04
1.166000e+03 6.864080e+04
1.167000e+03 6.932448e+04
1.168000e+03 7.973730e+04
1.169000e+03 8.006290e+04
1.170000e+03 7.215311e+04
1.171000e+03 8.113312e+04
1.172000e+03 6.310466e+04
1.173000e+03 8.753909e+04
1.174000e+03 5.795699e+03
1.175000e+03 2.392812e+02
1.176000e+03 1.645156e+02
1.177000e+03 9.546614e+04
1.178000e+03 9.697292e+04
1.179000e+03 9.751299e+04
1.180000e+03 7.757166e+04
1.181000e+03 1.020119e+05
1.182000e+03 1.021043e+05
1.183000e+03 9.481695e+04
1.184000e+03 9.228532e+04
1.185000e+03 1.021274e+05
1.186000e+03 2.717295e+04
1.187000e+03 1.079703e+05
1.188000e+03 8.092545e+04
1.189000e+03 1.616148e+04
1.190000e+03 1.101225e+05
1.191000e+03 1.131707e+05
1.192000e+03 1.200344e+05
1.193000e+03 1.006625e+03
1.194000e+03 2.002051e+04
1.195000e+03 1.182393e+05
1.196000e+03 1.243562e+05
1.197000e+03 1.830403e+05
1.198000e+03 6.278316e+04
1.199000e+03 1.804392e+05
1.200000e+03 9.102388e+04
1.201000e+03 1.743743e+05
1.202000e+03 1.440242e+05
1.203000e+03 2.049925e+05
1.204000e+03 8.378575e+04
1.205000e+03 1.815183e+05
1.206000e+03 1.818950e+05
1.207000e+03 1.772634e+04
1.208000e+03 1.382974e+05
1.209000e+03 1.103946e+05
1.210000e+03 5.058359e+02
1.211000e+03 5.875204e+04
1.212000e+03 3.120065e+04
1.213000e+03 1.478735e+04
1.214000e+03 4.233457e+03
1.215000e+03 8.188857e+02
1.216000e+03 5.167709e+02
1.217000e+03 2.622749e+03
1.218000e+03 1.148092e+04
1.219000e+03 2.981087e+04
1.220000e+03 4.357217e+04
1.221000e+03 9.467545e+04
1.222000e+03 1.319046e+05
1.223000e+03 1.673570e+05
1.224000e+03 1.935555e+05
1.225000e+03 6.819523e+04
1.226000e+03 2.877937e+05
1.227000e+03 3.147339e+05
1.228000e+03 2.132075e+05
1.229000e+03 3.536799e+05
1.230000e+03 3.528422e+05
1.231000e+03 1.872230e+05
1.232000e+03 4.390286e+05
1.233000e+03 4.663196e+05
1.234000e+03 3.262160e+05
1.235000e+03 4.963360e+05
1.236000e+03 2.985177e+05
1.237000e+03 5.349452e+05
1.238000e+03 5.411239e+05
1.239000e+03 5.315671e+05
1.240000e+03 2.318286e+05
1.241000e+03 5.221022e+05
1.242000e+03 5.898852e+05
1.243000e+03 6.236263e+05
1.244000e+03 6.284040e+05
1.245000e+03 6.475554e+05
1.246000e+03 6.476474e+05
1.247000e+03 6.714741e+05
1.248000e+03 5.226022e+05
1.249000e+03 7.144635e+05
1.250000e+03 5.392726e+05
1.251000e+03 7.540005e+05
1.252000e+03 7.270871e+05
1.253000e+03 7.844827e+05
1.254000e+03 7.768794e+05
1.255000e+03 7.817086e+05
1.256000e+03 7.921374e+05
1.257000e+03 6.882252e+05
1.258000e+03 7.597881e+05
1.259000e+03 8.451628e+05
1.260000e+03 8.937563e+05
1.261000e+03 1.295388e+04
1.262000e+03 8.847467e+05
1.263000e+03 9.202448e+05
1.264000e+03 8.864096e+05
1.265000e+03 2.171813e+03
1.266000e+03 1.000725e+06
1.267000e+03 9.508562e+05
