# wavelength_A flux
5.000000e+02 2.433631e-25
5.010000e+02 2.986129e-25
5.020000e+02 3.661001e-25
5.030000e+02 4.484674e-25
5.040000e+02 5.489133e-25
5.050000e+02 6.734149e-25
5.060000e+02 8.228356e-25
5.070000e+02 1.004559e-24
5.080000e+02 1.225494e-24
5.090000e+02 1.493786e-24
5.100000e+02 1.813895e-24
5.110000e+02 2.214171e-24
5.120000e+02 2.692435e-24
5.130000e+02 3.271685e-24
5.140000e+02 3.972336e-24
5.150000e+02 4.819313e-24
5.160000e+02 5.842400e-24
5.170000e+02 7.077322e-24
5.180000e+02 8.566764e-24
5.190000e+02 1.036185e-23
5.200000e+02 1.252371e-23
5.210000e+02 1.512535e-23
5.220000e+02 1.825357e-23
5.230000e+02 2.201343e-23
5.240000e+02 2.652786e-23
5.250000e+02 3.194482e-23
5.260000e+02 3.844011e-23
5.270000e+02 4.622282e-23
5.280000e+02 5.554153e-23
5.290000e+02 6.669135e-23
5.300000e+02 8.002323e-23
5.310000e+02 9.595254e-23
5.320000e+02 1.149723e-22
5.330000e+02 1.376666e-22
5.340000e+02 1.647265e-22
5.350000e+02 1.969699e-22
5.360000e+02 2.353635e-22
5.370000e+02 2.807789e-22
5.380000e+02 3.353782e-22
5.390000e+02 3.999399e-22
5.400000e+02 4.766109e-22
5.410000e+02 5.676009e-22
5.420000e+02 6.755199e-22
5.430000e+02 8.034269e-22
5.440000e+02 9.549282e-22
5.450000e+02 1.134261e-21
5.460000e+02 1.346399e-21
5.470000e+02 1.597190e-21
5.480000e+02 1.893481e-21
5.490000e+02 2.243311e-21
5.500000e+02 2.656094e-21
5.510000e+02 3.142854e-21
5.520000e+02 3.716494e-21
5.530000e+02 4.392102e-21
5.540000e+02 5.187317e-21
5.550000e+02 6.122743e-21
5.560000e+02 7.222431e-21
5.570000e+02 8.514448e-21
5.580000e+02 1.003152e-20
5.590000e+02 1.181178e-20
5.600000e+02 1.389966e-20
5.610000e+02 1.634685e-20
5.620000e+02 1.921351e-20
5.630000e+02 2.256957e-20
5.640000e+02 2.649632e-20
5.650000e+02 3.108813e-20
5.660000e+02 3.645455e-20
5.670000e+02 4.272267e-20
5.680000e+02 5.003983e-20
5.690000e+02 5.857678e-20
5.700000e+02 6.853124e-20
5.710000e+02 8.013207e-20
5.720000e+02 9.364407e-20
5.730000e+02 1.093733e-19
5.740000e+02 1.276737e-19
5.750000e+02 1.489536e-19
5.760000e+02 1.736847e-19
5.770000e+02 2.024117e-19
5.780000e+02 2.357612e-19
5.790000e+02 2.744569e-19
5.800000e+02 3.193316e-19
5.810000e+02 3.713444e-19
5.820000e+02 4.315990e-19
5.830000e+02 5.013644e-19
5.840000e+02 5.820937e-19
5.850000e+02 6.754808e-19
5.860000e+02 7.834360e-19
5.870000e+02 9.081708e-19
5.880000e+02 1.052221e-18
5.890000e+02 1.218494e-18
5.900000e+02 1.410319e-18
5.910000e+02 1.631513e-18
5.920000e+02 1.886443e-18
5.930000e+02 2.180108e-18
5.940000e+02 2.518227e-18
5.950000e+02 2.907336e-18
5.960000e+02 3.354903e-18
5.970000e+02 3.869461e-18
5.980000e+02 4.460748e-18
5.990000e+02 5.139878e-18
6.000000e+02 5.919523e-18
6.010000e+02 6.814133e-18
6.020000e+02 7.840170e-18
6.030000e+02 9.016384e-18
6.040000e+02 1.036412e-17
6.050000e+02 1.190766e-17
6.060000e+02 1.367464e-17
6.070000e+02 1.569645e-17
6.080000e+02 1.800877e-17
6.090000e+02 2.065213e-17
6.100000e+02 2.367254e-17
6.110000e+02 2.712221e-17
6.120000e+02 3.106035e-17
6.130000e+02 3.555412e-17
6.140000e+02 4.067959e-17
6.150000e+02 4.652296e-17
6.160000e+02 5.318181e-17
6.170000e+02 6.076660e-17
6.180000e+02 6.940228e-17
6.190000e+02 7.923014e-17
6.200000e+02 9.040989e-17
6.210000e+02 1.031220e-16
6.220000e+02 1.175702e-16
6.230000e+02 1.339846e-16
6.240000e+02 1.526248e-16
6.250000e+02 1.737836e-16
6.260000e+02 1.977911e-16
6.270000e+02 2.250194e-16
6.280000e+02 2.558876e-16
6.290000e+02 2.908678e-16
6.300000e+02 3.304911e-16
6.310000e+02 3.753531e-16
6.320000e+02 4.261333e-16
6.330000e+02 4.835803e-16
6.340000e+02 5.485461e-16
6.350000e+02 6.219847e-16
6.360000e+02 7.049682e-16
6.370000e+02 7.986991e-16
6.380000e+02 9.045271e-16
6.390000e+02 1.023966e-15
6.400000e+02 1.158713e-15
6.410000e+02 1.310670e-15
6.420000e+02 1.481968e-15
6.430000e+02 1.674994e-15
6.440000e+02 1.892419e-15
6.450000e+02 2.137233e-15
6.460000e+02 2.412779e-15
6.470000e+02 2.722797e-15
6.480000e+02 3.071466e-15
6.490000e+02 3.463458e-15
6.500000e+02 3.903987e-15
6.510000e+02 4.398878e-15
6.520000e+02 4.954633e-15
6.530000e+02 5.578503e-15
6.540000e+02 6.278577e-15
6.550000e+02 7.063875e-15
6.560000e+02 7.944447e-15
6.570000e+02 8.931491e-15
6.580000e+02 1.003748e-14
6.590000e+02 1.127630e-14
6.600000e+02 1.266340e-14
6.610000e+02 1.421597e-14
6.620000e+02 1.595314e-14
6.630000e+02 1.789616e-14
6.640000e+02 2.006865e-14
6.650000e+02 2.249687e-14
6.660000e+02 2.520995e-14
6.670000e+02 2.824027e-14
6.680000e+02 3.162374e-14
6.690000e+02 3.540020e-14
6.700000e+02 3.961387e-14
6.710000e+02 4.431373e-14
6.720000e+02 4.955411e-14
6.730000e+02 5.539519e-14
6.740000e+02 6.190361e-14
6.750000e+02 6.915319e-14
6.760000e+02 7.722561e-14
6.770000e+02 8.621129e-14
6.780000e+02 9.621022e-14
6.790000e+02 1.073330e-13
6.800000e+02 1.197018e-13
6.810000e+02 1.334518e-13
6.820000e+02 1.487322e-13
6.830000e+02 1.657078e-13
6.840000e+02 1.845607e-13
6.850000e+02 2.054916e-13
6.860000e+02 2.287223e-13
6.870000e+02 2.544970e-13
6.880000e+02 2.830854e-13
6.890000e+02 3.147847e-13
6.900000e+02 3.499222e-13
6.910000e+02 3.888587e-13
6.920000e+02 4.319915e-13
6.930000e+02 4.797579e-13
6.940000e+02 5.326395e-13
6.950000e+02 5.911660e-13
6.960000e+02 6.559200e-13
6.970000e+02 7.275424e-13
6.980000e+02 8.067377e-13
6.990000e+02 8.942800e-13
7.000000e+02 9.910201e-13
7.010000e+02 1.097892e-12
7.020000e+02 1.215922e-12
7.030000e+02 1.346236e-12
7.040000e+02 1.490071e-12
7.050000e+02 1.648781e-12
7.060000e+02 1.823854e-12
7.070000e+02 2.016922e-12
7.080000e+02 2.229770e-12
7.090000e+02 2.464359e-12
7.100000e+02 2.722834e-12
7.110000e+02 3.007546e-12
7.120000e+02 3.321067e-12
7.130000e+02 3.666216e-12
7.140000e+02 4.046074e-12
7.150000e+02 4.464015e-12
7.160000e+02 4.923726e-12
7.170000e+02 5.429243e-12
7.180000e+02 5.984972e-12
7.190000e+02 6.595733e-12
7.200000e+02 7.266790e-12
7.210000e+02 8.003893e-12
7.220000e+02 8.813318e-12
7.230000e+02 9.701922e-12
7.240000e+02 1.067718e-11
7.250000e+02 1.174727e-11
7.260000e+02 1.292107e-11
7.270000e+02 1.420830e-11
7.280000e+02 1.561955e-11
7.290000e+02 1.716635e-11
7.300000e+02 1.886127e-11
7.310000e+02 2.071801e-11
7.320000e+02 2.275147e-11
7.330000e+02 2.497791e-11
7.340000e+02 2.741500e-11
7.350000e+02 3.008196e-11
7.360000e+02 3.299975e-11
7.370000e+02 3.619112e-11
7.380000e+02 3.968082e-11
7.390000e+02 4.349579e-11
7.400000e+02 4.766527e-11
7.410000e+02 5.222105e-11
7.420000e+02 5.719767e-11
7.430000e+02 6.263264e-11
7.440000e+02 6.856669e-11
7.450000e+02 7.504404e-11
7.460000e+02 8.211268e-11
7.470000e+02 8.982468e-11
7.480000e+02 9.823653e-11
7.490000e+02 1.074095e-10
7.500000e+02 1.174100e-10
7.510000e+02 1.283100e-10
7.520000e+02 1.401877e-10
7.530000e+02 1.531275e-10
7.540000e+02 1.672210e-10
7.550000e+02 1.825674e-10
7.560000e+02 1.992743e-10
7.570000e+02 2.174578e-10
7.580000e+02 2.372437e-10
7.590000e+02 2.587683e-10
7.600000e+02 2.821788e-10
7.610000e+02 3.076346e-10
7.620000e+02 3.353079e-10
7.630000e+02 3.653848e-10
7.640000e+02 3.980667e-10
7.650000e+02 4.335710e-10
7.660000e+02 4.721327e-10
7.670000e+02 5.140054e-10
7.680000e+02 5.594632e-10
7.690000e+02 6.088018e-10
7.700000e+02 6.623406e-10
7.710000e+02 7.204240e-10
7.720000e+02 7.834238e-10
7.730000e+02 8.517410e-10
7.740000e+02 9.258078e-10
7.750000e+02 1.006091e-09
7.760000e+02 1.093092e-09
7.770000e+02 1.187353e-09
7.780000e+02 1.289458e-09
7.790000e+02 1.400035e-09
7.800000e+02 1.519761e-09
7.810000e+02 1.649366e-09
7.820000e+02 1.789634e-09
7.830000e+02 1.941410e-09
7.840000e+02 2.105604e-09
7.850000e+02 2.283194e-09
7.860000e+02 2.475232e-09
7.870000e+02 2.682850e-09
7.880000e+02 2.907264e-09
7.890000e+02 3.149783e-09
7.900000e+02 3.411814e-09
7.910000e+02 3.694866e-09
7.920000e+02 4.000564e-09
7.930000e+02 4.330652e-09
7.940000e+02 4.687002e-09
7.950000e+02 5.071625e-09
7.960000e+02 5.486680e-09
7.970000e+02 5.934484e-09
7.980000e+02 6.417524e-09
7.990000e+02 6.938468e-09
8.000000e+02 7.500177e-09
8.010000e+02 8.105721e-09
8.020000e+02 8.758390e-09
8.030000e+02 9.461714e-09
8.040000e+02 1.021947e-08
8.050000e+02 1.103572e-08
8.060000e+02 1.191480e-08
8.070000e+02 1.286137e-08
8.080000e+02 1.388039e-08
8.090000e+02 1.497722e-08
8.100000e+02 1.615757e-08
8.110000e+02 1.742754e-08
8.120000e+02 1.879369e-08
8.130000e+02 2.026301e-08
8.140000e+02 2.184301e-08
8.150000e+02 2.354168e-08
8.160000e+02 2.536761e-08
8.170000e+02 2.732996e-08
8.180000e+02 2.943852e-08
8.190000e+02 3.170378e-08
8.200000e+02 3.413691e-08
8.210000e+02 3.674989e-08
8.220000e+02 3.955548e-08
8.230000e+02 4.256733e-08
8.240000e+02 4.580001e-08
8.250000e+02 4.926909e-08
8.260000e+02 5.299118e-08
8.270000e+02 5.698399e-08
8.280000e+02 6.126646e-08
8.290000e+02 6.585878e-08
8.300000e+02 7.078247e-08
8.310000e+02 7.606052e-08
8.320000e+02 8.171741e-08
8.330000e+02 8.777927e-08
8.340000e+02 9.427396e-08
8.350000e+02 1.012311e-07
8.360000e+02 1.086824e-07
8.370000e+02 1.166616e-07
8.380000e+02 1.252045e-07
8.390000e+02 1.343493e-07
8.400000e+02 1.441369e-07
8.410000e+02 1.546106e-07
8.420000e+02 1.658165e-07
8.430000e+02 1.778039e-07
8.440000e+02 1.906250e-07
8.450000e+02 2.043355e-07
8.460000e+02 2.189946e-07
8.470000e+02 2.346653e-07
8.480000e+02 2.514146e-07
8.490000e+02 2.693139e-07
8.500000e+02 2.884387e-07
8.510000e+02 3.088697e-07
8.520000e+02 3.306926e-07
8.530000e+02 3.539982e-07
8.540000e+02 3.788832e-07
8.550000e+02 4.054503e-07
8.560000e+02 4.338087e-07
8.570000e+02 4.640741e-07
8.580000e+02 4.963696e-07
8.590000e+02 5.308260e-07
8.600000e+02 5.675816e-07
8.610000e+02 6.067839e-07
8.620000e+02 6.485889e-07
8.630000e+02 6.931625e-07
8.640000e+02 7.406804e-07
8.650000e+02 7.913291e-07
8.660000e+02 8.453064e-07
8.670000e+02 9.028222e-07
8.680000e+02 9.640988e-07
8.690000e+02 1.029372e-06
8.700000e+02 1.098892e-06
8.710000e+02 1.172922e-06
8.720000e+02 1.251745e-06
8.730000e+02 1.335657e-06
8.740000e+02 1.424974e-06
8.750000e+02 1.520028e-06
8.760000e+02 1.621173e-06
8.770000e+02 1.728783e-06
8.780000e+02 1.843255e-06
8.790000e+02 1.965007e-06
8.800000e+02 2.094482e-06
8.810000e+02 2.232151e-06
8.820000e+02 2.378511e-06
8.830000e+02 2.534086e-06
8.840000e+02 2.699433e-06
8.850000e+02 2.875139e-06
8.860000e+02 3.061827e-06
8.870000e+02 3.260154e-06
8.880000e+02 3.470814e-06
8.890000e+02 3.694543e-06
8.900000e+02 3.932116e-06
8.910000e+02 4.184355e-06
8.920000e+02 4.452125e-06
8.930000e+02 4.736343e-06
8.940000e+02 5.037976e-06
8.950000e+02 5.358046e-06
8.960000e+02 5.697631e-06
8.970000e+02 6.057872e-06
8.980000e+02 6.439969e-06
8.990000e+02 6.845193e-06
9.000000e+02 7.274884e-06
9.010000e+02 7.730454e-06
9.020000e+02 8.213397e-06
9.030000e+02 8.725287e-06
9.040000e+02 9.267782e-06
9.050000e+02 9.842634e-06
9.060000e+02 1.045169e-05
9.070000e+02 1.109690e-05
9.080000e+02 1.178031e-05
9.090000e+02 1.250409e-05
9.100000e+02 1.327052e-05
9.110000e+02 1.408201e-05
9.120000e+02 1.494108e-05
9.130000e+02 1.585041e-05
9.140000e+02 1.686823e-05
9.150000e+02 1.823456e-03
9.160000e+02 9.629663e-03
9.170000e+02 9.324490e-04
9.180000e+02 2.329916e-03
9.190000e+02 2.418942e-02
9.200000e+02 5.888870e-02
9.210000e+02 2.530518e-05
9.220000e+02 3.568029e-02
9.230000e+02 6.490190e-04
9.240000e+02 2.086632e-03
9.250000e+02 1.021466e-02
9.260000e+02 3.181579e-03
9.270000e+02 1.521343e-03
9.280000e+02 2.448365e-01
9.290000e+02 2.497310e-01
9.300000e+02 7.028731e-02
9.310000e+02 1.010995e-03
9.320000e+02 2.076663e-01
9.330000e+02 4.941906e-02
9.340000e+02 1.798591e-02
9.350000e+02 1.120253e-03
9.360000e+02 3.342090e-03
9.370000e+02 3.881680e-04
9.380000e+02 7.785458e-04
9.390000e+02 6.861080e-03
9.400000e+02 2.528515e-01
9.410000e+02 3.461875e-02
9.420000e+02 6.561069e-01
9.430000e+02 1.086293e-02
9.440000e+02 7.170322e-01
9.450000e+02 6.929492e-01
9.460000e+02 1.361843e-01
9.470000e+02 7.609725e-04
9.480000e+02 2.747249e-01
9.490000e+02 3.827154e-02
9.500000e+02 9.490928e-04
9.510000e+02 7.264277e-02
9.520000e+02 1.702019e-01
9.530000e+02 2.742993e-03
9.540000e+02 8.728344e-04
9.550000e+02 2.893484e-02
9.560000e+02 9.889878e-01
9.570000e+02 1.279475e-02
9.580000e+02 4.187003e-04
9.590000e+02 8.792558e-01
9.600000e+02 1.910366e-03
9.610000e+02 1.701962e-01
9.620000e+02 6.714100e-02
9.630000e+02 2.371329e-02
9.640000e+02 8.809790e-04
9.650000e+02 2.059221e-03
9.660000e+02 3.185630e-02
9.670000e+02 7.284880e-03
9.680000e+02 4.643500e-03
9.690000e+02 1.437280e-01
9.700000e+02 1.161001e-01
9.710000e+02 8.486972e-03
9.720000e+02 4.121723e-03
9.730000e+02 8.630568e-03
9.740000e+02 1.059388e-01
9.750000e+02 5.185724e-02
9.760000e+02 7.880479e-01
9.770000e+02 5.293713e-01
9.780000e+02 2.081418e-01
9.790000e+02 2.703916e+00
9.800000e+02 2.838453e+00
9.810000e+02 1.846788e-01
9.820000e+02 3.837180e-02
9.830000e+02 2.369862e+00
9.840000e+02 1.416135e-01
9.850000e+02 9.799363e-02
9.860000e+02 1.322173e-01
9.870000e+02 2.856875e+00
9.880000e+02 4.930258e-03
9.890000e+02 6.655196e-01
9.900000e+02 3.010083e-01
9.910000e+02 3.133099e-02
9.920000e+02 1.994141e-03
9.930000e+02 4.820748e+00
9.940000e+02 1.818538e-03
9.950000e+02 3.777511e-01
9.960000e+02 1.398182e-02
9.970000e+02 2.382513e-01
9.980000e+02 1.717795e+00
9.990000e+02 5.734504e-02
1.000000e+03 6.947021e+00
1.001000e+03 6.432282e+00
1.002000e+03 5.951348e+00
1.003000e+03 7.291126e-02
1.004000e+03 8.723259e-03
1.005000e+03 1.898193e-01
1.006000e+03 4.989756e+00
1.007000e+03 7.216561e+00
1.008000e+03 3.033402e+00
1.009000e+03 1.097252e-01
1.010000e+03 3.297448e+00
1.011000e+03 5.444011e+00
1.012000e+03 3.735444e+00
1.013000e+03 3.313819e+00
1.014000e+03 5.299091e-03
1.015000e+03 1.256132e-02
1.016000e+03 2.054939e-01
1.017000e+03 5.345345e-03
1.018000e+03 1.123233e-01
1.019000e+03 1.271343e-02
1.020000e+03 5.967512e+00
1.021000e+03 1.264644e-01
1.022000e+03 1.947293e-01
1.023000e+03 2.217984e-02
1.024000e+03 7.384061e-01
1.025000e+03 6.614819e-03
1.026000e+03 8.174701e-03
1.027000e+03 2.860671e-01
1.028000e+03 3.325748e-02
1.029000e+03 9.829283e-03
1.030000e+03 9.411864e-01
1.031000e+03 1.040943e+00
1.032000e+03 8.655901e+00
1.033000e+03 2.777853e-01
1.034000e+03 1.781492e+00
1.035000e+03 2.272224e-02
1.036000e+03 1.553106e-02
1.037000e+03 9.367598e+00
1.038000e+03 3.468223e+01
1.039000e+03 1.052754e+01
1.040000e+03 1.300545e+01
1.041000e+03 4.802736e+01
1.042000e+03 2.980044e+01
1.043000e+03 2.621516e+01
1.044000e+03 6.698848e+01
1.045000e+03 2.488872e-02
1.046000e+03 1.541046e+01
1.047000e+03 3.399254e+00
1.048000e+03 1.426840e-01
1.049000e+03 4.395735e+00
1.050000e+03 1.676603e+00
1.051000e+03 9.349022e-01
1.052000e+03 3.291374e+01
1.053000e+03 6.205468e+01
1.054000e+03 2.918625e-02
1.055000e+03 7.154300e+01
1.056000e+03 7.519290e+01
1.057000e+03 8.803234e+00
1.058000e+03 1.119311e+00
1.059000e+03 4.219170e-01
1.060000e+03 2.175694e-01
1.061000e+03 1.351735e+01
1.062000e+03 6.166335e-01
1.063000e+03 6.978597e+00
1.064000e+03 4.615784e-02
1.065000e+03 4.801178e-02
1.066000e+03 1.808118e+01
1.067000e+03 5.007208e-01
1.068000e+03 1.340839e+02
1.069000e+03 1.677786e-01
1.070000e+03 7.473740e+00
1.071000e+03 8.146818e+01
1.072000e+03 1.101904e+02
1.073000e+03 8.486938e-02
1.074000e+03 9.209053e+00
1.075000e+03 5.604340e+00
1.076000e+03 1.220162e+02
1.077000e+03 4.740791e-01
1.078000e+03 1.377701e+00
1.079000e+03 5.209579e+00
1.080000e+03 1.337027e+01
1.081000e+03 4.242536e+01
1.082000e+03 2.867365e+01
1.083000e+03 1.651749e+01
1.084000e+03 2.224496e+02
1.085000e+03 5.086746e+00
1.086000e+03 2.039888e+02
1.087000e+03 1.199249e+00
1.088000e+03 2.677947e+02
1.089000e+03 2.706979e+02
1.090000e+03 4.113425e+00
1.091000e+03 5.164856e+00
1.092000e+03 2.410855e+02
1.093000e+03 2.648922e+02
1.094000e+03 4.344017e+01
1.095000e+03 3.228021e+02
1.096000e+03 3.478146e+01
1.097000e+03 1.075622e+02
1.098000e+03 3.237075e+02
1.099000e+03 1.479221e+01
1.100000e+03 5.504007e-01
1.101000e+03 1.224693e+00
1.102000e+03 8.162736e+00
1.103000e+03 3.275573e+02
1.104000e+03 4.172262e+02
1.105000e+03 3.814791e+02
1.106000e+03 3.539742e+01
1.107000e+03 6.990051e-01
1.108000e+03 1.580395e+02
1.109000e+03 4.988312e+00
1.110000e+03 4.735238e+02
1.111000e+03 3.237656e+02
1.112000e+03 8.702378e+01
1.113000e+03 3.835514e+02
1.114000e+03 5.548198e+01
1.115000e+03 7.233446e+00
1.116000e+03 4.194268e+00
1.117000e+03 3.395512e+02
1.118000e+03 7.815521e+00
1.119000e+03 1.196800e+02
1.120000e+03 4.704773e+00
1.121000e+03 3.063251e+02
1.122000e+03 3.375150e+02
1.123000e+03 4.895364e+02
1.124000e+03 5.392005e+02
1.125000e+03 3.122049e+02
1.126000e+03 8.737374e+02
1.127000e+03 4.575036e+02
1.128000e+03 5.144765e+02
1.129000e+03 2.224040e+02
1.130000e+03 6.020812e+02
1.131000e+03 6.548600e+02
1.132000e+03 8.183708e+00
1.133000e+03 2.813678e+01
1.134000e+03 2.311613e+02
1.135000e+03 2.816416e+02
1.136000e+03 6.195929e+01
1.137000e+03 5.334658e+02
1.138000e+03 2.020411e+02
1.139000e+03 7.151752e+02
1.140000e+03 6.981691e+02
1.141000e+03 6.599533e+02
1.142000e+03 7.662046e+02
1.143000e+03 3.329118e+02
1.144000e+03 7.614530e+02
1.145000e+03 4.380310e+00
1.146000e+03 8.230962e+02
1.147000e+03 7.563198e+02
1.148000e+03 2.200769e+01
1.149000e+03 6.032134e+02
1.150000e+03 4.445932e+02
1.151000e+03 8.316425e+02
1.152000e+03 7.203293e+02
1.153000e+03 7.590013e+02
1.154000e+03 8.378645e+02
1.155000e+03 5.402677e+02
1.156000e+03 7.229074e+02
1.157000e+03 8.002408e+02
1.158000e+03 3.416330e+02
1.159000e+03 8.028870e+02
1.160000e+03 3.356974e+02
1.161000e+03 7.586574e+02
1.162000e+03 7.462714e+01
1.163000e+03 1.826471e+02
1.164000e+03 6.936890e+00
1.165000e+03 5.210562e+02
1.166000e+03 3.257040e+02
1.167000e+03 2.596310e+02
1.168000e+03 8.988349e+02
1.169000e+03 9.211800e+02
1.170000e+03 2.486225e+02
1.171000e+03 5.406530e+02
1.172000e+03 3.292910e+02
1.173000e+03 4.482705e+02
1.174000e+03 2.152548e+01
1.175000e+03 5.407104e+00
1.176000e+03 2.830505e+00
1.177000e+03 1.113494e+03
1.178000e+03 1.083176e+03
1.179000e+03 1.016021e+03
1.180000e+03 6.772057e+02
1.181000e+03 1.004127e+03
1.182000e+03 9.449509e+02
1.183000e+03 7.128282e+02
1.184000e+03 6.391666e+02
1.185000e+03 7.389615e+02
1.186000e+03 8.867023e+01
1.187000e+03 8.178550e+02
1.188000e+03 5.015764e+02
1.189000e+03 8.659809e+02
1.190000e+03 8.624099e+02
1.191000e+03 7.526172e+02
1.192000e+03 7.689765e+02
1.193000e+03 5.915651e+02
1.194000e+03 7.410079e+02
1.195000e+03 7.250239e+02
1.196000e+03 3.090664e+03
1.197000e+03 3.655194e+03
1.198000e+03 2.439686e+02
1.199000e+03 3.447249e+03
1.200000e+03 5.379161e+02
1.201000e+03 3.066821e+03
1.202000e+03 1.586449e+03
1.203000e+03 2.531781e+03
1.204000e+03 4.687631e+02
1.205000e+03 1.984774e+03
1.206000e+03 1.820087e+03
1.207000e+03 4.784988e+02
1.208000e+03 1.143191e+03
1.209000e+03 9.577634e+02
1.210000e+03 1.028760e+01
1.211000e+03 4.503728e+02
1.212000e+03 2.388040e+02
1.213000e+03 1.238177e+02
1.214000e+03 4.166911e+01
1.215000e+03 1.042724e+01
1.216000e+03 8.936281e+00
1.217000e+03 2.795145e+01
1.218000e+03 1.028423e+02
1.219000e+03 2.474292e+02
1.220000e+03 3.028366e+02
1.221000e+03 7.979346e+02
1.222000e+03 1.120718e+03
1.223000e+03 1.404584e+03
1.224000e+03 2.036842e+03
1.225000e+03 3.212373e+02
1.226000e+03 3.330754e+03
1.227000e+03 3.902825e+03
1.228000e+03 1.444232e+03
1.229000e+03 4.477795e+03
1.230000e+03 3.825813e+03
1.231000e+03 1.067056e+03
1.232000e+03 6.919936e+03
1.233000e+03 7.554750e+03
1.234000e+03 6.560821e+03
1.235000e+03 8.062107e+03
1.236000e+03 2.218727e+03
1.237000e+03 9.395157e+03
1.238000e+03 9.319012e+03
1.239000e+03 7.626945e+03
1.240000e+03 5.369415e+03
1.241000e+03 7.518501e+03
1.242000e+03 1.028725e+04
1.243000e+03 1.193309e+04
1.244000e+03 1.255337e+04
1.245000e+03 1.244732e+04
1.246000e+03 1.108726e+04
1.247000e+03 1.237279e+04
1.248000e+03 1.176331e+04
1.249000e+03 1.467309e+04
1.250000e+03 1.128866e+04
1.251000e+03 1.525600e+04
1.252000e+03 1.409200e+04
1.253000e+03 1.599306e+04
1.254000e+03 1.502674e+04
1.255000e+03 8.859336e+03
1.256000e+03 1.387955e+04
1.257000e+03 1.352759e+04
1.258000e+03 1.121549e+04
1.259000e+03 1.396396e+04
1.260000e+03 1.797936e+04
1.261000e+03 1.665699e+03
1.262000e+03 1.891667e+04
1.263000e+03 1.805369e+04
1.264000e+03 1.359348e+04
1.265000e+03 7.376562e+02
1.266000e+03 2.055679e+04
1.267000e+03 1.699370e+04
