# wavelength_A flux
5.000000e+02 4.030501e-18
5.010000e+02 4.783188e-18
5.020000e+02 5.672457e-18
5.030000e+02 6.722367e-18
5.040000e+02 7.961086e-18
5.050000e+02 9.612560e-18
5.060000e+02 1.136685e-17
5.070000e+02 1.343216e-17
5.080000e+02 1.586200e-17
5.090000e+02 1.871887e-17
5.100000e+02 2.207543e-17
5.110000e+02 2.601673e-17
5.120000e+02 3.064141e-17
5.130000e+02 3.606451e-17
5.140000e+02 4.241974e-17
5.150000e+02 4.986206e-17
5.160000e+02 5.857353e-17
5.170000e+02 6.876002e-17
5.180000e+02 8.067182e-17
5.190000e+02 9.458425e-17
5.200000e+02 1.108262e-16
5.210000e+02 1.297757e-16
5.220000e+02 1.518575e-16
5.230000e+02 1.776179e-16
5.240000e+02 2.076033e-16
5.250000e+02 2.425024e-16
5.260000e+02 2.830953e-16
5.270000e+02 3.302833e-16
5.280000e+02 3.851056e-16
5.290000e+02 4.486676e-16
5.300000e+02 5.226229e-16
5.310000e+02 6.082860e-16
5.320000e+02 7.075753e-16
5.330000e+02 8.225891e-16
5.340000e+02 9.557425e-16
5.350000e+02 1.109808e-15
5.360000e+02 1.287962e-15
5.370000e+02 1.478598e-15
5.380000e+02 1.731701e-15
5.390000e+02 2.006268e-15
5.400000e+02 2.323129e-15
5.410000e+02 2.688309e-15
5.420000e+02 3.109528e-15
5.430000e+02 3.594585e-15
5.440000e+02 4.153000e-15
5.450000e+02 4.795545e-15
5.460000e+02 5.533724e-15
5.470000e+02 6.383873e-15
5.480000e+02 7.359638e-15
5.490000e+02 8.480040e-15
5.500000e+02 9.765804e-15
5.510000e+02 1.124059e-14
5.520000e+02 1.293130e-14
5.530000e+02 1.486854e-14
5.540000e+02 1.708712e-14
5.550000e+02 1.962660e-14
5.560000e+02 2.253192e-14
5.570000e+02 2.585410e-14
5.580000e+02 2.965104e-14
5.590000e+02 3.398841e-14
5.600000e+02 3.894068e-14
5.610000e+02 4.459223e-14
5.620000e+02 5.103860e-14
5.630000e+02 5.838799e-14
5.640000e+02 6.676282e-14
5.650000e+02 7.630138e-14
5.660000e+02 8.716067e-14
5.670000e+02 9.951701e-14
5.680000e+02 1.135705e-13
5.690000e+02 1.295464e-13
5.700000e+02 1.476992e-13
5.710000e+02 1.683161e-13
5.720000e+02 1.917203e-13
5.730000e+02 2.182765e-13
5.740000e+02 2.483953e-13
5.750000e+02 2.825425e-13
5.760000e+02 3.211949e-13
5.770000e+02 3.650506e-13
5.780000e+02 4.146576e-13
5.790000e+02 4.707918e-13
5.800000e+02 5.342836e-13
5.810000e+02 6.060650e-13
5.820000e+02 6.871820e-13
5.830000e+02 7.788030e-13
5.840000e+02 8.820532e-13
5.850000e+02 9.989707e-13
5.860000e+02 1.130739e-12
5.870000e+02 1.279269e-12
5.880000e+02 1.446680e-12
5.890000e+02 1.635268e-12
5.900000e+02 1.847697e-12
5.910000e+02 2.086795e-12
5.920000e+02 2.355847e-12
5.930000e+02 2.658456e-12
5.940000e+02 2.998674e-12
5.950000e+02 3.381012e-12
5.960000e+02 3.810527e-12
5.970000e+02 4.292821e-12
5.980000e+02 4.834167e-12
5.990000e+02 5.441549e-12
6.000000e+02 6.122748e-12
6.010000e+02 6.885129e-12
6.020000e+02 7.742235e-12
6.030000e+02 8.700894e-12
6.040000e+02 9.774369e-12
6.050000e+02 1.097591e-11
6.060000e+02 1.232027e-11
6.070000e+02 1.382386e-11
6.080000e+02 1.550488e-11
6.090000e+02 1.738353e-11
6.100000e+02 1.948223e-11
6.110000e+02 2.182595e-11
6.120000e+02 2.444219e-11
6.130000e+02 2.736158e-11
6.140000e+02 3.061802e-11
6.150000e+02 3.424907e-11
6.160000e+02 3.829631e-11
6.170000e+02 4.280579e-11
6.180000e+02 4.782844e-11
6.190000e+02 5.342061e-11
6.200000e+02 5.964461e-11
6.210000e+02 6.656930e-11
6.220000e+02 7.427080e-11
6.230000e+02 8.283315e-11
6.240000e+02 9.234920e-11
6.250000e+02 1.029214e-10
6.260000e+02 1.146628e-10
6.270000e+02 1.276981e-10
6.280000e+02 1.421648e-10
6.290000e+02 1.582146e-10
6.300000e+02 1.760143e-10
6.310000e+02 1.957150e-10
6.320000e+02 2.176187e-10
6.330000e+02 2.418457e-10
6.340000e+02 2.686844e-10
6.350000e+02 2.983939e-10
6.360000e+02 3.312537e-10
6.370000e+02 3.676592e-10
6.380000e+02 4.078981e-10
6.390000e+02 4.523885e-10
6.400000e+02 5.015635e-10
6.410000e+02 5.558984e-10
6.420000e+02 6.159149e-10
6.430000e+02 6.821856e-10
6.440000e+02 7.553384e-10
6.450000e+02 8.360617e-10
6.460000e+02 9.251108e-10
6.470000e+02 1.023312e-09
6.480000e+02 1.131573e-09
6.490000e+02 1.250885e-09
6.500000e+02 1.382334e-09
6.510000e+02 1.527113e-09
6.520000e+02 1.686520e-09
6.530000e+02 1.861979e-09
6.540000e+02 2.055047e-09
6.550000e+02 2.267426e-09
6.560000e+02 2.500975e-09
6.570000e+02 2.757684e-09
6.580000e+02 3.039900e-09
6.590000e+02 3.349919e-09
6.600000e+02 3.690414e-09
6.610000e+02 4.064312e-09
6.620000e+02 4.474721e-09
6.630000e+02 4.925091e-09
6.640000e+02 5.419166e-09
6.650000e+02 5.961015e-09
6.660000e+02 6.555120e-09
6.670000e+02 7.206292e-09
6.680000e+02 7.919820e-09
6.690000e+02 8.701449e-09
6.700000e+02 9.557431e-09
6.710000e+02 1.049457e-08
6.720000e+02 1.152027e-08
6.730000e+02 1.264258e-08
6.740000e+02 1.387026e-08
6.750000e+02 1.521281e-08
6.760000e+02 1.668058e-08
6.770000e+02 1.828479e-08
6.780000e+02 2.003765e-08
6.790000e+02 2.195240e-08
6.800000e+02 2.404341e-08
6.810000e+02 2.632629e-08
6.820000e+02 2.881796e-08
6.830000e+02 3.153678e-08
6.840000e+02 3.450265e-08
6.850000e+02 3.773703e-08
6.860000e+02 4.126370e-08
6.870000e+02 4.510758e-08
6.880000e+02 4.929631e-08
6.890000e+02 5.385956e-08
6.900000e+02 5.882952e-08
6.910000e+02 6.424105e-08
6.920000e+02 7.013181e-08
6.930000e+02 7.654261e-08
6.940000e+02 8.351752e-08
6.950000e+02 9.110425e-08
6.960000e+02 9.935435e-08
6.970000e+02 1.083227e-07
6.980000e+02 1.180720e-07
6.990000e+02 1.286648e-07
7.000000e+02 1.401721e-07
7.010000e+02 1.526698e-07
7.020000e+02 1.662397e-07
7.030000e+02 1.809701e-07
7.040000e+02 1.969565e-07
7.050000e+02 2.143014e-07
7.060000e+02 2.331155e-07
7.070000e+02 2.535193e-07
7.080000e+02 2.756405e-07
7.090000e+02 2.996172e-07
7.100000e+02 3.256025e-07
7.110000e+02 3.537540e-07
7.120000e+02 3.842462e-07
7.130000e+02 4.172661e-07
7.140000e+02 4.530146e-07
7.150000e+02 4.917077e-07
7.160000e+02 5.335793e-07
7.170000e+02 5.788775e-07
7.180000e+02 6.278710e-07
7.190000e+02 6.808592e-07
7.200000e+02 7.381411e-07
7.210000e+02 8.000554e-07
7.220000e+02 8.669617e-07
7.230000e+02 9.392458e-07
7.240000e+02 1.017322e-06
7.250000e+02 1.101636e-06
7.260000e+02 1.192663e-06
7.270000e+02 1.290923e-06
7.280000e+02 1.396959e-06
7.290000e+02 1.511363e-06
7.300000e+02 1.634769e-06
7.310000e+02 1.767856e-06
7.320000e+02 1.911352e-06
7.330000e+02 2.066036e-06
7.340000e+02 2.232746e-06
7.350000e+02 2.412377e-06
7.360000e+02 2.605887e-06
7.370000e+02 2.814308e-06
7.380000e+02 3.038737e-06
7.390000e+02 3.280353e-06
7.400000e+02 3.540407e-06
7.410000e+02 3.820277e-06
7.420000e+02 4.121368e-06
7.430000e+02 4.445267e-06
7.440000e+02 4.793591e-06
7.450000e+02 5.168118e-06
7.460000e+02 5.570735e-06
7.470000e+02 6.003459e-06
7.480000e+02 6.468448e-06
7.490000e+02 6.968003e-06
7.500000e+02 7.504585e-06
7.510000e+02 8.080822e-06
7.520000e+02 8.699519e-06
7.530000e+02 9.363671e-06
7.540000e+02 1.007647e-05
7.550000e+02 1.084134e-05
7.560000e+02 1.166191e-05
7.570000e+02 1.254184e-05
7.580000e+02 1.348594e-05
7.590000e+02 1.449792e-05
7.600000e+02 1.558283e-05
7.610000e+02 1.674555e-05
7.620000e+02 1.799150e-05
7.630000e+02 1.932635e-05
7.640000e+02 2.075617e-05
7.650000e+02 2.228742e-05
7.660000e+02 2.392701e-05
7.670000e+02 2.568224e-05
7.680000e+02 2.756084e-05
7.690000e+02 2.957138e-05
7.700000e+02 3.172242e-05
7.710000e+02 3.402345e-05
7.720000e+02 3.648448e-05
7.730000e+02 3.911613e-05
7.740000e+02 4.192972e-05
7.750000e+02 4.493728e-05
7.760000e+02 4.814726e-05
7.770000e+02 5.158620e-05
7.780000e+02 5.525559e-05
7.790000e+02 5.917506e-05
7.800000e+02 6.336093e-05
7.810000e+02 6.783049e-05
7.820000e+02 7.260209e-05
7.830000e+02 7.769524e-05
7.840000e+02 8.313068e-05
7.850000e+02 8.893033e-05
7.860000e+02 9.511744e-05
7.870000e+02 1.017172e-04
7.880000e+02 1.087552e-04
7.890000e+02 1.162596e-04
7.900000e+02 1.242598e-04
7.910000e+02 1.327872e-04
7.920000e+02 1.418749e-04
7.930000e+02 1.515581e-04
7.940000e+02 1.618740e-04
7.950000e+02 1.728621e-04
7.960000e+02 1.845642e-04
7.970000e+02 1.970246e-04
7.980000e+02 2.102902e-04
7.990000e+02 2.244107e-04
8.000000e+02 2.394386e-04
8.010000e+02 2.554293e-04
8.020000e+02 2.724426e-04
8.030000e+02 2.905400e-04
8.040000e+02 3.097875e-04
8.050000e+02 3.302551e-04
8.060000e+02 3.520164e-04
8.070000e+02 3.751495e-04
8.080000e+02 3.997369e-04
8.090000e+02 4.258657e-04
8.100000e+02 4.536282e-04
8.110000e+02 4.831217e-04
8.120000e+02 5.144491e-04
8.130000e+02 5.477194e-04
8.140000e+02 5.830472e-04
8.150000e+02 6.205540e-04
8.160000e+02 6.603677e-04
8.170000e+02 7.026233e-04
8.180000e+02 7.474650e-04
8.190000e+02 7.950421e-04
8.200000e+02 8.455142e-04
8.210000e+02 8.990491e-04
8.220000e+02 9.558240e-04
8.230000e+02 1.016026e-03
8.240000e+02 1.079851e-03
8.250000e+02 1.147509e-03
8.260000e+02 1.219217e-03
8.270000e+02 1.295208e-03
8.280000e+02 1.375724e-03
8.290000e+02 1.461022e-03
8.300000e+02 1.551374e-03
8.310000e+02 1.647063e-03
8.320000e+02 1.748390e-03
8.330000e+02 1.855673e-03
8.340000e+02 1.969243e-03
8.350000e+02 2.089373e-03
8.360000e+02 2.216665e-03
8.370000e+02 2.351284e-03
8.380000e+02 2.493680e-03
8.390000e+02 2.644364e-03
8.400000e+02 2.803714e-03
8.410000e+02 2.972233e-03
8.420000e+02 3.150400e-03
8.430000e+02 3.338810e-03
8.440000e+02 3.537952e-03
8.450000e+02 3.748432e-03
8.460000e+02 3.970865e-03
8.470000e+02 4.205895e-03
8.480000e+02 4.454202e-03
8.490000e+02 4.716501e-03
8.500000e+02 4.993539e-03
8.510000e+02 5.286105e-03
8.520000e+02 5.595021e-03
8.530000e+02 5.921173e-03
8.540000e+02 6.265472e-03
8.550000e+02 6.628857e-03
8.560000e+02 7.012345e-03
8.570000e+02 7.416999e-03
8.580000e+02 7.843924e-03
8.590000e+02 8.294288e-03
8.600000e+02 8.769313e-03
8.610000e+02 9.270283e-03
8.620000e+02 9.798546e-03
8.630000e+02 1.035551e-02
8.640000e+02 1.094267e-02
8.650000e+02 1.156155e-02
8.660000e+02 1.221383e-02
8.670000e+02 1.290119e-02
8.680000e+02 1.362541e-02
8.690000e+02 1.438839e-02
8.700000e+02 1.519209e-02
8.710000e+02 1.603859e-02
8.720000e+02 1.693003e-02
8.730000e+02 1.786869e-02
8.740000e+02 1.885694e-02
8.750000e+02 1.989728e-02
8.760000e+02 2.099231e-02
8.770000e+02 2.214472e-02
8.780000e+02 2.335747e-02
8.790000e+02 2.463346e-02
8.800000e+02 2.597585e-02
8.810000e+02 2.738792e-02
8.820000e+02 2.887310e-02
8.830000e+02 3.043499e-02
8.840000e+02 3.207735e-02
8.850000e+02 3.380411e-02
8.860000e+02 3.561938e-02
8.870000e+02 3.752748e-02
8.880000e+02 3.953290e-02
8.890000e+02 4.164035e-02
8.900000e+02 4.385476e-02
8.910000e+02 4.618128e-02
8.920000e+02 4.860316e-02
8.930000e+02 5.119240e-02
8.940000e+02 5.388851e-02
8.950000e+02 5.671977e-02
8.960000e+02 5.969259e-02
8.970000e+02 6.281369e-02
8.980000e+02 6.609008e-02
8.990000e+02 6.952908e-02
9.000000e+02 7.313834e-02
9.010000e+02 7.692586e-02
9.020000e+02 8.089997e-02
9.030000e+02 8.506937e-02
9.040000e+02 8.944318e-02
9.050000e+02 9.403082e-02
9.060000e+02 9.884246e-02
9.070000e+02 1.038875e-01
9.080000e+02 1.091788e-01
9.090000e+02 1.147256e-01
9.100000e+02 1.205404e-01
9.110000e+02 1.266357e-01
9.120000e+02 1.330249e-01
9.130000e+02 1.392057e-01
9.140000e+02 1.493890e-01
9.150000e+02 7.823333e-01
9.160000e+02 1.010857e+00
9.170000e+02 1.054977e+00
9.180000e+02 1.099619e+00
9.190000e+02 1.149290e+00
9.200000e+02 1.199142e+00
9.210000e+02 2.052994e-01
9.220000e+02 1.303501e+00
9.230000e+02 1.355685e+00
9.240000e+02 1.385367e+00
9.250000e+02 1.457770e+00
9.260000e+02 1.536858e+00
9.270000e+02 1.605499e+00
9.280000e+02 1.676765e+00
9.290000e+02 1.699870e+00
9.300000e+02 1.793263e+00
9.310000e+02 1.882856e+00
9.320000e+02 1.979744e+00
9.330000e+02 2.060074e+00
9.340000e+02 2.145639e+00
9.350000e+02 5.123920e-01
9.360000e+02 2.117473e+00
9.370000e+02 5.053943e-01
9.380000e+02 9.387723e-01
9.390000e+02 2.625118e+00
9.400000e+02 2.745869e+00
9.410000e+02 8.380351e-01
9.420000e+02 2.978986e+00
9.430000e+02 3.086982e+00
9.440000e+02 2.594182e+00
9.450000e+02 3.360079e+00
9.460000e+02 3.497286e+00
9.470000e+02 2.464202e+00
9.480000e+02 2.256124e+00
9.490000e+02 3.906434e+00
9.500000e+02 9.014349e-01
9.510000e+02 4.210601e+00
9.520000e+02 4.449663e+00
9.530000e+02 4.524515e+00
9.540000e+02 3.856076e+00
9.550000e+02 5.012672e+00
9.560000e+02 2.522733e+00
9.570000e+02 2.992359e+00
9.580000e+02 5.306417e+00
9.590000e+02 5.911191e+00
9.600000e+02 1.425403e+00
9.610000e+02 6.369848e+00
9.620000e+02 6.646089e+00
9.630000e+02 6.903185e+00
9.640000e+02 1.539041e+00
9.650000e+02 6.685694e+00
9.660000e+02 7.761900e+00
9.670000e+02 7.944418e+00
9.680000e+02 8.268361e+00
9.690000e+02 8.661272e+00
9.700000e+02 9.038441e+00
9.710000e+02 9.253842e+00
9.720000e+02 8.815393e+00
9.730000e+02 8.948026e+00
9.740000e+02 1.037889e+01
9.750000e+02 1.092586e+01
9.760000e+02 1.139712e+01
9.770000e+02 1.186175e+01
9.780000e+02 1.228180e+01
9.790000e+02 1.280851e+01
9.800000e+02 1.329348e+01
9.810000e+02 1.380724e+01
9.820000e+02 1.428914e+01
9.830000e+02 1.488813e+01
9.840000e+02 6.955547e+00
9.850000e+02 1.601069e+01
9.860000e+02 1.662773e+01
9.870000e+02 1.729114e+01
9.880000e+02 1.747086e+01
9.890000e+02 1.667374e+01
9.900000e+02 4.964847e+00
9.910000e+02 1.970878e+01
9.920000e+02 1.677525e+01
9.930000e+02 2.003181e+01
9.940000e+02 5.779108e+00
9.950000e+02 8.164341e+00
9.960000e+02 2.363389e+01
9.970000e+02 6.729725e+00
9.980000e+02 2.583686e+01
9.990000e+02 2.598907e+01
1.000000e+03 2.782363e+01
1.001000e+03 2.889919e+01
1.002000e+03 2.995574e+01
1.003000e+03 3.037050e+01
1.004000e+03 3.151377e+01
1.005000e+03 3.219596e+01
1.006000e+03 3.457989e+01
1.007000e+03 3.574639e+01
1.008000e+03 3.702775e+01
1.009000e+03 3.810071e+01
1.010000e+03 3.985465e+01
1.011000e+03 4.128666e+01
1.012000e+03 4.276322e+01
1.013000e+03 4.428839e+01
1.014000e+03 4.163834e+01
1.015000e+03 4.581880e+01
1.016000e+03 4.895353e+01
1.017000e+03 4.639669e+01
1.018000e+03 5.242489e+01
1.019000e+03 5.288024e+01
1.020000e+03 5.621500e+01
1.021000e+03 2.469439e+01
1.022000e+03 5.054941e+01
1.023000e+03 5.934180e+01
1.024000e+03 4.871041e+01
1.025000e+03 4.293402e+01
1.026000e+03 2.549796e+01
1.027000e+03 5.635358e+01
1.028000e+03 2.291379e+01
1.029000e+03 6.943845e+01
1.030000e+03 7.691934e+01
1.031000e+03 8.185052e+01
1.032000e+03 8.381452e+01
1.033000e+03 3.472953e+01
1.034000e+03 9.120510e+01
1.035000e+03 2.910241e+01
1.036000e+03 7.836964e+01
1.037000e+03 9.504897e+01
1.038000e+03 1.047627e+02
1.039000e+03 1.074713e+02
1.040000e+03 1.120998e+02
1.041000e+03 1.130325e+02
1.042000e+03 1.198399e+02
1.043000e+03 1.162299e+02
1.044000e+03 1.281994e+02
1.045000e+03 1.324168e+02
1.046000e+03 1.371163e+02
1.047000e+03 1.416401e+02
1.048000e+03 1.446427e+02
1.049000e+03 1.430932e+02
1.050000e+03 1.563058e+02
1.051000e+03 1.614101e+02
1.052000e+03 1.671969e+02
1.053000e+03 1.725000e+02
1.054000e+03 1.618211e+02
1.055000e+03 1.689648e+02
1.056000e+03 1.905860e+02
1.057000e+03 1.967962e+02
1.058000e+03 2.030418e+02
1.059000e+03 2.090254e+02
1.060000e+03 2.141705e+02
1.061000e+03 2.240628e+02
1.062000e+03 2.307615e+02
1.063000e+03 8.398573e+01
1.064000e+03 8.260358e+01
1.065000e+03 2.380135e+02
1.066000e+03 1.487289e+02
1.067000e+03 2.685512e+02
1.068000e+03 2.806003e+02
1.069000e+03 2.733118e+02
1.070000e+03 2.986340e+02
1.071000e+03 3.087265e+02
1.072000e+03 3.186255e+02
1.073000e+03 3.138470e+02
1.074000e+03 3.391626e+02
1.075000e+03 3.498578e+02
1.076000e+03 3.612179e+02
1.077000e+03 3.495966e+02
1.078000e+03 3.837236e+02
1.079000e+03 3.960596e+02
1.080000e+03 4.090255e+02
1.081000e+03 4.221917e+02
1.082000e+03 4.351383e+02
1.083000e+03 4.489680e+02
1.084000e+03 4.630574e+02
1.085000e+03 3.166504e+02
1.086000e+03 4.923266e+02
1.087000e+03 5.044383e+02
1.088000e+03 5.213492e+02
1.089000e+03 5.392997e+02
1.090000e+03 5.548459e+02
1.091000e+03 5.694379e+02
1.092000e+03 5.897257e+02
1.093000e+03 6.078860e+02
1.094000e+03 6.268719e+02
1.095000e+03 6.459426e+02
1.096000e+03 6.585236e+02
1.097000e+03 6.533267e+02
1.098000e+03 6.814443e+02
1.099000e+03 7.272294e+02
1.100000e+03 6.751827e+02
1.101000e+03 7.007269e+02
1.102000e+03 1.653517e+03
1.103000e+03 6.214143e+03
1.104000e+03 2.262132e+03
1.105000e+03 7.957139e+02
1.106000e+03 1.702940e+04
1.107000e+03 9.848778e+03
1.108000e+03 1.699232e+04
1.109000e+03 9.764206e+03
1.110000e+03 6.336364e+03
1.111000e+03 2.037891e+03
1.112000e+03 1.593832e+04
1.113000e+03 1.998335e+04
1.114000e+03 7.144492e+02
1.115000e+03 1.852271e+04
1.116000e+03 1.874524e+04
1.117000e+03 8.312324e+02
1.118000e+03 1.220432e+04
1.119000e+03 2.239761e+04
1.120000e+03 2.048996e+04
1.121000e+03 2.264834e+04
1.122000e+03 5.529014e+02
1.123000e+03 1.648993e+03
1.124000e+03 2.482831e+04
1.125000e+03 1.652979e+04
1.126000e+03 2.597812e+04
1.127000e+03 2.535022e+04
1.128000e+03 1.390159e+04
1.129000e+03 2.672951e+04
1.130000e+03 2.055761e+04
1.131000e+03 2.874691e+04
1.132000e+03 1.029299e+03
1.133000e+03 2.453503e+04
1.134000e+03 2.696827e+04
1.135000e+03 8.760801e+02
1.136000e+03 3.097200e+04
1.137000e+03 3.254634e+04
1.138000e+03 3.302291e+04
1.139000e+03 3.301641e+04
1.140000e+03 1.020898e+03
1.141000e+03 3.535668e+04
1.142000e+03 3.606906e+04
1.143000e+03 3.657385e+04
1.144000e+03 3.753934e+04
1.145000e+03 2.433587e+04
1.146000e+03 3.918023e+04
1.147000e+03 3.922155e+04
1.148000e+03 3.764448e+04
1.149000e+03 4.151515e+04
1.150000e+03 4.224100e+04
1.151000e+03 4.296212e+04
1.152000e+03 4.427332e+04
1.153000e+03 1.826153e+04
1.154000e+03 3.356514e+04
1.155000e+03 4.635780e+04
1.156000e+03 7.750328e+03
1.157000e+03 4.870440e+04
1.158000e+03 1.752896e+03
1.159000e+03 4.049905e+04
1.160000e+03 5.145959e+04
1.161000e+03 5.305870e+04
1.162000e+03 1.716373e+04
1.163000e+03 5.439585e+04
1.164000e+03 2.126844e+03
1.165000e+03 5.757780e+04
1.166000e+03 5.892633e+04
1.167000e+03 6.031196e+04
1.168000e+03 6.203834e+04
1.169000e+03 6.091853e+04
1.170000e+03 6.498996e+04
1.171000e+03 6.668267e+04
1.172000e+03 6.799150e+04
1.173000e+03 6.996568e+04
1.174000e+03 6.355428e+04
1.175000e+03 2.894328e+03
1.176000e+03 2.920617e+03
1.177000e+03 7.673637e+04
1.178000e+03 7.788301e+04
1.179000e+03 8.022163e+04
1.180000e+03 6.950638e+04
1.181000e+03 8.364972e+04
1.182000e+03 8.619263e+04
1.183000e+03 8.790623e+04
1.184000e+03 8.962193e+04
1.185000e+03 9.126666e+04
1.186000e+03 9.040841e+04
1.187000e+03 9.483188e+04
1.188000e+03 9.585360e+04
1.189000e+03 4.229875e+03
1.190000e+03 1.022375e+04
1.191000e+03 9.908756e+04
1.192000e+03 1.003685e+05
1.193000e+03 4.443305e+03
1.194000e+03 4.886953e+03
1.195000e+03 9.101792e+04
1.196000e+03 1.043126e+05
1.197000e+03 2.001353e+05
1.198000e+03 1.953562e+05
1.199000e+03 1.927217e+05
1.200000e+03 1.642962e+05
1.201000e+03 1.759168e+05
1.202000e+03 1.722901e+05
1.203000e+03 2.530770e+05
1.204000e+03 2.163439e+05
1.205000e+03 1.933228e+05
1.206000e+03 1.817375e+05
1.207000e+03 1.334748e+04
1.208000e+03 1.129009e+05
1.209000e+03 7.748382e+04
1.210000e+03 7.521457e+03
1.211000e+03 3.855159e+04
1.212000e+03 2.320031e+04
1.213000e+03 1.481277e+04
1.214000e+03 9.992196e+03
1.215000e+03 8.634530e+03
1.216000e+03 8.650050e+03
1.217000e+03 9.865495e+03
1.218000e+03 1.434066e+04
1.219000e+03 2.413296e+04
1.220000e+03 4.085750e+04
1.221000e+03 6.589605e+04
1.222000e+03 1.001447e+05
1.223000e+03 1.431489e+05
1.224000e+03 1.963708e+05
1.225000e+03 2.504534e+05
1.226000e+03 3.291976e+05
1.227000e+03 3.979622e+05
1.228000e+03 4.850044e+05
1.229000e+03 5.797191e+05
1.230000e+03 5.253782e+05
1.231000e+03 7.411132e+05
1.232000e+03 8.685290e+05
1.233000e+03 9.704732e+05
1.234000e+03 4.730122e+05
1.235000e+03 1.174411e+06
1.236000e+03 1.238782e+06
1.237000e+03 1.377393e+06
1.238000e+03 1.478766e+06
1.239000e+03 1.573963e+06
1.240000e+03 1.324236e+06
1.241000e+03 2.293038e+06
1.242000e+03 1.623862e+06
1.243000e+03 2.209244e+06
1.244000e+03 1.129058e+06
1.245000e+03 1.640333e+06
1.246000e+03 3.388658e+06
1.247000e+03 3.472061e+06
1.248000e+03 1.183823e+06
1.249000e+03 1.603194e+06
1.250000e+03 3.947782e+06
1.251000e+03 4.287006e+06
1.252000e+03 4.408788e+06
1.253000e+03 4.645207e+06
1.254000e+03 4.792204e+06
1.255000e+03 4.633740e+06
1.256000e+03 5.050867e+06
1.257000e+03 5.157936e+06
1.258000e+03 5.274754e+06
1.259000e+03 5.440764e+06
1.260000e+03 4.411225e+06
1.261000e+03 2.705364e+04
1.262000e+03 8.188930e+05
1.263000e+03 5.861684e+06
1.264000e+03 5.531328e+06
1.265000e+03 2.910375e+04
1.266000e+03 6.532614e+06
1.267000e+03 6.876609e+06
