# wavelength_A flux
5.000000e+02 4.954402e-22
5.010000e+02 5.986036e-22
5.020000e+02 7.226911e-22
5.030000e+02 8.718332e-22
5.040000e+02 1.050953e-21
5.050000e+02 1.306084e-21
5.060000e+02 1.571486e-21
5.070000e+02 1.888915e-21
5.080000e+02 2.269573e-21
5.090000e+02 2.724431e-21
5.100000e+02 3.142360e-21
5.110000e+02 3.917365e-21
5.120000e+02 4.691071e-21
5.130000e+02 5.616415e-21
5.140000e+02 6.717819e-21
5.150000e+02 8.029437e-21
5.160000e+02 9.590349e-21
5.170000e+02 1.144706e-20
5.180000e+02 1.365370e-20
5.190000e+02 1.627426e-20
5.200000e+02 1.938446e-20
5.210000e+02 2.307322e-20
5.220000e+02 2.744089e-20
5.230000e+02 3.262376e-20
5.240000e+02 3.875378e-20
5.250000e+02 4.600458e-20
5.260000e+02 5.457566e-20
5.270000e+02 6.470087e-20
5.280000e+02 7.665420e-20
5.290000e+02 9.075106e-20
5.300000e+02 1.073838e-19
5.310000e+02 1.269751e-19
5.320000e+02 1.500443e-19
5.330000e+02 1.771917e-19
5.340000e+02 2.091179e-19
5.350000e+02 2.466404e-19
5.360000e+02 2.907106e-19
5.370000e+02 3.379322e-19
5.380000e+02 4.031338e-19
5.390000e+02 4.742946e-19
5.400000e+02 5.576665e-19
5.410000e+02 6.552621e-19
5.420000e+02 7.695387e-19
5.430000e+02 9.031621e-19
5.440000e+02 1.059348e-18
5.450000e+02 1.241802e-18
5.460000e+02 1.454771e-18
5.470000e+02 1.703361e-18
5.480000e+02 1.993197e-18
5.490000e+02 2.330987e-18
5.500000e+02 2.724438e-18
5.510000e+02 3.182459e-18
5.520000e+02 3.715343e-18
5.530000e+02 4.334973e-18
5.540000e+02 5.055066e-18
5.550000e+02 5.891439e-18
5.560000e+02 6.862328e-18
5.570000e+02 7.988742e-18
5.580000e+02 9.294871e-18
5.590000e+02 1.080856e-17
5.600000e+02 1.256183e-17
5.610000e+02 1.459149e-17
5.620000e+02 1.693987e-17
5.630000e+02 1.965553e-17
5.640000e+02 2.279423e-17
5.650000e+02 2.641997e-17
5.660000e+02 3.060609e-17
5.670000e+02 3.543665e-17
5.680000e+02 4.100796e-17
5.690000e+02 4.743025e-17
5.700000e+02 5.482968e-17
5.710000e+02 6.335051e-17
5.720000e+02 7.315769e-17
5.730000e+02 8.443963e-17
5.740000e+02 9.741153e-17
5.750000e+02 1.123190e-16
5.760000e+02 1.294404e-16
5.770000e+02 1.491037e-16
5.780000e+02 1.716621e-16
5.790000e+02 1.975350e-16
5.800000e+02 2.271945e-16
5.810000e+02 2.611783e-16
5.820000e+02 3.000975e-16
5.830000e+02 3.446449e-16
5.840000e+02 3.955216e-16
5.850000e+02 4.538868e-16
5.860000e+02 5.205414e-16
5.870000e+02 5.966702e-16
5.880000e+02 6.836041e-16
5.890000e+02 7.828322e-16
5.900000e+02 8.960412e-16
5.910000e+02 1.025141e-15
5.920000e+02 1.172293e-15
5.930000e+02 1.339946e-15
5.940000e+02 1.530868e-15
5.950000e+02 1.748190e-15
5.960000e+02 1.995450e-15
5.970000e+02 2.276645e-15
5.980000e+02 2.596291e-15
5.990000e+02 2.959482e-15
6.000000e+02 3.371968e-15
6.010000e+02 3.840231e-15
6.020000e+02 4.371582e-15
6.030000e+02 4.974256e-15
6.040000e+02 5.657529e-15
6.050000e+02 6.431846e-15
6.060000e+02 7.308958e-15
6.070000e+02 8.302088e-15
6.080000e+02 9.426103e-15
6.090000e+02 1.069771e-14
6.100000e+02 1.213568e-14
6.110000e+02 1.376111e-14
6.120000e+02 1.559764e-14
6.130000e+02 1.767186e-14
6.140000e+02 2.001353e-14
6.150000e+02 2.265606e-14
6.160000e+02 2.563689e-14
6.170000e+02 2.899795e-14
6.180000e+02 3.278620e-14
6.190000e+02 3.705421e-14
6.200000e+02 4.186082e-14
6.210000e+02 4.727181e-14
6.220000e+02 5.336078e-14
6.230000e+02 6.020994e-14
6.240000e+02 6.791117e-14
6.250000e+02 7.656707e-14
6.260000e+02 8.629219e-14
6.270000e+02 9.721437e-14
6.280000e+02 1.094762e-13
6.290000e+02 1.232367e-13
6.300000e+02 1.386730e-13
6.310000e+02 1.559308e-13
6.320000e+02 1.753862e-13
6.330000e+02 1.971278e-13
6.340000e+02 2.214807e-13
6.350000e+02 2.487458e-13
6.360000e+02 2.792670e-13
6.370000e+02 3.134132e-13
6.380000e+02 3.516034e-13
6.390000e+02 3.943009e-13
6.400000e+02 4.420203e-13
6.410000e+02 4.953327e-13
6.420000e+02 5.548722e-13
6.430000e+02 6.213423e-13
6.440000e+02 6.955230e-13
6.450000e+02 7.782792e-13
6.460000e+02 8.705697e-13
6.470000e+02 9.734549e-13
6.480000e+02 1.088113e-12
6.490000e+02 1.215847e-12
6.500000e+02 1.358097e-12
6.510000e+02 1.516458e-12
6.520000e+02 1.692693e-12
6.530000e+02 1.888753e-12
6.540000e+02 2.106793e-12
6.550000e+02 2.349195e-12
6.560000e+02 2.618590e-12
6.570000e+02 2.917882e-12
6.580000e+02 3.250280e-12
6.590000e+02 3.619318e-12
6.600000e+02 4.028902e-12
6.610000e+02 4.483335e-12
6.620000e+02 4.987362e-12
6.630000e+02 5.546211e-12
6.640000e+02 6.165644e-12
6.650000e+02 6.852006e-12
6.660000e+02 7.612301e-12
6.670000e+02 8.454178e-12
6.680000e+02 9.386118e-12
6.690000e+02 1.041742e-11
6.700000e+02 1.155833e-11
6.710000e+02 1.282008e-11
6.720000e+02 1.421503e-11
6.730000e+02 1.575678e-11
6.740000e+02 1.746022e-11
6.750000e+02 1.934174e-11
6.760000e+02 2.141931e-11
6.770000e+02 2.371264e-11
6.780000e+02 2.624338e-11
6.790000e+02 2.903525e-11
6.800000e+02 3.211425e-11
6.810000e+02 3.550889e-11
6.820000e+02 3.925039e-11
6.830000e+02 4.337297e-11
6.840000e+02 4.791408e-11
6.850000e+02 5.291473e-11
6.860000e+02 5.841978e-11
6.870000e+02 6.447834e-11
6.880000e+02 7.114408e-11
6.890000e+02 7.847571e-11
6.900000e+02 8.653742e-11
6.910000e+02 9.539939e-11
6.920000e+02 1.051382e-10
6.930000e+02 1.158376e-10
6.940000e+02 1.275890e-10
6.950000e+02 1.404920e-10
6.960000e+02 1.546555e-10
6.970000e+02 1.701983e-10
6.980000e+02 1.872501e-10
6.990000e+02 2.059519e-10
7.000000e+02 2.264578e-10
7.010000e+02 2.489355e-10
7.020000e+02 2.735680e-10
7.030000e+02 3.005542e-10
7.040000e+02 3.301112e-10
7.050000e+02 3.624749e-10
7.060000e+02 3.978943e-10
7.070000e+02 4.366727e-10
7.080000e+02 4.790905e-10
7.090000e+02 5.254864e-10
7.100000e+02 5.762197e-10
7.110000e+02 6.316814e-10
7.120000e+02 6.922961e-10
7.130000e+02 7.585251e-10
7.140000e+02 8.308695e-10
7.150000e+02 9.098735e-10
7.160000e+02 9.961274e-10
7.170000e+02 1.090272e-09
7.180000e+02 1.193004e-09
7.190000e+02 1.305076e-09
7.200000e+02 1.427308e-09
7.210000e+02 1.560585e-09
7.220000e+02 1.705870e-09
7.230000e+02 1.864204e-09
7.240000e+02 2.036717e-09
7.250000e+02 2.224629e-09
7.260000e+02 2.429267e-09
7.270000e+02 2.652062e-09
7.280000e+02 2.894566e-09
7.290000e+02 3.158458e-09
7.300000e+02 3.445553e-09
7.310000e+02 3.757816e-09
7.320000e+02 4.097371e-09
7.330000e+02 4.466516e-09
7.340000e+02 4.867728e-09
7.350000e+02 5.303689e-09
7.360000e+02 5.777298e-09
7.370000e+02 6.291684e-09
7.380000e+02 6.850223e-09
7.390000e+02 7.456564e-09
7.400000e+02 8.114642e-09
7.410000e+02 8.828706e-09
7.420000e+02 9.603337e-09
7.430000e+02 1.044348e-08
7.440000e+02 1.135446e-08
7.450000e+02 1.234203e-08
7.460000e+02 1.341237e-08
7.470000e+02 1.457217e-08
7.480000e+02 1.582861e-08
7.490000e+02 1.718943e-08
7.500000e+02 1.866299e-08
7.510000e+02 2.025825e-08
7.520000e+02 2.198489e-08
7.530000e+02 2.385330e-08
7.540000e+02 2.587468e-08
7.550000e+02 2.806107e-08
7.560000e+02 3.042542e-08
7.570000e+02 3.298165e-08
7.580000e+02 3.574474e-08
7.590000e+02 3.873078e-08
7.600000e+02 4.195704e-08
7.610000e+02 4.544211e-08
7.620000e+02 4.920594e-08
7.630000e+02 5.326995e-08
7.640000e+02 5.765717e-08
7.650000e+02 6.239225e-08
7.660000e+02 6.750177e-08
7.670000e+02 7.301411e-08
7.680000e+02 7.895981e-08
7.690000e+02 8.537137e-08
7.700000e+02 9.228454e-08
7.710000e+02 9.973630e-08
7.720000e+02 1.077672e-07
7.730000e+02 1.164205e-07
7.740000e+02 1.257425e-07
7.750000e+02 1.357828e-07
7.760000e+02 1.465946e-07
7.770000e+02 1.582348e-07
7.780000e+02 1.707643e-07
7.790000e+02 1.842485e-07
7.800000e+02 1.987570e-07
7.810000e+02 2.143647e-07
7.820000e+02 2.311515e-07
7.830000e+02 2.492028e-07
7.840000e+02 2.686101e-07
7.850000e+02 2.894712e-07
7.860000e+02 3.118907e-07
7.870000e+02 3.359801e-07
7.880000e+02 3.618589e-07
7.890000e+02 3.896546e-07
7.900000e+02 4.195036e-07
7.910000e+02 4.515512e-07
7.920000e+02 4.859530e-07
7.930000e+02 5.228747e-07
7.940000e+02 5.624935e-07
7.950000e+02 6.049984e-07
7.960000e+02 6.505911e-07
7.970000e+02 6.994866e-07
7.980000e+02 7.519145e-07
7.990000e+02 8.081195e-07
8.000000e+02 8.683627e-07
8.010000e+02 9.329221e-07
8.020000e+02 1.002094e-06
8.030000e+02 1.076196e-06
8.040000e+02 1.155562e-06
8.050000e+02 1.240690e-06
8.060000e+02 1.331552e-06
8.070000e+02 1.428962e-06
8.080000e+02 1.533219e-06
8.090000e+02 1.644784e-06
8.100000e+02 1.764149e-06
8.110000e+02 1.891834e-06
8.120000e+02 2.028397e-06
8.130000e+02 2.174428e-06
8.140000e+02 2.330558e-06
8.150000e+02 2.497454e-06
8.160000e+02 2.675828e-06
8.170000e+02 2.866437e-06
8.180000e+02 3.070085e-06
8.190000e+02 3.287626e-06
8.200000e+02 3.519967e-06
8.210000e+02 3.768074e-06
8.220000e+02 4.032971e-06
8.230000e+02 4.315745e-06
8.240000e+02 4.617554e-06
8.250000e+02 4.939623e-06
8.260000e+02 5.283255e-06
8.270000e+02 5.649833e-06
8.280000e+02 6.040823e-06
8.290000e+02 6.457782e-06
8.300000e+02 6.902361e-06
8.310000e+02 7.376311e-06
8.320000e+02 7.881491e-06
8.330000e+02 8.419869e-06
8.340000e+02 8.993535e-06
8.350000e+02 9.604758e-06
8.360000e+02 1.025571e-05
8.370000e+02 1.094906e-05
8.380000e+02 1.168737e-05
8.390000e+02 1.247344e-05
8.400000e+02 1.331021e-05
8.410000e+02 1.420084e-05
8.420000e+02 1.514863e-05
8.430000e+02 1.615707e-05
8.440000e+02 1.722989e-05
8.450000e+02 1.837103e-05
8.460000e+02 1.958464e-05
8.470000e+02 2.087513e-05
8.480000e+02 2.224715e-05
8.490000e+02 2.370562e-05
8.500000e+02 2.525576e-05
8.510000e+02 2.690308e-05
8.520000e+02 2.865340e-05
8.530000e+02 3.051288e-05
8.540000e+02 3.248802e-05
8.550000e+02 3.458571e-05
8.560000e+02 3.681321e-05
8.570000e+02 3.917819e-05
8.580000e+02 4.168916e-05
8.590000e+02 4.435354e-05
8.600000e+02 4.718151e-05
8.610000e+02 5.018227e-05
8.620000e+02 5.336585e-05
8.630000e+02 5.674294e-05
8.640000e+02 6.032477e-05
8.650000e+02 6.412320e-05
8.660000e+02 6.815074e-05
8.670000e+02 7.242058e-05
8.680000e+02 7.694666e-05
8.690000e+02 8.174367e-05
8.700000e+02 8.682709e-05
8.710000e+02 9.221325e-05
8.720000e+02 9.791936e-05
8.730000e+02 1.039636e-04
8.740000e+02 1.103651e-04
8.750000e+02 1.171439e-04
8.760000e+02 1.243215e-04
8.770000e+02 1.319200e-04
8.780000e+02 1.399631e-04
8.790000e+02 1.484757e-04
8.800000e+02 1.574839e-04
8.810000e+02 1.670152e-04
8.820000e+02 1.770986e-04
8.830000e+02 1.877647e-04
8.840000e+02 1.990455e-04
8.850000e+02 2.109749e-04
8.860000e+02 2.235885e-04
8.870000e+02 2.369237e-04
8.880000e+02 2.510199e-04
8.890000e+02 2.659185e-04
8.900000e+02 2.816631e-04
8.910000e+02 2.982995e-04
8.920000e+02 3.158795e-04
8.930000e+02 3.344430e-04
8.940000e+02 3.540540e-04
8.950000e+02 3.747648e-04
8.960000e+02 3.966344e-04
8.970000e+02 4.197245e-04
8.980000e+02 4.441001e-04
8.990000e+02 4.698293e-04
9.000000e+02 4.969839e-04
9.010000e+02 5.256392e-04
9.020000e+02 5.558742e-04
9.030000e+02 5.877722e-04
9.040000e+02 6.214195e-04
9.050000e+02 6.569084e-04
9.060000e+02 6.943353e-04
9.070000e+02 7.337992e-04
9.080000e+02 7.754077e-04
9.090000e+02 8.192710e-04
9.100000e+02 8.655058e-04
9.110000e+02 9.142339e-04
9.120000e+02 9.655809e-04
9.130000e+02 1.021014e-03
9.140000e+02 1.098573e-03
9.150000e+02 9.765591e-02
9.160000e+02 4.139516e-01
9.170000e+02 2.798276e-02
9.180000e+02 1.313010e-01
9.190000e+02 1.022702e+00
9.200000e+02 2.273452e+00
9.210000e+02 1.572190e-03
9.220000e+02 9.008720e-01
9.230000e+02 2.672714e-02
9.240000e+02 5.693817e-02
9.250000e+02 2.316171e-01
9.260000e+02 1.757045e-01
9.270000e+02 4.037702e-02
9.280000e+02 7.491041e+00
9.290000e+02 8.490933e+00
9.300000e+02 2.797311e+00
9.310000e+02 3.368828e-02
9.320000e+02 7.370790e+00
9.330000e+02 9.337502e-01
9.340000e+02 3.658028e-01
9.350000e+02 6.533876e-02
9.360000e+02 7.547443e-02
9.370000e+02 1.905622e-02
9.380000e+02 4.368404e-02
9.390000e+02 1.436120e-01
9.400000e+02 5.627379e+00
9.410000e+02 1.110065e+00
9.420000e+02 2.124511e+01
9.430000e+02 2.137580e-01
9.440000e+02 2.376801e+01
9.450000e+02 2.123575e+01
9.460000e+02 2.522625e+00
9.470000e+02 2.611786e-02
9.480000e+02 9.246936e+00
9.490000e+02 1.750121e+00
9.500000e+02 5.896270e-02
9.510000e+02 1.659560e+00
9.520000e+02 3.181913e+00
9.530000e+02 6.291762e-02
9.540000e+02 3.126369e-02
9.550000e+02 5.804615e-01
9.560000e+02 2.899908e+01
9.570000e+02 2.989788e-01
9.580000e+02 1.969737e-02
9.590000e+02 1.990429e+01
9.600000e+02 1.057959e-01
9.610000e+02 2.797958e+00
9.620000e+02 1.144767e+00
9.630000e+02 5.305614e-01
9.640000e+02 2.922368e-02
9.650000e+02 6.425476e-02
9.660000e+02 6.317329e-01
9.670000e+02 1.710634e-01
9.680000e+02 1.125927e-01
9.690000e+02 2.618210e+00
9.700000e+02 2.040418e+00
9.710000e+02 1.950392e-01
9.720000e+02 1.438643e-01
9.730000e+02 4.436870e-01
9.740000e+02 2.475468e+00
9.750000e+02 1.008386e+00
9.760000e+02 1.497887e+01
9.770000e+02 8.915438e+00
9.780000e+02 3.275969e+00
9.790000e+02 7.442316e+01
9.800000e+02 7.579053e+01
9.810000e+02 3.144623e+00
9.820000e+02 7.029934e-01
9.830000e+02 4.428508e+01
9.840000e+02 5.931845e+00
9.850000e+02 1.764093e+00
9.860000e+02 2.304592e+00
9.870000e+02 5.367714e+01
9.880000e+02 1.484604e-01
9.890000e+02 1.001566e+01
9.900000e+02 7.799272e+00
9.910000e+02 5.663047e-01
9.920000e+02 8.656023e-02
9.930000e+02 1.365603e+02
9.940000e+02 9.559202e-02
9.950000e+02 1.307631e+01
9.960000e+02 3.337097e-01
9.970000e+02 9.791833e+00
9.980000e+02 2.527072e+01
9.990000e+02 1.101355e+00
1.000000e+03 1.942316e+02
1.001000e+03 1.739242e+02
1.002000e+03 1.137629e+02
1.003000e+03 1.362030e+00
1.004000e+03 2.725372e-01
1.005000e+03 3.039108e+00
1.006000e+03 8.287984e+01
1.007000e+03 1.441389e+02
1.008000e+03 4.511250e+01
1.009000e+03 2.069987e+00
1.010000e+03 4.953683e+01
1.011000e+03 9.594427e+01
1.012000e+03 5.473674e+01
1.013000e+03 4.681171e+01
1.014000e+03 2.153416e-01
1.015000e+03 3.789444e-01
1.016000e+03 3.275894e+00
1.017000e+03 2.299423e-01
1.018000e+03 2.129395e+00
1.019000e+03 4.074249e-01
1.020000e+03 1.309758e+02
1.021000e+03 2.190338e+00
1.022000e+03 3.319916e+00
1.023000e+03 5.914917e-01
1.024000e+03 2.786286e+01
1.025000e+03 2.905476e-01
1.026000e+03 3.775595e-01
1.027000e+03 8.138618e+00
1.028000e+03 1.457874e+00
1.029000e+03 3.949928e-01
1.030000e+03 1.562056e+01
1.031000e+03 1.374918e+01
1.032000e+03 1.277281e+02
1.033000e+03 1.053586e+01
1.034000e+03 2.513790e+01
1.035000e+03 1.038017e+00
1.036000e+03 5.691376e-01
1.037000e+03 1.100320e+02
1.038000e+03 5.043090e+02
1.039000e+03 1.245160e+02
1.040000e+03 1.575938e+02
1.041000e+03 8.210430e+02
1.042000e+03 3.784492e+02
1.043000e+03 3.571100e+02
1.044000e+03 1.340270e+03
1.045000e+03 1.054448e+00
1.046000e+03 2.071458e+02
1.047000e+03 4.165900e+01
1.048000e+03 2.718872e+00
1.049000e+03 5.719132e+01
1.050000e+03 2.519034e+01
1.051000e+03 1.461526e+01
1.052000e+03 3.759497e+02
1.053000e+03 8.607375e+02
1.054000e+03 1.070312e+00
1.055000e+03 1.117971e+03
1.056000e+03 1.126696e+03
1.057000e+03 1.028542e+02
1.058000e+03 1.830779e+01
1.059000e+03 7.484863e+00
1.060000e+03 4.195221e+00
1.061000e+03 1.440488e+02
1.062000e+03 1.065581e+01
1.063000e+03 1.268282e+02
1.064000e+03 1.821777e+00
1.065000e+03 1.695740e+00
1.066000e+03 1.955491e+02
1.067000e+03 7.863176e+00
1.068000e+03 2.331496e+03
1.069000e+03 3.625290e+00
1.070000e+03 1.019277e+02
1.071000e+03 1.089850e+03
1.072000e+03 1.360225e+03
1.073000e+03 2.642334e+00
1.074000e+03 1.022312e+02
1.075000e+03 6.447949e+01
1.076000e+03 1.601145e+03
1.077000e+03 1.097639e+01
1.078000e+03 2.211707e+01
1.079000e+03 7.239424e+01
1.080000e+03 1.636856e+02
1.081000e+03 4.334018e+02
1.082000e+03 3.122852e+02
1.083000e+03 1.882361e+02
1.084000e+03 3.634812e+03
1.085000e+03 6.541223e+01
1.086000e+03 2.961572e+03
1.087000e+03 1.802490e+01
1.088000e+03 5.068680e+03
1.089000e+03 4.870297e+03
1.090000e+03 5.322849e+01
1.091000e+03 6.253809e+01
1.092000e+03 3.406111e+03
1.093000e+03 3.749276e+03
1.094000e+03 5.029112e+02
1.095000e+03 5.610456e+03
1.096000e+03 1.032837e+03
1.097000e+03 1.044855e+03
1.098000e+03 5.310557e+03
1.099000e+03 1.871519e+02
1.100000e+03 1.188953e+01
1.101000e+03 2.121510e+01
1.102000e+03 9.675460e+01
1.103000e+03 4.301445e+03
1.104000e+03 7.367493e+03
1.105000e+03 5.625333e+03
1.106000e+03 3.954421e+02
1.107000e+03 1.389404e+01
1.108000e+03 1.616557e+03
1.109000e+03 6.275635e+01
1.110000e+03 8.789298e+03
1.111000e+03 3.932365e+03
1.112000e+03 9.017046e+02
1.113000e+03 6.110628e+03
1.114000e+03 6.000343e+02
1.115000e+03 9.749127e+01
1.116000e+03 6.400080e+01
1.117000e+03 3.659099e+03
1.118000e+03 9.494788e+01
1.119000e+03 1.299881e+03
1.120000e+03 6.789722e+01
1.121000e+03 3.267506e+03
1.122000e+03 4.351330e+03
1.123000e+03 5.344577e+03
1.124000e+03 5.716756e+03
1.125000e+03 3.042626e+03
1.126000e+03 1.578284e+04
1.127000e+03 5.274664e+03
1.128000e+03 8.964041e+03
1.129000e+03 2.281426e+03
1.130000e+03 7.476905e+03
1.131000e+03 1.063947e+04
1.132000e+03 1.159994e+02
1.133000e+03 2.915566e+02
1.134000e+03 2.277234e+03
1.135000e+03 4.815040e+03
1.136000e+03 6.665073e+02
1.137000e+03 7.023621e+03
1.138000e+03 2.067708e+03
1.139000e+03 1.144232e+04
1.140000e+03 1.238260e+04
1.141000e+03 9.285837e+03
1.142000e+03 1.401746e+04
1.143000e+03 4.039967e+03
1.144000e+03 1.369600e+04
1.145000e+03 7.101562e+01
1.146000e+03 1.582132e+04
1.147000e+03 1.187701e+04
1.148000e+03 2.590576e+02
1.149000e+03 8.068259e+03
1.150000e+03 4.854589e+03
1.151000e+03 1.591648e+04
1.152000e+03 1.142807e+04
1.153000e+03 1.231406e+04
1.154000e+03 1.627244e+04
1.155000e+03 6.588602e+03
1.156000e+03 1.462082e+04
1.157000e+03 1.603025e+04
1.158000e+03 4.068457e+03
1.159000e+03 1.402792e+04
1.160000e+03 3.627646e+03
1.161000e+03 1.318780e+04
1.162000e+03 8.385811e+02
1.163000e+03 1.979171e+03
1.164000e+03 1.948110e+02
1.165000e+03 9.076721e+03
1.166000e+03 5.440383e+03
1.167000e+03 4.696714e+03
1.168000e+03 1.762743e+04
1.169000e+03 1.838544e+04
1.170000e+03 4.357692e+03
1.171000e+03 9.969090e+03
1.172000e+03 4.319859e+03
1.173000e+03 9.686021e+03
1.174000e+03 2.921553e+02
1.175000e+03 1.458721e+02
1.176000e+03 7.855981e+01
1.177000e+03 2.203273e+04
1.178000e+03 2.172493e+04
1.179000e+03 1.857079e+04
1.180000e+03 8.659991e+03
1.181000e+03 2.042439e+04
1.182000e+03 1.715502e+04
1.183000e+03 1.016015e+04
1.184000e+03 8.516921e+03
1.185000e+03 1.139480e+04
1.186000e+03 1.089745e+03
1.187000e+03 1.383667e+04
1.188000e+03 6.104925e+03
1.189000e+03 1.753354e+04
1.190000e+03 1.743348e+04
1.191000e+03 1.250180e+04
1.192000e+03 1.516511e+04
1.193000e+03 8.804531e+03
1.194000e+03 1.427780e+04
1.195000e+03 1.422364e+04
1.196000e+03 3.794618e+04
1.197000e+03 5.951692e+04
1.198000e+03 2.665537e+03
1.199000e+03 5.773180e+04
1.200000e+03 5.469102e+03
1.201000e+03 5.087630e+04
1.202000e+03 1.666681e+04
1.203000e+03 3.889496e+04
1.204000e+03 4.652546e+03
1.205000e+03 3.022629e+04
1.206000e+03 3.179296e+04
1.207000e+03 1.061955e+04
1.208000e+03 2.084822e+04
1.209000e+03 1.952126e+04
1.210000e+03 2.613027e+02
1.211000e+03 9.645188e+03
1.212000e+03 4.659640e+03
1.213000e+03 2.926455e+03
1.214000e+03 1.030197e+03
1.215000e+03 2.654501e+02
1.216000e+03 2.091962e+02
1.217000e+03 7.004141e+02
1.218000e+03 2.435510e+03
1.219000e+03 5.613481e+03
1.220000e+03 4.220967e+03
1.221000e+03 1.647640e+04
1.222000e+03 1.940456e+04
1.223000e+03 2.192298e+04
1.224000e+03 3.877186e+04
1.225000e+03 3.440758e+03
1.226000e+03 5.991017e+04
1.227000e+03 6.395026e+04
1.228000e+03 1.419570e+04
1.229000e+03 5.702259e+04
1.230000e+03 4.342546e+04
1.231000e+03 1.047343e+04
1.232000e+03 1.123270e+05
1.233000e+03 1.232572e+05
1.234000e+03 1.093615e+05
1.235000e+03 1.133832e+05
1.236000e+03 1.967625e+04
1.237000e+03 1.410442e+05
1.238000e+03 1.212816e+05
1.239000e+03 8.426100e+04
1.240000e+03 1.015072e+05
1.241000e+03 7.675511e+04
1.242000e+03 1.232430e+05
1.243000e+03 1.745525e+05
1.244000e+03 1.912234e+05
1.245000e+03 1.680497e+05
1.246000e+03 1.291916e+05
1.247000e+03 1.534842e+05
1.248000e+03 1.830685e+05
1.249000e+03 2.229921e+05
1.250000e+03 1.590903e+05
1.251000e+03 2.233251e+05
1.252000e+03 1.789252e+05
1.253000e+03 2.348826e+05
1.254000e+03 1.916037e+05
1.255000e+03 1.466360e+05
1.256000e+03 1.737809e+05
1.257000e+03 2.023253e+05
1.258000e+03 1.066648e+05
1.259000e+03 1.602676e+05
1.260000e+03 2.541330e+05
1.261000e+03 3.135486e+04
1.262000e+03 2.799297e+05
1.263000e+03 2.387044e+05
1.264000e+03 1.366892e+05
1.265000e+03 8.632094e+03
1.266000e+03 2.746716e+05
1.267000e+03 1.750214e+05
