# wavelength_A flux
5.000000e+02 1.670809e-14
5.010000e+02 1.949611e-14
5.020000e+02 2.273494e-14
5.030000e+02 2.649514e-14
5.040000e+02 3.085795e-14
5.050000e+02 3.751396e-14
5.060000e+02 4.362581e-14
5.070000e+02 5.070236e-14
5.080000e+02 5.889096e-14
5.090000e+02 6.836428e-14
5.100000e+02 7.930957e-14
5.110000e+02 9.195224e-14
5.120000e+02 1.065469e-13
5.130000e+02 1.233851e-13
5.140000e+02 1.428005e-13
5.150000e+02 1.651725e-13
5.160000e+02 1.909431e-13
5.170000e+02 2.205845e-13
5.180000e+02 2.547272e-13
5.190000e+02 2.939603e-13
5.200000e+02 3.390435e-13
5.210000e+02 3.908192e-13
5.220000e+02 4.501640e-13
5.230000e+02 5.184275e-13
5.240000e+02 5.966014e-13
5.250000e+02 6.861941e-13
5.260000e+02 7.887988e-13
5.270000e+02 9.062517e-13
5.280000e+02 1.040630e-12
5.290000e+02 1.193677e-12
5.300000e+02 1.369905e-12
5.310000e+02 1.570508e-12
5.320000e+02 1.799545e-12
5.330000e+02 2.060886e-12
5.340000e+02 2.358944e-12
5.350000e+02 2.698700e-12
5.360000e+02 3.085757e-12
5.370000e+02 3.450244e-12
5.380000e+02 4.028129e-12
5.390000e+02 4.599092e-12
5.400000e+02 5.248080e-12
5.410000e+02 5.984862e-12
5.420000e+02 6.823233e-12
5.430000e+02 7.774570e-12
5.440000e+02 8.853947e-12
5.450000e+02 1.007822e-11
5.460000e+02 1.146272e-11
5.470000e+02 1.303890e-11
5.480000e+02 1.482018e-11
5.490000e+02 1.683672e-11
5.500000e+02 1.911849e-11
5.510000e+02 2.169916e-11
5.520000e+02 2.461652e-11
5.530000e+02 2.791296e-11
5.540000e+02 3.163602e-11
5.550000e+02 3.583897e-11
5.560000e+02 4.058151e-11
5.570000e+02 4.593046e-11
5.580000e+02 5.196063e-11
5.590000e+02 5.875572e-11
5.600000e+02 6.640931e-11
5.610000e+02 7.502608e-11
5.620000e+02 8.472290e-11
5.630000e+02 9.563035e-11
5.640000e+02 1.078942e-10
5.650000e+02 1.216770e-10
5.660000e+02 1.371604e-10
5.670000e+02 1.545466e-10
5.680000e+02 1.740611e-10
5.690000e+02 1.959550e-10
5.700000e+02 2.205081e-10
5.710000e+02 2.480318e-10
5.720000e+02 2.788722e-10
5.730000e+02 3.134149e-10
5.740000e+02 3.520881e-10
5.750000e+02 3.953791e-10
5.760000e+02 4.437572e-10
5.770000e+02 4.979346e-10
5.780000e+02 5.584483e-10
5.790000e+02 6.260595e-10
5.800000e+02 7.015701e-10
5.810000e+02 7.858689e-10
5.820000e+02 8.799387e-10
5.830000e+02 9.848565e-10
5.840000e+02 1.101308e-09
5.850000e+02 1.232171e-09
5.860000e+02 1.377636e-09
5.870000e+02 1.539512e-09
5.880000e+02 1.719720e-09
5.890000e+02 1.920262e-09
5.900000e+02 2.143380e-09
5.910000e+02 2.391490e-09
5.920000e+02 2.667297e-09
5.930000e+02 2.973780e-09
5.940000e+02 3.314222e-09
5.950000e+02 3.692051e-09
5.960000e+02 4.111845e-09
5.970000e+02 4.577419e-09
5.980000e+02 5.093818e-09
5.990000e+02 5.666379e-09
6.000000e+02 6.300981e-09
6.010000e+02 7.004091e-09
6.020000e+02 7.782829e-09
6.030000e+02 8.645017e-09
6.040000e+02 9.599257e-09
6.050000e+02 1.065501e-08
6.060000e+02 1.182261e-08
6.070000e+02 1.311361e-08
6.080000e+02 1.454039e-08
6.090000e+02 1.611674e-08
6.100000e+02 1.785774e-08
6.110000e+02 1.977993e-08
6.120000e+02 2.190144e-08
6.130000e+02 2.424214e-08
6.140000e+02 2.682379e-08
6.150000e+02 2.967027e-08
6.160000e+02 3.280767e-08
6.170000e+02 3.626457e-08
6.180000e+02 4.007225e-08
6.190000e+02 4.426492e-08
6.200000e+02 4.887999e-08
6.210000e+02 5.395835e-08
6.220000e+02 5.954470e-08
6.230000e+02 6.568786e-08
6.240000e+02 7.244116e-08
6.250000e+02 7.986281e-08
6.260000e+02 8.801636e-08
6.270000e+02 9.697111e-08
6.280000e+02 1.068028e-07
6.290000e+02 1.175937e-07
6.300000e+02 1.294340e-07
6.310000e+02 1.424145e-07
6.320000e+02 1.566628e-07
6.330000e+02 1.722744e-07
6.340000e+02 1.893828e-07
6.350000e+02 2.081255e-07
6.360000e+02 2.283248e-07
6.370000e+02 2.511286e-07
6.380000e+02 2.757288e-07
6.390000e+02 3.026469e-07
6.400000e+02 3.320924e-07
6.410000e+02 3.642931e-07
6.420000e+02 3.994967e-07
6.430000e+02 4.379717e-07
6.440000e+02 4.800096e-07
6.450000e+02 5.259268e-07
6.460000e+02 5.760681e-07
6.470000e+02 6.308043e-07
6.480000e+02 6.905405e-07
6.490000e+02 7.557160e-07
6.500000e+02 8.268036e-07
6.510000e+02 9.043185e-07
6.520000e+02 9.888181e-07
6.530000e+02 1.080906e-06
6.540000e+02 1.181236e-06
6.550000e+02 1.290514e-06
6.560000e+02 1.409507e-06
6.570000e+02 1.539021e-06
6.580000e+02 1.680015e-06
6.590000e+02 1.833393e-06
6.600000e+02 2.000224e-06
6.610000e+02 2.181637e-06
6.620000e+02 2.378856e-06
6.630000e+02 2.593198e-06
6.640000e+02 2.826089e-06
6.650000e+02 3.079067e-06
6.660000e+02 3.353794e-06
6.670000e+02 3.652058e-06
6.680000e+02 3.975793e-06
6.690000e+02 4.327083e-06
6.700000e+02 4.708170e-06
6.710000e+02 5.121484e-06
6.720000e+02 5.569621e-06
6.730000e+02 6.055413e-06
6.740000e+02 6.581868e-06
6.750000e+02 7.152255e-06
6.760000e+02 7.770082e-06
6.770000e+02 8.439129e-06
6.780000e+02 9.163458e-06
6.790000e+02 9.947445e-06
6.800000e+02 1.079579e-05
6.810000e+02 1.171356e-05
6.820000e+02 1.270617e-05
6.830000e+02 1.377949e-05
6.840000e+02 1.493978e-05
6.850000e+02 1.619379e-05
6.860000e+02 1.754876e-05
6.870000e+02 1.901228e-05
6.880000e+02 2.059326e-05
6.890000e+02 2.229998e-05
6.900000e+02 2.414262e-05
6.910000e+02 2.613111e-05
6.920000e+02 2.827663e-05
6.930000e+02 3.059106e-05
6.940000e+02 3.308710e-05
6.950000e+02 3.577838e-05
6.960000e+02 3.867950e-05
6.970000e+02 4.180466e-05
6.980000e+02 4.517497e-05
6.990000e+02 4.880402e-05
7.000000e+02 5.271246e-05
7.010000e+02 5.692085e-05
7.020000e+02 6.145121e-05
7.030000e+02 6.632706e-05
7.040000e+02 7.157360e-05
7.050000e+02 7.721774e-05
7.060000e+02 8.328829e-05
7.070000e+02 8.981602e-05
7.080000e+02 9.683382e-05
7.090000e+02 1.043768e-04
7.100000e+02 1.124826e-04
7.110000e+02 1.211913e-04
7.120000e+02 1.305457e-04
7.130000e+02 1.405915e-04
7.140000e+02 1.513775e-04
7.150000e+02 1.629559e-04
7.160000e+02 1.753821e-04
7.170000e+02 1.887150e-04
7.180000e+02 2.030156e-04
7.190000e+02 2.183610e-04
7.200000e+02 2.348125e-04
7.210000e+02 2.524502e-04
7.220000e+02 2.713559e-04
7.230000e+02 2.916167e-04
7.240000e+02 3.133250e-04
7.250000e+02 3.365797e-04
7.260000e+02 3.614859e-04
7.270000e+02 3.881554e-04
7.280000e+02 4.167074e-04
7.290000e+02 4.472686e-04
7.300000e+02 4.799725e-04
7.310000e+02 5.149667e-04
7.320000e+02 5.523996e-04
7.330000e+02 5.924351e-04
7.340000e+02 6.352455e-04
7.350000e+02 6.810143e-04
7.360000e+02 7.299350e-04
7.370000e+02 7.822189e-04
7.380000e+02 8.380820e-04
7.390000e+02 8.977593e-04
7.400000e+02 9.614989e-04
7.410000e+02 1.029565e-03
7.420000e+02 1.102237e-03
7.430000e+02 1.179811e-03
7.440000e+02 1.262604e-03
7.450000e+02 1.350950e-03
7.460000e+02 1.445203e-03
7.470000e+02 1.545740e-03
7.480000e+02 1.652960e-03
7.490000e+02 1.767285e-03
7.500000e+02 1.889166e-03
7.510000e+02 2.019076e-03
7.520000e+02 2.157521e-03
7.530000e+02 2.305033e-03
7.540000e+02 2.462179e-03
7.550000e+02 2.629557e-03
7.560000e+02 2.807802e-03
7.570000e+02 2.997583e-03
7.580000e+02 3.199618e-03
7.590000e+02 3.414646e-03
7.600000e+02 3.643488e-03
7.610000e+02 3.886967e-03
7.620000e+02 4.145977e-03
7.630000e+02 4.421460e-03
7.640000e+02 4.714417e-03
7.650000e+02 5.025901e-03
7.660000e+02 5.357029e-03
7.670000e+02 5.708977e-03
7.680000e+02 6.082957e-03
7.690000e+02 6.480388e-03
7.700000e+02 6.902559e-03
7.710000e+02 7.350967e-03
7.720000e+02 7.827171e-03
7.730000e+02 8.332801e-03
7.740000e+02 8.869591e-03
7.750000e+02 9.439366e-03
7.760000e+02 1.004395e-02
7.770000e+02 1.068569e-02
7.780000e+02 1.136641e-02
7.790000e+02 1.208849e-02
7.800000e+02 1.285432e-02
7.810000e+02 1.366640e-02
7.820000e+02 1.452740e-02
7.830000e+02 1.544012e-02
7.840000e+02 1.640750e-02
7.850000e+02 1.743267e-02
7.860000e+02 1.851888e-02
7.870000e+02 1.966969e-02
7.880000e+02 2.088858e-02
7.890000e+02 2.217945e-02
7.900000e+02 2.354627e-02
7.910000e+02 2.499350e-02
7.920000e+02 2.652541e-02
7.930000e+02 2.814679e-02
7.940000e+02 2.986258e-02
7.950000e+02 3.167802e-02
7.960000e+02 3.359858e-02
7.970000e+02 3.563007e-02
7.980000e+02 3.777854e-02
7.990000e+02 4.005041e-02
8.000000e+02 4.245238e-02
8.010000e+02 4.499154e-02
8.020000e+02 4.767531e-02
8.030000e+02 5.051151e-02
8.040000e+02 5.350836e-02
8.050000e+02 5.667448e-02
8.060000e+02 6.001896e-02
8.070000e+02 6.355130e-02
8.080000e+02 6.728152e-02
8.090000e+02 7.122014e-02
8.100000e+02 7.537821e-02
8.110000e+02 7.976729e-02
8.120000e+02 8.439942e-02
8.130000e+02 8.928784e-02
8.140000e+02 9.444547e-02
8.150000e+02 9.988647e-02
8.160000e+02 1.056259e-01
8.170000e+02 1.116789e-01
8.180000e+02 1.180619e-01
8.190000e+02 1.247919e-01
8.200000e+02 1.318867e-01
8.210000e+02 1.393652e-01
8.220000e+02 1.472469e-01
8.230000e+02 1.555526e-01
8.240000e+02 1.643036e-01
8.250000e+02 1.735228e-01
8.260000e+02 1.832338e-01
8.270000e+02 1.934614e-01
8.280000e+02 2.042318e-01
8.290000e+02 2.155720e-01
8.300000e+02 2.275108e-01
8.310000e+02 2.400779e-01
8.320000e+02 2.533048e-01
8.330000e+02 2.672242e-01
8.340000e+02 2.818704e-01
8.350000e+02 2.972274e-01
8.360000e+02 3.134842e-01
8.370000e+02 3.305374e-01
8.380000e+02 3.484671e-01
8.390000e+02 3.673207e-01
8.400000e+02 3.871431e-01
8.410000e+02 4.079813e-01
8.420000e+02 4.298663e-01
8.430000e+02 4.529058e-01
8.440000e+02 4.770969e-01
8.450000e+02 5.025148e-01
8.460000e+02 5.292186e-01
8.470000e+02 5.572695e-01
8.480000e+02 5.867320e-01
8.490000e+02 6.176730e-01
8.500000e+02 6.501630e-01
8.510000e+02 6.842750e-01
8.520000e+02 7.200853e-01
8.530000e+02 7.576746e-01
8.540000e+02 7.971307e-01
8.550000e+02 8.385313e-01
8.560000e+02 8.819721e-01
8.570000e+02 9.275481e-01
8.580000e+02 9.753581e-01
8.590000e+02 1.025506e+00
8.600000e+02 1.078100e+00
8.610000e+02 1.133253e+00
8.620000e+02 1.191081e+00
8.630000e+02 1.251707e+00
8.640000e+02 1.315261e+00
8.650000e+02 1.381873e+00
8.660000e+02 1.451686e+00
8.670000e+02 1.524841e+00
8.680000e+02 1.601492e+00
8.690000e+02 1.681796e+00
8.700000e+02 1.765907e+00
8.710000e+02 1.854025e+00
8.720000e+02 1.946300e+00
8.730000e+02 2.042928e+00
8.740000e+02 2.144103e+00
8.750000e+02 2.250025e+00
8.760000e+02 2.360905e+00
8.770000e+02 2.476961e+00
8.780000e+02 2.598425e+00
8.790000e+02 2.725530e+00
8.800000e+02 2.858526e+00
8.810000e+02 2.997668e+00
8.820000e+02 3.143224e+00
8.830000e+02 3.295475e+00
8.840000e+02 3.454710e+00
8.850000e+02 3.621232e+00
8.860000e+02 3.795352e+00
8.870000e+02 3.977401e+00
8.880000e+02 4.167717e+00
8.890000e+02 4.366652e+00
8.900000e+02 4.574578e+00
8.910000e+02 4.791876e+00
8.920000e+02 5.006398e+00
8.930000e+02 5.256194e+00
8.940000e+02 5.504058e+00
8.950000e+02 5.762982e+00
8.960000e+02 6.033433e+00
8.970000e+02 6.315893e+00
8.980000e+02 6.610863e+00
8.990000e+02 6.918867e+00
9.000000e+02 7.240444e+00
9.010000e+02 7.576161e+00
9.020000e+02 7.926600e+00
9.030000e+02 8.292370e+00
9.040000e+02 8.673998e+00
9.050000e+02 9.072452e+00
9.060000e+02 9.488100e+00
9.070000e+02 9.921701e+00
9.080000e+02 1.037415e+01
9.090000e+02 1.084604e+01
9.100000e+02 1.133822e+01
9.110000e+02 1.185158e+01
9.120000e+02 1.238723e+01
9.130000e+02 1.273058e+01
9.140000e+02 1.414866e+01
9.150000e+02 1.601809e+02
9.160000e+02 2.129674e+02
9.170000e+02 2.210119e+02
9.180000e+02 2.292030e+02
9.190000e+02 2.379457e+02
9.200000e+02 2.468440e+02
9.210000e+02 1.796824e+01
9.220000e+02 2.653574e+02
9.230000e+02 2.746960e+02
9.240000e+02 2.649683e+02
9.250000e+02 2.921084e+02
9.260000e+02 3.061146e+02
9.270000e+02 3.178568e+02
9.280000e+02 3.300316e+02
9.290000e+02 3.053817e+02
9.300000e+02 3.508952e+02
9.310000e+02 3.648752e+02
9.320000e+02 3.810537e+02
9.330000e+02 3.948885e+02
9.340000e+02 4.090963e+02
9.350000e+02 8.842633e+01
9.360000e+02 4.368588e+02
9.370000e+02 8.052161e+01
9.380000e+02 3.110425e+02
9.390000e+02 4.881394e+02
9.400000e+02 5.058326e+02
9.410000e+02 3.372508e+02
9.420000e+02 5.427957e+02
9.430000e+02 5.621122e+02
9.440000e+02 5.242614e+02
9.450000e+02 6.024612e+02
9.460000e+02 6.237419e+02
9.470000e+02 5.708138e+02
9.480000e+02 6.640334e+02
9.490000e+02 6.860027e+02
9.500000e+02 1.939332e+02
9.510000e+02 7.208379e+02
9.520000e+02 7.675074e+02
9.530000e+02 7.938941e+02
9.540000e+02 7.038397e+02
9.550000e+02 8.514808e+02
9.560000e+02 8.835731e+02
9.570000e+02 5.577486e+02
9.580000e+02 9.345620e+02
9.590000e+02 9.790901e+02
9.600000e+02 1.973989e+02
9.610000e+02 1.048871e+03
9.620000e+02 1.084701e+03
9.630000e+02 1.121782e+03
9.640000e+02 1.240851e+02
9.650000e+02 1.107295e+03
9.660000e+02 1.240291e+03
9.670000e+02 1.282147e+03
9.680000e+02 1.319191e+03
9.690000e+02 1.363377e+03
9.700000e+02 1.413015e+03
9.710000e+02 1.449964e+03
9.720000e+02 1.389053e+03
9.730000e+02 1.399654e+03
9.740000e+02 1.594827e+03
9.750000e+02 1.666159e+03
9.760000e+02 1.725486e+03
9.770000e+02 1.784136e+03
9.780000e+02 1.842354e+03
9.790000e+02 1.905737e+03
9.800000e+02 1.968744e+03
9.810000e+02 2.034174e+03
9.820000e+02 2.096286e+03
9.830000e+02 2.169483e+03
9.840000e+02 8.392954e+02
9.850000e+02 2.314346e+03
9.860000e+02 2.389872e+03
9.870000e+02 2.467409e+03
9.880000e+02 2.541332e+03
9.890000e+02 2.114615e+03
9.900000e+02 3.985055e+02
9.910000e+02 2.784427e+03
9.920000e+02 2.864225e+03
9.930000e+02 2.919294e+03
9.940000e+02 5.128860e+02
9.950000e+02 8.348788e+02
9.960000e+02 2.777065e+03
9.970000e+02 1.259303e+03
9.980000e+02 3.479973e+03
9.990000e+02 3.586453e+03
1.000000e+03 3.721475e+03
1.001000e+03 3.839136e+03
1.002000e+03 3.959791e+03
1.003000e+03 3.945395e+03
1.004000e+03 4.210321e+03
1.005000e+03 4.234525e+03
1.006000e+03 4.480574e+03
1.007000e+03 4.620265e+03
1.008000e+03 4.762727e+03
1.009000e+03 4.843643e+03
1.010000e+03 5.063263e+03
1.011000e+03 5.219241e+03
1.012000e+03 5.379720e+03
1.013000e+03 5.544764e+03
1.014000e+03 5.695545e+03
1.015000e+03 5.820245e+03
1.016000e+03 6.060911e+03
1.017000e+03 6.225710e+03
1.018000e+03 6.431731e+03
1.019000e+03 6.614154e+03
1.020000e+03 6.808246e+03
1.021000e+03 5.763195e+03
1.022000e+03 6.752458e+03
1.023000e+03 7.268019e+03
1.024000e+03 7.169184e+03
1.025000e+03 5.588110e+03
1.026000e+03 2.717431e+03
1.027000e+03 7.412737e+03
1.028000e+03 2.199324e+03
1.029000e+03 8.748453e+03
1.030000e+03 9.074878e+03
1.031000e+03 9.422434e+03
1.032000e+03 9.715158e+03
1.033000e+03 3.908722e+03
1.034000e+03 1.033557e+04
1.035000e+03 2.426788e+03
1.036000e+03 1.089338e+04
1.037000e+03 4.805624e+03
1.038000e+03 1.163258e+04
1.039000e+03 1.196135e+04
1.040000e+03 1.233093e+04
1.041000e+03 1.268296e+04
1.042000e+03 1.302226e+04
1.043000e+03 1.315031e+04
1.044000e+03 1.383693e+04
1.045000e+03 1.423874e+04
1.046000e+03 1.465865e+04
1.047000e+03 1.508329e+04
1.048000e+03 1.549570e+04
1.049000e+03 1.594764e+04
1.050000e+03 1.642580e+04
1.051000e+03 1.689676e+04
1.052000e+03 1.738194e+04
1.053000e+03 1.782932e+04
1.054000e+03 1.833077e+04
1.055000e+03 1.891039e+04
1.056000e+03 1.944929e+04
1.057000e+03 2.000006e+04
1.058000e+03 2.056521e+04
1.059000e+03 2.114261e+04
1.060000e+03 2.173334e+04
1.061000e+03 2.235357e+04
1.062000e+03 2.297857e+04
1.063000e+03 1.973708e+04
1.064000e+03 5.530414e+03
1.065000e+03 2.494562e+04
1.066000e+03 2.564086e+04
1.067000e+03 2.628165e+04
1.068000e+03 2.713470e+04
1.069000e+03 2.785031e+04
1.070000e+03 2.863279e+04
1.071000e+03 2.946524e+04
1.072000e+03 3.027483e+04
1.073000e+03 3.105517e+04
1.074000e+03 3.195828e+04
1.075000e+03 3.282947e+04
1.076000e+03 3.372916e+04
1.077000e+03 3.460761e+04
1.078000e+03 3.558926e+04
1.079000e+03 3.646150e+04
1.080000e+03 3.754379e+04
1.081000e+03 3.856258e+04
1.082000e+03 3.957759e+04
1.083000e+03 4.066741e+04
1.084000e+03 4.174889e+04
1.085000e+03 4.158621e+04
1.086000e+03 4.401462e+04
1.087000e+03 4.517403e+04
1.088000e+03 4.625402e+04
1.089000e+03 4.761378e+04
1.090000e+03 4.886649e+04
1.091000e+03 5.016034e+04
1.092000e+03 5.147667e+04
1.093000e+03 5.279897e+04
1.094000e+03 5.422694e+04
1.095000e+03 5.562689e+04
1.096000e+03 5.709484e+04
1.097000e+03 5.827193e+04
1.098000e+03 6.008421e+04
1.099000e+03 6.166713e+04
1.100000e+03 6.265514e+04
1.101000e+03 5.886546e+04
1.102000e+03 1.552432e+05
1.103000e+03 6.210465e+05
1.104000e+03 1.560042e+05
1.105000e+03 6.912238e+04
1.106000e+03 1.464693e+06
1.107000e+03 1.407244e+06
1.108000e+03 1.528530e+06
1.109000e+03 1.415354e+06
1.110000e+03 5.800742e+05
1.111000e+03 1.666684e+05
1.112000e+03 1.590028e+06
1.113000e+03 1.685994e+06
1.114000e+03 6.307212e+04
1.115000e+03 1.719039e+06
1.116000e+03 1.757684e+06
1.117000e+03 5.275987e+04
1.118000e+03 1.798030e+06
1.119000e+03 1.878010e+06
1.120000e+03 1.899644e+06
1.121000e+03 1.739502e+06
1.122000e+03 2.371762e+04
1.123000e+03 3.454925e+05
1.124000e+03 2.063348e+06
1.125000e+03 1.567541e+06
1.126000e+03 2.153024e+06
1.127000e+03 2.102637e+06
1.128000e+03 9.059683e+05
1.129000e+03 2.228247e+06
1.130000e+03 2.187836e+06
1.131000e+03 2.374928e+06
1.132000e+03 8.616350e+04
1.133000e+03 2.438111e+06
1.134000e+03 2.429256e+06
1.135000e+03 1.099794e+05
1.136000e+03 2.602696e+06
1.137000e+03 2.658914e+06
1.138000e+03 2.714962e+06
1.139000e+03 2.681051e+06
1.140000e+03 4.948175e+04
1.141000e+03 2.876252e+06
1.142000e+03 2.919976e+06
1.143000e+03 2.982705e+06
1.144000e+03 3.044740e+06
1.145000e+03 2.446350e+06
1.146000e+03 3.167185e+06
1.147000e+03 3.162804e+06
1.148000e+03 3.218098e+06
1.149000e+03 3.338864e+06
1.150000e+03 3.355247e+06
1.151000e+03 3.440266e+06
1.152000e+03 3.537270e+06
1.153000e+03 2.106176e+06
1.154000e+03 1.972430e+05
1.155000e+03 3.659771e+06
1.156000e+03 2.253485e+06
1.157000e+03 3.858976e+06
1.158000e+03 1.362697e+05
1.159000e+03 3.446465e+06
1.160000e+03 4.103956e+06
1.161000e+03 4.185120e+06
1.162000e+03 9.620720e+05
1.163000e+03 4.326288e+06
1.164000e+03 1.237195e+05
1.165000e+03 4.505849e+06
1.166000e+03 4.588631e+06
1.167000e+03 4.637072e+06
1.168000e+03 4.798426e+06
1.169000e+03 4.744878e+06
1.170000e+03 4.999334e+06
1.171000e+03 5.102459e+06
1.172000e+03 5.169154e+06
1.173000e+03 5.310348e+06
1.174000e+03 5.361387e+06
1.175000e+03 1.432475e+05
1.176000e+03 1.258240e+05
1.177000e+03 5.731537e+06
1.178000e+03 5.794234e+06
1.179000e+03 5.950452e+06
1.180000e+03 5.072030e+06
1.181000e+03 6.128572e+06
1.182000e+03 6.287896e+06
1.183000e+03 6.391724e+06
1.184000e+03 6.493759e+06
1.185000e+03 6.578798e+06
1.186000e+03 6.677394e+06
1.187000e+03 6.781992e+06
1.188000e+03 6.846085e+06
1.189000e+03 1.688710e+05
1.190000e+03 2.623042e+06
1.191000e+03 6.952566e+06
1.192000e+03 7.009043e+06
1.193000e+03 1.520415e+05
1.194000e+03 1.933245e+05
1.195000e+03 5.325818e+06
1.196000e+03 7.174767e+06
1.197000e+03 1.017058e+07
1.198000e+03 1.022644e+07
1.199000e+03 9.900629e+06
1.200000e+03 8.722940e+06
1.201000e+03 9.158876e+06
1.202000e+03 9.031694e+06
1.203000e+03 1.061632e+07
1.204000e+03 9.623563e+06
1.205000e+03 8.686367e+06
1.206000e+03 7.896553e+06
1.207000e+03 1.440480e+06
1.208000e+03 5.610820e+06
1.209000e+03 4.296715e+06
1.210000e+03 3.026893e+05
1.211000e+03 2.309236e+06
1.212000e+03 1.486969e+06
1.213000e+03 8.862780e+05
1.214000e+03 5.115609e+05
1.215000e+03 3.181832e+05
1.216000e+03 2.814586e+05
1.217000e+03 4.559348e+05
1.218000e+03 8.152886e+05
1.219000e+03 1.454514e+06
1.220000e+03 2.416967e+06
1.221000e+03 3.694162e+06
1.222000e+03 5.246919e+06
1.223000e+03 7.029151e+06
1.224000e+03 8.998437e+06
1.225000e+03 1.110146e+07
1.226000e+03 1.334192e+07
1.227000e+03 1.547402e+07
1.228000e+03 1.807814e+07
1.229000e+03 2.054261e+07
1.230000e+03 2.300782e+07
1.231000e+03 2.550245e+07
1.232000e+03 2.807449e+07
1.233000e+03 3.059112e+07
1.234000e+03 1.835131e+07
1.235000e+03 3.562092e+07
1.236000e+03 3.802499e+07
1.237000e+03 4.055419e+07
1.238000e+03 4.302295e+07
1.239000e+03 4.543005e+07
1.240000e+03 4.340837e+07
1.241000e+03 7.078219e+07
1.242000e+03 4.168583e+07
1.243000e+03 6.739506e+07
1.244000e+03 2.931785e+07
1.245000e+03 4.165454e+07
1.246000e+03 1.197320e+08
1.247000e+03 1.262304e+08
1.248000e+03 3.030838e+07
1.249000e+03 4.356139e+07
1.250000e+03 1.508928e+08
1.251000e+03 1.598103e+08
1.252000e+03 1.677826e+08
1.253000e+03 1.770468e+08
1.254000e+03 1.840730e+08
1.255000e+03 1.945134e+08
1.256000e+03 2.006074e+08
1.257000e+03 2.109004e+08
1.258000e+03 2.159198e+08
1.259000e+03 2.095840e+08
1.260000e+03 1.509725e+08
1.261000e+03 7.755850e+05
1.262000e+03 1.979984e+07
1.263000e+03 2.444854e+08
1.264000e+03 2.072334e+08
1.265000e+03 7.711160e+05
1.266000e+03 2.657769e+08
1.267000e+03 2.964594e+08
