# wavelength_A flux
5.000000e+02 5.714495e-42
5.010000e+02 7.453507e-42
5.020000e+02 9.710998e-42
5.030000e+02 1.263971e-41
5.040000e+02 1.643583e-41
5.050000e+02 6.158006e-41
5.060000e+02 7.942700e-41
5.070000e+02 1.023494e-40
5.080000e+02 1.317627e-40
5.090000e+02 1.694674e-40
5.100000e+02 2.177786e-40
5.110000e+02 2.795731e-40
5.120000e+02 3.585699e-40
5.130000e+02 4.594647e-40
5.140000e+02 5.882104e-40
5.150000e+02 7.523557e-40
5.160000e+02 9.614295e-40
5.170000e+02 1.227587e-39
5.180000e+02 1.565936e-39
5.190000e+02 1.995694e-39
5.200000e+02 2.541110e-39
5.210000e+02 3.232484e-39
5.220000e+02 4.089788e-39
5.230000e+02 5.217104e-39
5.240000e+02 6.621812e-39
5.250000e+02 8.396442e-39
5.260000e+02 1.063602e-38
5.270000e+02 1.346173e-38
5.280000e+02 1.702329e-38
5.290000e+02 2.150423e-38
5.300000e+02 2.710921e-38
5.310000e+02 3.424204e-38
5.320000e+02 4.317243e-38
5.330000e+02 5.436748e-38
5.340000e+02 6.840861e-38
5.350000e+02 8.600285e-38
5.360000e+02 1.080047e-37
5.370000e+02 7.809852e-38
5.380000e+02 1.700377e-37
5.390000e+02 2.131676e-37
5.400000e+02 2.669794e-37
5.410000e+02 3.340586e-37
5.420000e+02 4.176976e-37
5.430000e+02 5.218449e-37
5.440000e+02 6.514549e-37
5.450000e+02 8.126299e-37
5.460000e+02 1.012765e-36
5.470000e+02 1.261580e-36
5.480000e+02 1.570118e-36
5.490000e+02 1.952694e-36
5.500000e+02 2.426608e-36
5.510000e+02 3.013297e-36
5.520000e+02 3.739065e-36
5.530000e+02 4.636225e-36
5.540000e+02 5.744445e-36
5.550000e+02 7.112389e-36
5.560000e+02 8.799717e-36
5.570000e+02 1.087950e-35
5.580000e+02 1.344129e-35
5.590000e+02 1.659481e-35
5.600000e+02 2.047310e-35
5.610000e+02 2.523997e-35
5.620000e+02 3.109491e-35
5.630000e+02 3.828133e-35
5.640000e+02 4.709593e-35
5.650000e+02 5.790020e-35
5.660000e+02 7.113424e-35
5.670000e+02 8.733346e-35
5.680000e+02 1.071488e-34
5.690000e+02 1.313752e-34
5.700000e+02 1.609659e-34
5.710000e+02 1.970898e-34
5.720000e+02 2.411602e-34
5.730000e+02 2.948895e-34
5.740000e+02 3.603520e-34
5.750000e+02 4.403555e-34
5.760000e+02 5.337405e-34
5.770000e+02 6.554106e-34
5.780000e+02 7.988143e-34
5.790000e+02 9.729935e-34
5.800000e+02 1.184346e-33
5.810000e+02 1.440654e-33
5.820000e+02 1.751180e-33
5.830000e+02 2.126424e-33
5.840000e+02 2.550920e-33
5.850000e+02 3.125414e-33
5.860000e+02 3.800421e-33
5.870000e+02 4.605976e-33
5.880000e+02 5.580862e-33
5.890000e+02 6.755772e-33
5.900000e+02 8.172913e-33
5.910000e+02 9.880959e-33
5.920000e+02 1.193904e-32
5.930000e+02 1.441697e-32
5.940000e+02 1.739881e-32
5.950000e+02 2.098494e-32
5.960000e+02 2.529531e-32
5.970000e+02 3.047318e-32
5.980000e+02 3.669066e-32
5.990000e+02 4.414967e-32
6.000000e+02 5.309439e-32
6.010000e+02 6.377984e-32
6.020000e+02 7.665566e-32
6.030000e+02 9.202814e-32
6.040000e+02 1.104210e-31
6.050000e+02 1.324162e-31
6.060000e+02 1.587025e-31
6.070000e+02 1.901067e-31
6.080000e+02 2.275917e-31
6.090000e+02 2.723174e-31
6.100000e+02 3.256525e-31
6.110000e+02 3.892228e-31
6.120000e+02 4.649481e-31
6.130000e+02 5.551053e-31
6.140000e+02 6.623874e-31
6.150000e+02 7.899793e-31
6.160000e+02 9.416740e-31
6.170000e+02 1.121866e-30
6.180000e+02 1.335830e-30
6.190000e+02 1.589771e-30
6.200000e+02 1.890994e-30
6.210000e+02 2.248109e-30
6.220000e+02 2.671279e-30
6.230000e+02 3.172458e-30
6.240000e+02 3.765803e-30
6.250000e+02 4.467750e-30
6.260000e+02 5.297839e-30
6.270000e+02 6.278957e-30
6.280000e+02 7.438042e-30
6.290000e+02 8.806646e-30
6.300000e+02 1.042036e-29
6.310000e+02 1.218067e-29
6.320000e+02 1.456348e-29
6.330000e+02 1.719043e-29
6.340000e+02 2.033919e-29
6.350000e+02 2.400378e-29
6.360000e+02 2.832679e-29
6.370000e+02 3.341095e-29
6.380000e+02 3.938401e-29
6.390000e+02 4.640262e-29
6.400000e+02 5.464587e-29
6.410000e+02 6.432286e-29
6.420000e+02 7.567763e-29
6.430000e+02 8.899483e-29
6.440000e+02 1.046063e-28
6.450000e+02 1.228934e-28
6.460000e+02 1.443242e-28
6.470000e+02 1.694047e-28
6.480000e+02 1.987516e-28
6.490000e+02 2.330761e-28
6.500000e+02 2.731625e-28
6.510000e+02 3.200835e-28
6.520000e+02 3.748590e-28
6.530000e+02 4.387975e-28
6.540000e+02 5.134118e-28
6.550000e+02 6.004443e-28
6.560000e+02 7.019174e-28
6.570000e+02 8.201714e-28
6.580000e+02 9.579418e-28
6.590000e+02 1.118347e-27
6.600000e+02 1.305033e-27
6.610000e+02 1.522232e-27
6.620000e+02 1.774800e-27
6.630000e+02 2.068379e-27
6.640000e+02 2.409483e-27
6.650000e+02 2.805631e-27
6.660000e+02 3.265524e-27
6.670000e+02 3.799180e-27
6.680000e+02 4.418185e-27
6.690000e+02 5.135915e-27
6.700000e+02 5.967682e-27
6.710000e+02 6.931253e-27
6.720000e+02 8.047053e-27
6.730000e+02 9.338599e-27
6.740000e+02 1.083296e-26
6.750000e+02 1.256128e-26
6.760000e+02 1.455940e-26
6.770000e+02 1.686843e-26
6.780000e+02 1.953572e-26
6.790000e+02 2.261554e-26
6.800000e+02 2.617051e-26
6.810000e+02 3.027227e-26
6.820000e+02 3.500260e-26
6.830000e+02 4.045597e-26
6.840000e+02 4.674042e-26
6.850000e+02 5.397955e-26
6.860000e+02 6.231585e-26
6.870000e+02 7.191107e-26
6.880000e+02 8.295134e-26
6.890000e+02 9.564938e-26
6.900000e+02 1.102485e-25
6.910000e+02 1.270269e-25
6.920000e+02 1.463037e-25
6.930000e+02 1.684400e-25
6.940000e+02 1.938520e-25
6.950000e+02 2.230128e-25
6.960000e+02 2.564630e-25
6.970000e+02 2.948180e-25
6.980000e+02 3.387855e-25
6.990000e+02 3.891624e-25
7.000000e+02 4.468640e-25
7.010000e+02 5.129308e-25
7.020000e+02 5.885478e-25
7.030000e+02 6.748533e-25
7.040000e+02 7.740194e-25
7.050000e+02 8.871451e-25
7.060000e+02 1.016442e-24
7.070000e+02 1.164164e-24
7.080000e+02 1.332868e-24
7.090000e+02 1.525465e-24
7.100000e+02 1.745281e-24
7.110000e+02 1.996051e-24
7.120000e+02 2.282046e-24
7.130000e+02 2.608089e-24
7.140000e+02 2.979685e-24
7.150000e+02 3.402998e-24
7.160000e+02 3.885103e-24
7.170000e+02 4.433949e-24
7.180000e+02 5.058566e-24
7.190000e+02 5.769216e-24
7.200000e+02 6.577415e-24
7.210000e+02 7.496262e-24
7.220000e+02 8.540542e-24
7.230000e+02 9.726978e-24
7.240000e+02 1.107455e-23
7.250000e+02 1.260445e-23
7.260000e+02 1.434068e-23
7.270000e+02 1.631099e-23
7.280000e+02 1.854560e-23
7.290000e+02 2.107929e-23
7.300000e+02 2.395116e-23
7.310000e+02 2.720529e-23
7.320000e+02 3.089135e-23
7.330000e+02 3.506531e-23
7.340000e+02 3.979035e-23
7.350000e+02 4.513718e-23
7.360000e+02 5.118463e-23
7.370000e+02 5.802627e-23
7.380000e+02 6.575967e-23
7.390000e+02 7.449972e-23
7.400000e+02 8.437422e-23
7.410000e+02 9.552736e-23
7.420000e+02 1.081200e-22
7.430000e+02 1.223343e-22
7.440000e+02 1.383736e-22
7.450000e+02 1.564663e-22
7.460000e+02 1.768692e-22
7.470000e+02 1.998701e-22
7.480000e+02 2.257919e-22
7.490000e+02 2.549965e-22
7.500000e+02 2.878894e-22
7.510000e+02 3.249241e-22
7.520000e+02 3.666132e-22
7.530000e+02 4.135232e-22
7.540000e+02 4.662932e-22
7.550000e+02 5.256364e-22
7.560000e+02 5.923558e-22
7.570000e+02 6.673311e-22
7.580000e+02 7.515922e-22
7.590000e+02 8.462276e-22
7.600000e+02 9.524953e-22
7.610000e+02 1.071787e-21
7.620000e+02 1.205663e-21
7.630000e+02 1.355861e-21
7.640000e+02 1.524321e-21
7.650000e+02 1.713205e-21
7.660000e+02 1.924940e-21
7.670000e+02 2.162208e-21
7.680000e+02 2.428011e-21
7.690000e+02 2.691870e-21
7.700000e+02 3.059037e-21
7.710000e+02 3.432131e-21
7.720000e+02 3.849628e-21
7.730000e+02 4.316680e-21
7.740000e+02 4.839030e-21
7.750000e+02 5.423043e-21
7.760000e+02 6.075133e-21
7.770000e+02 6.805275e-21
7.780000e+02 7.620161e-21
7.790000e+02 8.530241e-21
7.800000e+02 9.546357e-21
7.810000e+02 1.068055e-20
7.820000e+02 1.194619e-20
7.830000e+02 1.335813e-20
7.840000e+02 1.493286e-20
7.850000e+02 1.668865e-20
7.860000e+02 1.864578e-20
7.870000e+02 2.082804e-20
7.880000e+02 2.325806e-20
7.890000e+02 2.596453e-20
7.900000e+02 2.897815e-20
7.910000e+02 3.233289e-20
7.920000e+02 3.606636e-20
7.930000e+02 4.022024e-20
7.940000e+02 4.484060e-20
7.950000e+02 4.997853e-20
7.960000e+02 5.569050e-20
7.970000e+02 6.203899e-20
7.980000e+02 6.909311e-20
7.990000e+02 7.692917e-20
8.000000e+02 8.563180e-20
8.010000e+02 9.529408e-20
8.020000e+02 1.060196e-19
8.030000e+02 1.179216e-19
8.040000e+02 1.311261e-19
8.050000e+02 1.457720e-19
8.060000e+02 1.620124e-19
8.070000e+02 1.800165e-19
8.080000e+02 1.999707e-19
8.090000e+02 2.220807e-19
8.100000e+02 2.465733e-19
8.110000e+02 2.736986e-19
8.120000e+02 3.037319e-19
8.130000e+02 3.369771e-19
8.140000e+02 3.737683e-19
8.150000e+02 4.144739e-19
8.160000e+02 4.595000e-19
8.170000e+02 5.092905e-19
8.180000e+02 5.643403e-19
8.190000e+02 6.251870e-19
8.200000e+02 6.924253e-19
8.210000e+02 7.667092e-19
8.220000e+02 8.487572e-19
8.230000e+02 9.393591e-19
8.240000e+02 1.039383e-18
8.250000e+02 1.149783e-18
8.260000e+02 1.271605e-18
8.270000e+02 1.406000e-18
8.280000e+02 1.554232e-18
8.290000e+02 1.717688e-18
8.300000e+02 1.897885e-18
8.310000e+02 2.096494e-18
8.320000e+02 2.315345e-18
8.330000e+02 2.556446e-18
8.340000e+02 2.821997e-18
8.350000e+02 3.111583e-18
8.360000e+02 3.436330e-18
8.370000e+02 3.790657e-18
8.380000e+02 4.180483e-18
8.390000e+02 4.609501e-18
8.400000e+02 5.081318e-18
8.410000e+02 5.600144e-18
8.420000e+02 6.170538e-18
8.430000e+02 6.797527e-18
8.440000e+02 7.486516e-18
8.450000e+02 8.243493e-18
8.460000e+02 9.074981e-18
8.470000e+02 9.988113e-18
8.480000e+02 1.099068e-17
8.490000e+02 1.209121e-17
8.500000e+02 1.329901e-17
8.510000e+02 1.462424e-17
8.520000e+02 1.607799e-17
8.530000e+02 1.767241e-17
8.540000e+02 1.942076e-17
8.550000e+02 2.133738e-17
8.560000e+02 2.343806e-17
8.570000e+02 2.574004e-17
8.580000e+02 2.815271e-17
8.590000e+02 3.102444e-17
8.600000e+02 3.404961e-17
8.610000e+02 3.734304e-17
8.620000e+02 4.098745e-17
8.630000e+02 4.495540e-17
8.640000e+02 4.929718e-17
8.650000e+02 5.404344e-17
8.660000e+02 5.924180e-17
8.670000e+02 6.492245e-17
8.680000e+02 7.113300e-17
8.690000e+02 7.792147e-17
8.700000e+02 8.534012e-17
8.710000e+02 9.344581e-17
8.720000e+02 1.023003e-16
8.730000e+02 1.119709e-16
8.740000e+02 1.225306e-16
8.750000e+02 1.340589e-16
8.760000e+02 1.466420e-16
8.770000e+02 1.603734e-16
8.780000e+02 1.753531e-16
8.790000e+02 1.916992e-16
8.800000e+02 2.095236e-16
8.810000e+02 2.289596e-16
8.820000e+02 2.501486e-16
8.830000e+02 2.732343e-16
8.840000e+02 2.984133e-16
8.850000e+02 3.258363e-16
8.860000e+02 3.557092e-16
8.870000e+02 3.882432e-16
8.880000e+02 4.236734e-16
8.890000e+02 4.622445e-16
8.900000e+02 5.042302e-16
8.910000e+02 5.499222e-16
8.920000e+02 5.996276e-16
8.930000e+02 6.537241e-16
8.940000e+02 7.125511e-16
8.950000e+02 7.765230e-16
8.960000e+02 8.460769e-16
8.970000e+02 9.216858e-16
8.980000e+02 1.003861e-15
8.990000e+02 1.093155e-15
9.000000e+02 1.190168e-15
9.010000e+02 1.295548e-15
9.020000e+02 1.409994e-15
9.030000e+02 1.534244e-15
9.040000e+02 1.669174e-15
9.050000e+02 1.814591e-15
9.060000e+02 1.974529e-15
9.070000e+02 2.146718e-15
9.080000e+02 2.334023e-15
9.090000e+02 2.536918e-15
9.100000e+02 2.756947e-15
9.110000e+02 2.995575e-15
9.120000e+02 3.254946e-15
9.130000e+02 3.203682e-15
9.140000e+02 1.776357e-14
9.150000e+02 9.580176e-08
9.160000e+02 1.843772e-07
9.170000e+02 1.940002e-07
9.180000e+02 2.035780e-07
9.190000e+02 2.148057e-07
9.200000e+02 2.262646e-07
9.210000e+02 6.242402e-15
9.220000e+02 2.494023e-07
9.230000e+02 2.576226e-07
9.240000e+02 2.513170e-07
9.250000e+02 2.708606e-07
9.260000e+02 2.990015e-07
9.270000e+02 3.189757e-07
9.280000e+02 3.395107e-07
9.290000e+02 8.833638e-09
9.300000e+02 2.876153e-07
9.310000e+02 3.693019e-07
9.320000e+02 4.143277e-07
9.330000e+02 4.354269e-07
9.340000e+02 4.418125e-07
9.350000e+02 2.252420e-10
9.360000e+02 4.148734e-07
9.370000e+02 5.081269e-11
9.380000e+02 7.478275e-10
9.390000e+02 2.986545e-07
9.400000e+02 5.983688e-07
9.410000e+02 8.259038e-10
9.420000e+02 6.563910e-07
9.430000e+02 3.349167e-07
9.440000e+02 6.532122e-07
9.450000e+02 7.490761e-07
9.460000e+02 7.597490e-07
9.470000e+02 3.329390e-09
9.480000e+02 9.821704e-09
9.490000e+02 8.299218e-07
9.500000e+02 4.244782e-11
9.510000e+02 9.487142e-07
9.520000e+02 1.019876e-06
9.530000e+02 2.005099e-07
9.540000e+02 1.587952e-08
9.550000e+02 6.876630e-07
9.560000e+02 2.051593e-09
9.570000e+02 4.740161e-08
9.580000e+02 4.009735e-09
9.590000e+02 1.545321e-06
9.600000e+02 2.584102e-10
9.610000e+02 1.616842e-06
9.620000e+02 1.654396e-06
9.630000e+02 6.939548e-07
9.640000e+02 1.140279e-10
9.650000e+02 2.904972e-08
9.660000e+02 1.569372e-06
9.670000e+02 4.662456e-07
9.680000e+02 2.875808e-07
9.690000e+02 1.847304e-06
9.700000e+02 2.333522e-06
9.710000e+02 6.221224e-07
9.720000e+02 1.895794e-07
9.730000e+02 1.021544e-06
9.740000e+02 1.977294e-06
9.750000e+02 2.300802e-06
9.760000e+02 3.551667e-06
9.770000e+02 3.745638e-06
9.780000e+02 3.644338e-06
9.790000e+02 4.267630e-06
9.800000e+02 4.480601e-06
9.810000e+02 4.383329e-06
9.820000e+02 3.313508e-06
9.830000e+02 5.189663e-06
9.840000e+02 1.049805e-07
9.850000e+02 6.269352e-07
9.860000e+02 2.402281e-06
9.870000e+02 6.485682e-06
9.880000e+02 6.090784e-08
9.890000e+02 6.388126e-06
9.900000e+02 1.966310e-07
9.910000e+02 2.429723e-06
9.920000e+02 1.157801e-08
9.930000e+02 4.561977e-06
9.940000e+02 1.605258e-10
9.950000e+02 2.206215e-07
9.960000e+02 2.261058e-07
9.970000e+02 7.844392e-10
9.980000e+02 1.067237e-05
9.990000e+02 2.097024e-06
1.000000e+03 1.118306e-05
1.001000e+03 1.348427e-05
1.002000e+03 1.523870e-05
1.003000e+03 7.094767e-06
1.004000e+03 1.722756e-07
1.005000e+03 1.328346e-05
1.006000e+03 1.891600e-05
1.007000e+03 1.998602e-05
1.008000e+03 2.013514e-05
1.009000e+03 3.571065e-06
1.010000e+03 2.338455e-05
1.011000e+03 2.456754e-05
1.012000e+03 2.590751e-05
1.013000e+03 2.740553e-05
1.014000e+03 4.045432e-08
1.015000e+03 1.933677e-07
1.016000e+03 1.154724e-05
1.017000e+03 4.895264e-08
1.018000e+03 1.581316e-05
1.019000e+03 3.950918e-07
1.020000e+03 3.727708e-05
1.021000e+03 1.170010e-07
1.022000e+03 7.008410e-06
1.023000e+03 1.354669e-06
1.024000e+03 4.498211e-07
1.025000e+03 3.194717e-08
1.026000e+03 7.631167e-08
1.027000e+03 1.798256e-06
1.028000e+03 1.343506e-08
1.029000e+03 8.334246e-08
1.030000e+03 1.955605e-05
1.031000e+03 5.409046e-05
1.032000e+03 2.059632e-05
1.033000e+03 2.811357e-07
1.034000e+03 5.820597e-05
1.035000e+03 4.612957e-09
1.036000e+03 2.471861e-07
1.037000e+03 8.933383e-05
1.038000e+03 9.759345e-05
1.039000e+03 9.388899e-05
1.040000e+03 1.062088e-04
1.041000e+03 7.469850e-05
1.042000e+03 1.191013e-04
1.043000e+03 6.270706e-05
1.044000e+03 1.315482e-04
1.045000e+03 1.356442e-04
1.046000e+03 1.404113e-04
1.047000e+03 1.302707e-04
1.048000e+03 1.882952e-05
1.049000e+03 1.370291e-04
1.050000e+03 7.763736e-05
1.051000e+03 4.707981e-05
1.052000e+03 1.875362e-04
1.053000e+03 2.005281e-04
1.054000e+03 4.005706e-07
1.055000e+03 3.507492e-06
1.056000e+03 2.287823e-04
1.057000e+03 2.129495e-04
1.058000e+03 1.456342e-04
1.059000e+03 1.128509e-04
1.060000e+03 1.124365e-05
1.061000e+03 2.886567e-04
1.062000e+03 1.170093e-04
1.063000e+03 4.098746e-08
1.064000e+03 4.336471e-09
1.065000e+03 8.452334e-07
1.066000e+03 9.549840e-07
1.067000e+03 1.671253e-05
1.068000e+03 4.037463e-04
1.069000e+03 1.691742e-05
1.070000e+03 3.758299e-04
1.071000e+03 4.582468e-04
1.072000e+03 4.809196e-04
1.073000e+03 2.723769e-06
1.074000e+03 4.946188e-04
1.075000e+03 4.446400e-04
1.076000e+03 7.695076e-05
1.077000e+03 4.208996e-07
1.078000e+03 2.827809e-04
1.079000e+03 5.341976e-04
1.080000e+03 4.583347e-04
1.081000e+03 6.893265e-04
1.082000e+03 6.061491e-04
1.083000e+03 1.953822e-04
1.084000e+03 5.900140e-04
1.085000e+03 2.686147e-04
1.086000e+03 8.735392e-04
1.087000e+03 2.301138e-04
1.088000e+03 8.595878e-04
1.089000e+03 9.627278e-04
1.090000e+03 7.369852e-04
1.091000e+03 5.976704e-04
1.092000e+03 9.075706e-05
1.093000e+03 1.011453e-03
1.094000e+03 9.708906e-04
1.095000e+03 1.218675e-03
1.096000e+03 3.887288e-05
1.097000e+03 7.993794e-04
1.098000e+03 7.902324e-05
1.099000e+03 1.024324e-03
1.100000e+03 4.372988e-05
1.101000e+03 1.172750e-04
1.102000e+03 1.223288e-03
1.103000e+03 1.603219e-03
1.104000e+03 1.716568e-03
1.105000e+03 1.746306e-03
1.106000e+03 1.710930e-03
1.107000e+03 1.178992e-04
1.108000e+03 1.891645e-03
1.109000e+03 1.002106e-03
1.110000e+03 1.937715e-03
1.111000e+03 2.112519e-03
1.112000e+03 2.141184e-03
1.113000e+03 1.851651e-03
1.114000e+03 1.577529e-03
1.115000e+03 1.104748e-03
1.116000e+03 5.890491e-04
1.117000e+03 2.436870e-03
1.118000e+03 1.456837e-03
1.119000e+03 2.520924e-03
1.120000e+03 1.065895e-03
1.121000e+03 2.659731e-03
1.122000e+03 1.156367e-03
1.123000e+03 2.838178e-03
1.124000e+03 2.924293e-03
1.125000e+03 2.879003e-03
1.126000e+03 3.085802e-03
1.127000e+03 3.127948e-03
1.128000e+03 2.865374e-03
1.129000e+03 3.163145e-03
1.130000e+03 3.050787e-03
1.131000e+03 3.142735e-03
1.132000e+03 5.757737e-04
1.133000e+03 3.083968e-03
1.134000e+03 3.447641e-03
1.135000e+03 1.944648e-05
1.136000e+03 3.263543e-03
1.137000e+03 4.048327e-03
1.138000e+03 4.065719e-03
1.139000e+03 4.257947e-03
1.140000e+03 4.181720e-03
1.141000e+03 4.474884e-03
1.142000e+03 4.525405e-03
1.143000e+03 4.224907e-03
1.144000e+03 4.447583e-03
1.145000e+03 7.413258e-04
1.146000e+03 4.998504e-03
1.147000e+03 5.186519e-03
1.148000e+03 4.078517e-03
1.149000e+03 5.265398e-03
1.150000e+03 5.306399e-03
1.151000e+03 5.735816e-03
1.152000e+03 5.871506e-03
1.153000e+03 5.829688e-03
1.154000e+03 5.875012e-03
1.155000e+03 6.220268e-03
1.156000e+03 8.168817e-05
1.157000e+03 6.425745e-03
1.158000e+03 6.373331e-03
1.159000e+03 6.904165e-03
1.160000e+03 7.045741e-03
1.161000e+03 7.252130e-03
1.162000e+03 4.066579e-03
1.163000e+03 7.210080e-03
1.164000e+03 1.348974e-05
1.165000e+03 7.977878e-03
1.166000e+03 8.214042e-03
1.167000e+03 8.446143e-03
1.168000e+03 8.593434e-03
1.169000e+03 4.873188e-03
1.170000e+03 9.115162e-03
1.171000e+03 9.434781e-03
1.172000e+03 9.688527e-03
1.173000e+03 9.982883e-03
1.174000e+03 4.048423e-03
1.175000e+03 1.733936e-05
1.176000e+03 3.883615e-06
1.177000e+03 1.115541e-02
1.178000e+03 1.136964e-02
1.179000e+03 1.174173e-02
1.180000e+03 1.167876e-02
1.181000e+03 1.220930e-02
1.182000e+03 1.268192e-02
1.183000e+03 1.298741e-02
1.184000e+03 1.278950e-02
1.185000e+03 1.375096e-02
1.186000e+03 6.029701e-03
1.187000e+03 1.414646e-02
1.188000e+03 1.430323e-02
1.189000e+03 1.481291e-02
1.190000e+03 1.540903e-02
1.191000e+03 1.574782e-02
1.192000e+03 1.591101e-02
1.193000e+03 1.290878e-02
1.194000e+03 1.635019e-02
1.195000e+03 1.681558e-02
1.196000e+03 1.688879e-02
1.197000e+03 2.923903e-02
1.198000e+03 2.574976e-02
1.199000e+03 2.669160e-02
1.200000e+03 2.608491e-02
1.201000e+03 2.762099e-02
1.202000e+03 2.691623e-02
1.203000e+03 3.470946e-02
1.204000e+03 3.021437e-02
1.205000e+03 2.988870e-02
1.206000e+03 2.897893e-02
1.207000e+03 8.140299e-04
1.208000e+03 2.017284e-02
1.209000e+03 1.488411e-02
1.210000e+03 2.661068e-05
1.211000e+03 6.602339e-03
1.212000e+03 3.167399e-03
1.213000e+03 1.369538e-03
1.214000e+03 3.585333e-04
1.215000e+03 3.092781e-05
1.216000e+03 5.489585e-06
1.217000e+03 2.058354e-04
1.218000e+03 1.104256e-03
1.219000e+03 3.215120e-03
1.220000e+03 7.226295e-03
1.221000e+03 1.205432e-02
1.222000e+03 1.984694e-02
1.223000e+03 2.526064e-02
1.224000e+03 3.281074e-02
1.225000e+03 4.004897e-02
1.226000e+03 5.058762e-02
1.227000e+03 5.258925e-02
1.228000e+03 7.183804e-02
1.229000e+03 7.883518e-02
1.230000e+03 3.790553e-04
1.231000e+03 7.076925e-02
1.232000e+03 9.912281e-02
1.233000e+03 1.081748e-01
1.234000e+03 8.519243e-02
1.235000e+03 1.212480e-01
1.236000e+03 1.252370e-01
1.237000e+03 1.332039e-01
1.238000e+03 1.388954e-01
1.239000e+03 1.397264e-01
1.240000e+03 1.872320e-02
1.241000e+03 1.414959e-01
1.242000e+03 1.585983e-01
1.243000e+03 1.656317e-01
1.244000e+03 1.726922e-01
1.245000e+03 8.211758e-02
1.246000e+03 1.826942e-01
1.247000e+03 1.867885e-01
1.248000e+03 3.598450e-02
1.249000e+03 1.902737e-01
1.250000e+03 1.812063e-01
1.251000e+03 2.149119e-01
1.252000e+03 2.062214e-01
1.253000e+03 2.282395e-01
1.254000e+03 2.271840e-01
1.255000e+03 1.248208e-02
1.256000e+03 1.853481e-01
1.257000e+03 1.904265e-01
1.258000e+03 2.209375e-01
1.259000e+03 2.735359e-01
1.260000e+03 2.808556e-01
1.261000e+03 1.611009e-02
1.262000e+03 3.001198e-01
1.263000e+03 1.253294e-01
1.264000e+03 2.460023e-01
1.265000e+03 1.402974e-02
1.266000e+03 3.366213e-01
1.267000e+03 3.461950e-01
