# wavelength_A flux
5.000000e+02 1.999866e-10
5.010000e+02 2.291115e-10
5.020000e+02 2.623309e-10
5.030000e+02 3.001993e-10
5.040000e+02 3.433440e-10
5.050000e+02 3.967965e-10
5.060000e+02 4.532722e-10
5.070000e+02 5.175052e-10
5.080000e+02 5.905219e-10
5.090000e+02 6.734802e-10
5.100000e+02 7.676825e-10
5.110000e+02 8.745977e-10
5.120000e+02 9.958780e-10
5.130000e+02 1.133383e-09
5.140000e+02 1.289202e-09
5.150000e+02 1.465677e-09
5.160000e+02 1.665468e-09
5.170000e+02 1.891476e-09
5.180000e+02 2.147152e-09
5.190000e+02 2.436105e-09
5.200000e+02 2.762555e-09
5.210000e+02 3.131182e-09
5.220000e+02 3.547049e-09
5.230000e+02 4.016587e-09
5.240000e+02 4.545806e-09
5.250000e+02 5.142275e-09
5.260000e+02 5.814156e-09
5.270000e+02 6.570652e-09
5.280000e+02 7.422013e-09
5.290000e+02 8.378737e-09
5.300000e+02 9.456441e-09
5.310000e+02 1.066652e-08
5.320000e+02 1.202581e-08
5.330000e+02 1.355199e-08
5.340000e+02 1.526477e-08
5.350000e+02 1.718608e-08
5.360000e+02 1.934030e-08
5.370000e+02 2.164353e-08
5.380000e+02 2.445922e-08
5.390000e+02 2.748809e-08
5.400000e+02 3.087787e-08
5.410000e+02 3.466872e-08
5.420000e+02 3.891081e-08
5.430000e+02 4.365131e-08
5.440000e+02 4.894762e-08
5.450000e+02 5.486263e-08
5.460000e+02 6.146080e-08
5.470000e+02 6.883396e-08
5.480000e+02 7.705231e-08
5.490000e+02 8.621521e-08
5.500000e+02 9.642679e-08
5.510000e+02 1.078024e-07
5.520000e+02 1.204694e-07
5.530000e+02 1.345687e-07
5.540000e+02 1.502558e-07
5.550000e+02 1.677024e-07
5.560000e+02 1.870979e-07
5.570000e+02 2.086515e-07
5.580000e+02 2.325935e-07
5.590000e+02 2.591783e-07
5.600000e+02 2.886855e-07
5.610000e+02 3.214238e-07
5.620000e+02 3.577327e-07
5.630000e+02 3.979858e-07
5.640000e+02 4.425943e-07
5.650000e+02 4.920104e-07
5.660000e+02 5.467315e-07
5.670000e+02 6.073037e-07
5.680000e+02 6.743272e-07
5.690000e+02 7.484612e-07
5.700000e+02 8.304289e-07
5.710000e+02 9.210253e-07
5.720000e+02 1.021121e-06
5.730000e+02 1.131670e-06
5.740000e+02 1.253721e-06
5.750000e+02 1.388428e-06
5.760000e+02 1.536988e-06
5.770000e+02 1.700920e-06
5.780000e+02 1.881595e-06
5.790000e+02 2.080706e-06
5.800000e+02 2.300057e-06
5.810000e+02 2.541618e-06
5.820000e+02 2.807544e-06
5.830000e+02 3.100181e-06
5.840000e+02 3.421774e-06
5.850000e+02 3.776100e-06
5.860000e+02 4.165410e-06
5.870000e+02 4.593165e-06
5.880000e+02 5.063084e-06
5.890000e+02 5.579139e-06
5.900000e+02 6.145721e-06
5.910000e+02 6.767514e-06
5.920000e+02 7.449688e-06
5.930000e+02 8.197860e-06
5.940000e+02 9.018142e-06
5.950000e+02 9.917181e-06
5.960000e+02 1.090224e-05
5.970000e+02 1.198117e-05
5.980000e+02 1.316255e-05
5.990000e+02 1.445568e-05
6.000000e+02 1.587068e-05
6.010000e+02 1.741853e-05
6.020000e+02 1.911122e-05
6.030000e+02 2.096166e-05
6.040000e+02 2.298392e-05
6.050000e+02 2.519328e-05
6.060000e+02 2.760627e-05
6.070000e+02 3.024091e-05
6.080000e+02 3.311661e-05
6.090000e+02 3.625449e-05
6.100000e+02 3.967738e-05
6.110000e+02 4.341008e-05
6.120000e+02 4.747936e-05
6.130000e+02 5.191426e-05
6.140000e+02 5.674618e-05
6.150000e+02 6.200909e-05
6.160000e+02 6.773975e-05
6.170000e+02 7.397788e-05
6.180000e+02 8.076643e-05
6.190000e+02 8.815180e-05
6.200000e+02 9.618416e-05
6.210000e+02 1.049176e-04
6.220000e+02 1.144107e-04
6.230000e+02 1.247265e-04
6.240000e+02 1.359331e-04
6.250000e+02 1.481040e-04
6.260000e+02 1.613184e-04
6.270000e+02 1.756619e-04
6.280000e+02 1.912264e-04
6.290000e+02 2.081114e-04
6.300000e+02 2.264236e-04
6.310000e+02 2.462506e-04
6.320000e+02 2.677997e-04
6.330000e+02 2.911207e-04
6.340000e+02 3.163864e-04
6.350000e+02 3.437491e-04
6.360000e+02 3.733716e-04
6.370000e+02 4.054505e-04
6.380000e+02 4.401585e-04
6.390000e+02 4.777092e-04
6.400000e+02 5.183246e-04
6.410000e+02 5.622434e-04
6.420000e+02 6.097219e-04
6.430000e+02 6.610352e-04
6.440000e+02 7.164789e-04
6.450000e+02 7.763697e-04
6.460000e+02 8.410483e-04
6.470000e+02 9.108789e-04
6.480000e+02 9.862537e-04
6.490000e+02 1.067592e-03
6.500000e+02 1.155342e-03
6.510000e+02 1.249988e-03
6.520000e+02 1.352046e-03
6.530000e+02 1.462068e-03
6.540000e+02 1.580646e-03
6.550000e+02 1.708416e-03
6.560000e+02 1.846056e-03
6.570000e+02 1.994284e-03
6.580000e+02 2.153900e-03
6.590000e+02 2.325713e-03
6.600000e+02 2.510619e-03
6.610000e+02 2.709570e-03
6.620000e+02 2.923579e-03
6.630000e+02 3.153734e-03
6.640000e+02 3.401193e-03
6.650000e+02 3.667195e-03
6.660000e+02 3.953064e-03
6.670000e+02 4.260212e-03
6.680000e+02 4.590146e-03
6.690000e+02 4.944475e-03
6.700000e+02 5.324916e-03
6.710000e+02 5.733302e-03
6.720000e+02 6.171583e-03
6.730000e+02 6.641843e-03
6.740000e+02 7.146302e-03
6.750000e+02 7.687325e-03
6.760000e+02 8.267434e-03
6.770000e+02 8.889315e-03
6.780000e+02 9.555827e-03
6.790000e+02 1.027002e-02
6.800000e+02 1.103513e-02
6.810000e+02 1.185462e-02
6.820000e+02 1.273215e-02
6.830000e+02 1.367164e-02
6.840000e+02 1.467725e-02
6.850000e+02 1.575339e-02
6.860000e+02 1.690478e-02
6.870000e+02 1.813640e-02
6.880000e+02 1.945358e-02
6.890000e+02 2.086196e-02
6.900000e+02 2.236754e-02
6.910000e+02 2.397670e-02
6.920000e+02 2.569619e-02
6.930000e+02 2.753322e-02
6.940000e+02 2.949540e-02
6.950000e+02 3.159085e-02
6.960000e+02 3.382815e-02
6.970000e+02 3.621629e-02
6.980000e+02 3.876533e-02
6.990000e+02 4.148514e-02
7.000000e+02 4.438674e-02
7.010000e+02 4.748165e-02
7.020000e+02 5.078210e-02
7.030000e+02 5.430104e-02
7.040000e+02 5.805220e-02
7.050000e+02 6.205012e-02
7.060000e+02 6.631021e-02
7.070000e+02 7.084877e-02
7.080000e+02 7.568308e-02
7.090000e+02 8.083140e-02
7.100000e+02 8.631311e-02
7.110000e+02 9.214865e-02
7.120000e+02 9.835971e-02
7.130000e+02 1.049692e-01
7.140000e+02 1.120013e-01
7.150000e+02 1.194817e-01
7.160000e+02 1.274375e-01
7.170000e+02 1.358972e-01
7.180000e+02 1.448910e-01
7.190000e+02 1.544516e-01
7.200000e+02 1.646119e-01
7.210000e+02 1.754080e-01
7.220000e+02 1.868774e-01
7.230000e+02 1.990601e-01
7.240000e+02 2.119979e-01
7.250000e+02 2.257354e-01
7.260000e+02 2.403192e-01
7.270000e+02 2.557988e-01
7.280000e+02 2.722262e-01
7.290000e+02 2.896565e-01
7.300000e+02 3.081475e-01
7.310000e+02 3.277605e-01
7.320000e+02 3.485598e-01
7.330000e+02 3.706134e-01
7.340000e+02 3.939929e-01
7.350000e+02 4.187737e-01
7.360000e+02 4.450352e-01
7.370000e+02 4.728615e-01
7.380000e+02 5.023404e-01
7.390000e+02 5.335649e-01
7.400000e+02 5.666327e-01
7.410000e+02 6.016470e-01
7.420000e+02 6.387159e-01
7.430000e+02 6.779536e-01
7.440000e+02 7.194800e-01
7.450000e+02 7.634214e-01
7.460000e+02 8.099105e-01
7.470000e+02 8.590870e-01
7.480000e+02 9.110979e-01
7.490000e+02 9.660975e-01
7.500000e+02 1.024248e+00
7.510000e+02 1.085720e+00
7.520000e+02 1.150693e+00
7.530000e+02 1.219356e+00
7.540000e+02 1.291906e+00
7.550000e+02 1.368551e+00
7.560000e+02 1.449509e+00
7.570000e+02 1.535010e+00
7.580000e+02 1.625296e+00
7.590000e+02 1.720617e+00
7.600000e+02 1.821241e+00
7.610000e+02 1.927444e+00
7.620000e+02 2.039520e+00
7.630000e+02 2.157775e+00
7.640000e+02 2.282530e+00
7.650000e+02 2.414123e+00
7.660000e+02 2.552907e+00
7.670000e+02 2.699254e+00
7.680000e+02 2.853551e+00
7.690000e+02 3.016209e+00
7.700000e+02 3.187653e+00
7.710000e+02 3.368330e+00
7.720000e+02 3.558709e+00
7.730000e+02 3.759284e+00
7.740000e+02 3.970567e+00
7.750000e+02 4.193099e+00
7.760000e+02 4.427431e+00
7.770000e+02 4.674194e+00
7.780000e+02 4.933968e+00
7.790000e+02 5.207412e+00
7.800000e+02 5.495207e+00
7.810000e+02 5.798061e+00
7.820000e+02 6.116718e+00
7.830000e+02 6.451953e+00
7.840000e+02 6.804581e+00
7.850000e+02 7.175451e+00
7.860000e+02 7.565451e+00
7.870000e+02 7.975515e+00
7.880000e+02 8.406610e+00
7.890000e+02 8.859753e+00
7.900000e+02 9.336007e+00
7.910000e+02 9.836482e+00
7.920000e+02 1.036234e+01
7.930000e+02 1.091478e+01
7.940000e+02 1.149509e+01
7.950000e+02 1.210458e+01
7.960000e+02 1.274463e+01
7.970000e+02 1.341668e+01
7.980000e+02 1.412224e+01
7.990000e+02 1.486288e+01
8.000000e+02 1.564025e+01
8.010000e+02 1.645605e+01
8.020000e+02 1.731208e+01
8.030000e+02 1.821020e+01
8.040000e+02 1.915235e+01
8.050000e+02 2.014057e+01
8.060000e+02 2.117697e+01
8.070000e+02 2.226377e+01
8.080000e+02 2.340326e+01
8.090000e+02 2.459785e+01
8.100000e+02 2.585005e+01
8.110000e+02 2.716246e+01
8.120000e+02 2.853780e+01
8.130000e+02 2.997892e+01
8.140000e+02 3.148876e+01
8.150000e+02 3.307041e+01
8.160000e+02 3.472707e+01
8.170000e+02 3.646209e+01
8.180000e+02 3.827895e+01
8.190000e+02 4.018126e+01
8.200000e+02 4.217282e+01
8.210000e+02 4.425754e+01
8.220000e+02 4.643952e+01
8.230000e+02 4.872303e+01
8.240000e+02 5.111248e+01
8.250000e+02 5.361251e+01
8.260000e+02 5.622791e+01
8.270000e+02 5.896367e+01
8.280000e+02 6.182500e+01
8.290000e+02 6.481730e+01
8.300000e+02 6.794619e+01
8.310000e+02 7.121754e+01
8.320000e+02 7.463741e+01
8.330000e+02 7.821214e+01
8.340000e+02 8.194830e+01
8.350000e+02 8.585206e+01
8.360000e+02 8.993246e+01
8.370000e+02 9.419507e+01
8.380000e+02 9.864805e+01
8.390000e+02 1.032994e+02
8.400000e+02 1.081575e+02
8.410000e+02 1.132309e+02
8.420000e+02 1.185283e+02
8.430000e+02 1.240597e+02
8.440000e+02 1.298340e+02
8.450000e+02 1.358615e+02
8.460000e+02 1.421526e+02
8.470000e+02 1.487181e+02
8.480000e+02 1.555691e+02
8.490000e+02 1.627174e+02
8.500000e+02 1.701750e+02
8.510000e+02 1.779544e+02
8.520000e+02 1.860686e+02
8.530000e+02 1.945312e+02
8.540000e+02 2.033562e+02
8.550000e+02 2.125579e+02
8.560000e+02 2.221515e+02
8.570000e+02 2.321526e+02
8.580000e+02 2.425774e+02
8.590000e+02 2.534427e+02
8.600000e+02 2.647659e+02
8.610000e+02 2.765651e+02
8.620000e+02 2.888589e+02
8.630000e+02 3.016667e+02
8.640000e+02 3.150088e+02
8.650000e+02 3.289058e+02
8.660000e+02 3.433794e+02
8.670000e+02 3.584520e+02
8.680000e+02 3.741466e+02
8.690000e+02 3.904873e+02
8.700000e+02 4.074989e+02
8.710000e+02 4.252073e+02
8.720000e+02 4.436390e+02
8.730000e+02 4.628216e+02
8.740000e+02 4.827838e+02
8.750000e+02 5.035551e+02
8.760000e+02 5.251661e+02
8.770000e+02 5.476486e+02
8.780000e+02 5.710353e+02
8.790000e+02 5.953602e+02
8.800000e+02 6.206586e+02
8.810000e+02 6.469666e+02
8.820000e+02 6.743219e+02
8.830000e+02 7.027634e+02
8.840000e+02 7.323315e+02
8.850000e+02 7.630677e+02
8.860000e+02 7.950150e+02
8.870000e+02 8.282180e+02
8.880000e+02 8.627228e+02
8.890000e+02 8.985769e+02
8.900000e+02 9.358295e+02
8.910000e+02 9.745316e+02
8.920000e+02 1.014654e+03
8.930000e+02 1.056496e+03
8.940000e+02 1.099869e+03
8.950000e+02 1.144912e+03
8.960000e+02 1.191686e+03
8.970000e+02 1.240253e+03
8.980000e+02 1.290676e+03
8.990000e+02 1.343021e+03
9.000000e+02 1.397358e+03
9.010000e+02 1.453755e+03
9.020000e+02 1.512288e+03
9.030000e+02 1.573029e+03
9.040000e+02 1.636058e+03
9.050000e+02 1.701454e+03
9.060000e+02 1.769301e+03
9.070000e+02 1.839682e+03
9.080000e+02 1.912689e+03
9.090000e+02 1.988409e+03
9.100000e+02 2.066939e+03
9.110000e+02 2.148375e+03
9.120000e+02 2.232819e+03
9.130000e+02 2.319240e+03
9.140000e+02 2.416480e+03
9.150000e+02 8.038555e+03
9.160000e+02 1.640366e+04
9.170000e+02 1.639048e+04
9.180000e+02 1.456919e+04
9.190000e+02 2.607669e+04
9.200000e+02 3.026056e+04
9.210000e+02 3.144252e+03
9.220000e+02 3.273787e+04
9.230000e+02 1.831659e+04
9.240000e+02 2.840164e+04
9.250000e+02 3.394611e+04
9.260000e+02 2.719380e+04
9.270000e+02 3.081635e+04
9.280000e+02 4.110798e+04
9.290000e+02 3.761024e+04
9.300000e+02 4.225631e+04
9.310000e+02 2.842992e+04
9.320000e+02 4.643783e+04
9.330000e+02 4.637964e+04
9.340000e+02 4.613606e+04
9.350000e+02 9.018756e+03
9.360000e+02 3.885113e+04
9.370000e+02 7.990869e+03
9.380000e+02 2.592245e+04
9.390000e+02 4.484031e+04
9.400000e+02 5.947495e+04
9.410000e+02 2.425971e+04
9.420000e+02 6.339329e+04
9.430000e+02 5.361096e+04
9.440000e+02 5.349821e+04
9.450000e+02 6.941191e+04
9.460000e+02 6.985794e+04
9.470000e+02 4.436499e+04
9.480000e+02 7.120931e+04
9.490000e+02 7.499359e+04
9.500000e+02 1.476856e+04
9.510000e+02 7.660324e+04
9.520000e+02 8.289859e+04
9.530000e+02 5.060409e+04
9.540000e+02 5.036373e+04
9.550000e+02 8.446333e+04
9.560000e+02 9.321625e+04
9.570000e+02 4.854812e+04
9.580000e+02 4.172913e+04
9.590000e+02 1.055825e+05
9.600000e+02 1.770341e+04
9.610000e+02 1.074560e+05
9.620000e+02 1.040712e+05
9.630000e+02 1.080149e+05
9.640000e+02 1.513597e+04
9.650000e+02 7.489912e+04
9.660000e+02 1.147997e+05
9.670000e+02 9.846445e+04
9.680000e+02 8.222598e+04
9.690000e+02 1.303810e+05
9.700000e+02 1.315991e+05
9.710000e+02 1.037680e+05
9.720000e+02 1.137197e+05
9.730000e+02 1.310273e+05
9.740000e+02 1.505074e+05
9.750000e+02 1.472596e+05
9.760000e+02 1.701108e+05
9.770000e+02 1.729205e+05
9.780000e+02 1.674357e+05
9.790000e+02 1.880047e+05
9.800000e+02 1.933745e+05
9.810000e+02 1.868416e+05
9.820000e+02 1.630371e+05
9.830000e+02 2.093978e+05
9.840000e+02 8.610285e+04
9.850000e+02 2.005773e+05
9.860000e+02 2.040236e+05
9.870000e+02 2.339751e+05
9.880000e+02 1.382342e+05
9.890000e+02 1.919378e+05
9.900000e+02 4.110040e+04
9.910000e+02 1.735002e+05
9.920000e+02 1.064191e+05
9.930000e+02 2.670127e+05
9.940000e+02 4.392188e+04
9.950000e+02 8.347874e+04
9.960000e+02 1.886957e+05
9.970000e+02 7.765323e+04
9.980000e+02 3.080528e+05
9.990000e+02 2.409045e+05
1.000000e+03 3.340289e+05
1.001000e+03 3.446831e+05
1.002000e+03 3.525771e+05
1.003000e+03 2.847973e+05
1.004000e+03 2.296565e+05
1.005000e+03 3.118102e+05
1.006000e+03 3.913917e+05
1.007000e+03 4.035351e+05
1.008000e+03 4.090441e+05
1.009000e+03 3.549915e+05
1.010000e+03 4.312044e+05
1.011000e+03 4.467709e+05
1.012000e+03 4.533056e+05
1.013000e+03 4.626816e+05
1.014000e+03 1.878680e+05
1.015000e+03 2.680796e+05
1.016000e+03 4.062373e+05
1.017000e+03 2.088006e+05
1.018000e+03 4.418650e+05
1.019000e+03 3.038525e+05
1.020000e+03 5.630516e+05
1.021000e+03 3.005312e+05
1.022000e+03 4.352709e+05
1.023000e+03 3.317531e+05
1.024000e+03 5.807902e+05
1.025000e+03 2.272765e+05
1.026000e+03 2.237077e+05
1.027000e+03 5.666163e+05
1.028000e+03 1.508507e+05
1.029000e+03 2.958998e+05
1.030000e+03 6.803509e+05
1.031000e+03 6.396526e+05
1.032000e+03 7.526188e+05
1.033000e+03 2.576183e+05
1.034000e+03 7.589144e+05
1.035000e+03 1.655628e+05
1.036000e+03 3.690470e+05
1.037000e+03 8.148819e+05
1.038000e+03 8.947386e+05
1.039000e+03 9.008361e+05
1.040000e+03 9.290836e+05
1.041000e+03 9.636114e+05
1.042000e+03 9.813512e+05
1.043000e+03 9.644092e+05
1.044000e+03 1.042859e+06
1.045000e+03 1.053751e+06
1.046000e+03 1.090050e+06
1.047000e+03 1.033641e+06
1.048000e+03 7.387427e+05
1.049000e+03 1.125465e+06
1.050000e+03 1.121121e+06
1.051000e+03 1.077904e+06
1.052000e+03 1.256824e+06
1.053000e+03 1.291659e+06
1.054000e+03 5.573698e+05
1.055000e+03 1.364837e+06
1.056000e+03 1.399064e+06
1.057000e+03 1.365251e+06
1.058000e+03 1.346856e+06
1.059000e+03 1.094541e+06
1.060000e+03 1.017445e+06
1.061000e+03 1.512012e+06
1.062000e+03 1.382654e+06
1.063000e+03 8.103491e+05
1.064000e+03 3.544995e+05
1.065000e+03 7.905906e+05
1.066000e+03 1.649515e+06
1.067000e+03 1.243718e+06
1.068000e+03 1.870949e+06
1.069000e+03 1.019794e+06
1.070000e+03 1.880443e+06
1.071000e+03 2.005617e+06
1.072000e+03 2.049134e+06
1.073000e+03 1.052180e+06
1.074000e+03 1.974432e+06
1.075000e+03 1.948042e+06
1.076000e+03 2.251241e+06
1.077000e+03 1.693391e+06
1.078000e+03 2.067611e+06
1.079000e+03 2.265635e+06
1.080000e+03 2.365291e+06
1.081000e+03 2.468243e+06
1.082000e+03 2.518592e+06
1.083000e+03 2.535731e+06
1.084000e+03 2.713190e+06
1.085000e+03 2.279383e+06
1.086000e+03 2.837113e+06
1.087000e+03 2.123405e+06
1.088000e+03 2.964178e+06
1.089000e+03 3.038875e+06
1.090000e+03 2.683436e+06
1.091000e+03 2.711494e+06
1.092000e+03 3.244098e+06
1.093000e+03 3.314761e+06
1.094000e+03 3.326914e+06
1.095000e+03 3.471179e+06
1.096000e+03 3.434926e+06
1.097000e+03 3.544910e+06
1.098000e+03 3.701539e+06
1.099000e+03 3.609852e+06
1.100000e+03 2.530604e+06
1.101000e+03 2.830839e+06
1.102000e+03 5.551602e+06
1.103000e+03 2.439449e+07
1.104000e+03 9.253842e+06
1.105000e+03 4.057660e+06
1.106000e+03 2.351279e+07
1.107000e+03 3.435580e+06
1.108000e+03 3.581091e+07
1.109000e+03 8.065864e+06
1.110000e+03 1.738588e+07
1.111000e+03 9.040060e+06
1.112000e+03 3.165440e+07
1.113000e+03 4.836146e+07
1.114000e+03 3.441753e+06
1.115000e+03 1.410502e+07
1.116000e+03 1.147172e+07
1.117000e+03 3.306968e+06
1.118000e+03 1.069870e+07
1.119000e+03 3.976956e+07
1.120000e+03 1.239608e+07
1.121000e+03 4.584550e+07
1.122000e+03 1.468308e+06
1.123000e+03 1.159854e+07
1.124000e+03 5.277303e+07
1.125000e+03 3.638329e+07
1.126000e+03 6.194856e+07
1.127000e+03 5.726919e+07
1.128000e+03 2.380170e+07
1.129000e+03 4.486123e+07
1.130000e+03 5.721847e+07
1.131000e+03 6.440055e+07
1.132000e+03 4.509860e+06
1.133000e+03 1.677747e+07
1.134000e+03 4.628571e+07
1.135000e+03 3.658716e+06
1.136000e+03 3.066702e+07
1.137000e+03 6.812458e+07
1.138000e+03 4.762863e+07
1.139000e+03 7.155441e+07
1.140000e+03 2.700018e+06
1.141000e+03 7.134543e+07
1.142000e+03 7.812924e+07
1.143000e+03 6.895244e+07
1.144000e+03 8.115402e+07
1.145000e+03 1.131941e+07
1.146000e+03 8.495504e+07
1.147000e+03 8.122203e+07
1.148000e+03 2.283170e+07
1.149000e+03 8.159073e+07
1.150000e+03 6.612770e+07
1.151000e+03 9.100769e+07
1.152000e+03 8.840674e+07
1.153000e+03 4.770006e+07
1.154000e+03 7.205909e+07
1.155000e+03 8.047228e+07
1.156000e+03 5.477244e+07
1.157000e+03 9.935872e+07
1.158000e+03 5.210920e+06
1.159000e+03 8.973772e+07
1.160000e+03 6.756747e+07
1.161000e+03 1.028580e+08
1.162000e+03 2.508688e+07
1.163000e+03 5.790895e+07
1.164000e+03 5.006720e+06
1.165000e+03 1.090184e+08
1.166000e+03 1.002969e+08
1.167000e+03 9.660977e+07
1.168000e+03 1.190679e+08
1.169000e+03 1.191243e+08
1.170000e+03 1.095999e+08
1.171000e+03 1.150582e+08
1.172000e+03 8.058707e+07
1.173000e+03 1.281686e+08
1.174000e+03 3.105846e+07
1.175000e+03 5.976008e+06
1.176000e+03 5.529604e+06
1.177000e+03 1.391523e+08
1.178000e+03 1.394627e+08
1.179000e+03 1.394818e+08
1.180000e+03 9.559986e+07
1.181000e+03 1.477599e+08
1.182000e+03 1.431856e+08
1.183000e+03 1.321941e+08
1.184000e+03 1.269517e+08
1.185000e+03 1.441325e+08
1.186000e+03 7.366123e+07
1.187000e+03 1.471927e+08
1.188000e+03 1.073030e+08
1.189000e+03 7.802080e+06
1.190000e+03 5.882739e+07
1.191000e+03 1.467527e+08
1.192000e+03 1.633015e+08
1.193000e+03 7.448384e+06
1.194000e+03 8.877152e+06
1.195000e+03 1.357376e+08
1.196000e+03 1.636728e+08
1.197000e+03 2.434944e+08
1.198000e+03 1.281389e+08
1.199000e+03 2.404097e+08
1.200000e+03 1.368960e+08
1.201000e+03 2.288578e+08
1.202000e+03 1.740142e+08
1.203000e+03 2.610956e+08
1.204000e+03 1.204745e+08
1.205000e+03 2.218008e+08
1.206000e+03 2.197703e+08
1.207000e+03 3.952710e+07
1.208000e+03 1.688611e+08
1.209000e+03 1.372440e+08
1.210000e+03 1.176698e+07
1.211000e+03 8.159980e+07
1.212000e+03 5.449151e+07
1.213000e+03 3.580265e+07
1.214000e+03 2.181199e+07
1.215000e+03 1.398985e+07
1.216000e+03 1.266093e+07
1.217000e+03 1.952223e+07
1.218000e+03 3.315029e+07
1.219000e+03 5.519483e+07
1.220000e+03 7.298505e+07
1.221000e+03 1.223184e+08
1.222000e+03 1.568300e+08
1.223000e+03 2.008894e+08
1.224000e+03 2.530035e+08
1.225000e+03 1.376997e+08
1.226000e+03 3.439964e+08
1.227000e+03 3.755225e+08
1.228000e+03 2.632416e+08
1.229000e+03 4.027583e+08
1.230000e+03 3.815142e+08
1.231000e+03 2.791860e+08
1.232000e+03 5.669852e+08
1.233000e+03 6.052060e+08
1.234000e+03 4.327073e+08
1.235000e+03 6.388332e+08
1.236000e+03 3.483575e+08
1.237000e+03 6.996424e+08
1.238000e+03 6.579309e+08
1.239000e+03 6.580451e+08
1.240000e+03 6.337663e+08
1.241000e+03 7.052050e+08
1.242000e+03 6.595911e+08
1.243000e+03 8.974570e+08
1.244000e+03 5.890672e+08
1.245000e+03 7.074241e+08
1.246000e+03 9.892811e+08
1.247000e+03 9.998724e+08
1.248000e+03 5.876761e+08
1.249000e+03 7.586138e+08
1.250000e+03 1.066743e+09
1.251000e+03 1.269153e+09
1.252000e+03 1.168886e+09
1.253000e+03 1.298567e+09
1.254000e+03 1.194200e+09
1.255000e+03 1.352966e+09
1.256000e+03 1.218729e+09
1.257000e+03 1.333058e+09
1.258000e+03 1.003598e+09
1.259000e+03 1.267510e+09
1.260000e+03 1.383700e+09
1.261000e+03 3.011853e+07
1.262000e+03 4.355210e+08
1.263000e+03 1.472479e+09
1.264000e+03 1.157795e+09
1.265000e+03 3.177338e+07
1.266000e+03 1.508381e+09
1.267000e+03 1.283788e+09
