# wavelength_A flux
5.000000e+02 2.450153e-09
5.010000e+02 2.791549e-09
5.020000e+02 3.178896e-09
5.030000e+02 3.618053e-09
5.040000e+02 4.115689e-09
5.050000e+02 4.922474e-09
5.060000e+02 5.592131e-09
5.070000e+02 6.349585e-09
5.080000e+02 7.205911e-09
5.090000e+02 8.174272e-09
5.100000e+02 9.267184e-09
5.110000e+02 1.050065e-08
5.120000e+02 1.189254e-08
5.130000e+02 1.346218e-08
5.140000e+02 1.523137e-08
5.150000e+02 1.722428e-08
5.160000e+02 1.946890e-08
5.170000e+02 2.199284e-08
5.180000e+02 2.483660e-08
5.190000e+02 2.803181e-08
5.200000e+02 3.162282e-08
5.210000e+02 3.565662e-08
5.220000e+02 4.017712e-08
5.230000e+02 4.526900e-08
5.240000e+02 5.097097e-08
5.250000e+02 5.736593e-08
5.260000e+02 6.453044e-08
5.270000e+02 7.255777e-08
5.280000e+02 8.154615e-08
5.290000e+02 9.155730e-08
5.300000e+02 1.028603e-07
5.310000e+02 1.154436e-07
5.320000e+02 1.295105e-07
5.330000e+02 1.452254e-07
5.340000e+02 1.627747e-07
5.350000e+02 1.823637e-07
5.360000e+02 2.042155e-07
5.370000e+02 2.226888e-07
5.380000e+02 2.557567e-07
5.390000e+02 2.860535e-07
5.400000e+02 3.197848e-07
5.410000e+02 3.572794e-07
5.420000e+02 3.991171e-07
5.430000e+02 4.456232e-07
5.440000e+02 4.973263e-07
5.450000e+02 5.547959e-07
5.460000e+02 6.184348e-07
5.470000e+02 6.895678e-07
5.480000e+02 7.682985e-07
5.490000e+02 8.556704e-07
5.500000e+02 9.525904e-07
5.510000e+02 1.060060e-06
5.520000e+02 1.179178e-06
5.530000e+02 1.311160e-06
5.540000e+02 1.457299e-06
5.550000e+02 1.619119e-06
5.560000e+02 1.798206e-06
5.570000e+02 1.996322e-06
5.580000e+02 2.215404e-06
5.590000e+02 2.457577e-06
5.600000e+02 2.725142e-06
5.610000e+02 3.020717e-06
5.620000e+02 3.347078e-06
5.630000e+02 3.707293e-06
5.640000e+02 4.104729e-06
5.650000e+02 4.543070e-06
5.660000e+02 5.026348e-06
5.670000e+02 5.558977e-06
5.680000e+02 6.145629e-06
5.690000e+02 6.791870e-06
5.700000e+02 7.503323e-06
5.710000e+02 8.286311e-06
5.720000e+02 9.147696e-06
5.730000e+02 1.009500e-05
5.740000e+02 1.113643e-05
5.750000e+02 1.228134e-05
5.760000e+02 1.353687e-05
5.770000e+02 1.491958e-05
5.780000e+02 1.643552e-05
5.790000e+02 1.809920e-05
5.800000e+02 1.992439e-05
5.810000e+02 2.192549e-05
5.820000e+02 2.411984e-05
5.830000e+02 2.652423e-05
5.840000e+02 2.914147e-05
5.850000e+02 3.204130e-05
5.860000e+02 3.520552e-05
5.870000e+02 3.866417e-05
5.880000e+02 4.244860e-05
5.890000e+02 4.658750e-05
5.900000e+02 5.111377e-05
5.910000e+02 5.606150e-05
5.920000e+02 6.146789e-05
5.930000e+02 6.737202e-05
5.940000e+02 7.382148e-05
5.950000e+02 8.085486e-05
5.960000e+02 8.854688e-05
5.970000e+02 9.693076e-05
5.980000e+02 1.060749e-04
5.990000e+02 1.160454e-04
6.000000e+02 1.269134e-04
6.010000e+02 1.387561e-04
6.020000e+02 1.516572e-04
6.030000e+02 1.657067e-04
6.040000e+02 1.810024e-04
6.050000e+02 1.976444e-04
6.060000e+02 2.157558e-04
6.070000e+02 2.354589e-04
6.080000e+02 2.568829e-04
6.090000e+02 2.801725e-04
6.100000e+02 3.054829e-04
6.110000e+02 3.329774e-04
6.120000e+02 3.628444e-04
6.130000e+02 3.952746e-04
6.140000e+02 4.304772e-04
6.150000e+02 4.686805e-04
6.160000e+02 5.101121e-04
6.170000e+02 5.550637e-04
6.180000e+02 6.038040e-04
6.190000e+02 6.566377e-04
6.200000e+02 7.138930e-04
6.210000e+02 7.759223e-04
6.220000e+02 8.431054e-04
6.230000e+02 9.158488e-04
6.240000e+02 9.945950e-04
6.250000e+02 1.079814e-03
6.260000e+02 1.172013e-03
6.270000e+02 1.271717e-03
6.280000e+02 1.379551e-03
6.290000e+02 1.496121e-03
6.300000e+02 1.622109e-03
6.310000e+02 1.758214e-03
6.320000e+02 1.905273e-03
6.330000e+02 2.064062e-03
6.340000e+02 2.235465e-03
6.350000e+02 2.420490e-03
6.360000e+02 2.612609e-03
6.370000e+02 2.835552e-03
6.380000e+02 3.067855e-03
6.390000e+02 3.318337e-03
6.400000e+02 3.588352e-03
6.410000e+02 3.879346e-03
6.420000e+02 4.192874e-03
6.430000e+02 4.530597e-03
6.440000e+02 4.894290e-03
6.450000e+02 5.285842e-03
6.460000e+02 5.707319e-03
6.470000e+02 6.160844e-03
6.480000e+02 6.648790e-03
6.490000e+02 7.173583e-03
6.500000e+02 7.737936e-03
6.510000e+02 8.344656e-03
6.520000e+02 8.996767e-03
6.530000e+02 9.697498e-03
6.540000e+02 1.045030e-02
6.550000e+02 1.125868e-02
6.560000e+02 1.212689e-02
6.570000e+02 1.305868e-02
6.580000e+02 1.405934e-02
6.590000e+02 1.513281e-02
6.600000e+02 1.628444e-02
6.610000e+02 1.751964e-02
6.620000e+02 1.884416e-02
6.630000e+02 2.026414e-02
6.640000e+02 2.178616e-02
6.650000e+02 2.341711e-02
6.660000e+02 2.516448e-02
6.670000e+02 2.703609e-02
6.680000e+02 2.904038e-02
6.690000e+02 3.118625e-02
6.700000e+02 3.348320e-02
6.710000e+02 3.594140e-02
6.720000e+02 3.856891e-02
6.730000e+02 4.138497e-02
6.740000e+02 4.439389e-02
6.750000e+02 4.761053e-02
6.760000e+02 5.104990e-02
6.770000e+02 5.472563e-02
6.780000e+02 5.865369e-02
6.790000e+02 6.285022e-02
6.800000e+02 6.733264e-02
6.810000e+02 7.211940e-02
6.820000e+02 7.723016e-02
6.830000e+02 8.268572e-02
6.840000e+02 8.850808e-02
6.850000e+02 9.472065e-02
6.860000e+02 1.013483e-01
6.870000e+02 1.084153e-01
6.880000e+02 1.159553e-01
6.890000e+02 1.239912e-01
6.900000e+02 1.325588e-01
6.910000e+02 1.416888e-01
6.920000e+02 1.514155e-01
6.930000e+02 1.617787e-01
6.940000e+02 1.728141e-01
6.950000e+02 1.845677e-01
6.960000e+02 1.970826e-01
6.970000e+02 2.103940e-01
6.980000e+02 2.245815e-01
6.990000e+02 2.396673e-01
7.000000e+02 2.557165e-01
7.010000e+02 2.727874e-01
7.020000e+02 2.909416e-01
7.030000e+02 3.102442e-01
7.040000e+02 3.307639e-01
7.050000e+02 3.525735e-01
7.060000e+02 3.757494e-01
7.070000e+02 4.003731e-01
7.080000e+02 4.265300e-01
7.090000e+02 4.543103e-01
7.100000e+02 4.838097e-01
7.110000e+02 5.151285e-01
7.120000e+02 5.483642e-01
7.130000e+02 5.836457e-01
7.140000e+02 6.210833e-01
7.150000e+02 6.608014e-01
7.160000e+02 7.029312e-01
7.170000e+02 7.476079e-01
7.180000e+02 7.949646e-01
7.190000e+02 8.452142e-01
7.200000e+02 8.984533e-01
7.210000e+02 9.548755e-01
7.220000e+02 1.014661e+00
7.230000e+02 1.077998e+00
7.240000e+02 1.145087e+00
7.250000e+02 1.216139e+00
7.260000e+02 1.291373e+00
7.270000e+02 1.371023e+00
7.280000e+02 1.455331e+00
7.290000e+02 1.544533e+00
7.300000e+02 1.638927e+00
7.310000e+02 1.738822e+00
7.320000e+02 1.844485e+00
7.330000e+02 1.956237e+00
7.340000e+02 2.074407e+00
7.350000e+02 2.199347e+00
7.360000e+02 2.331416e+00
7.370000e+02 2.471016e+00
7.380000e+02 2.618532e+00
7.390000e+02 2.774395e+00
7.400000e+02 2.939050e+00
7.410000e+02 3.112969e+00
7.420000e+02 3.296638e+00
7.430000e+02 3.490577e+00
7.440000e+02 3.695325e+00
7.450000e+02 3.911452e+00
7.460000e+02 4.139481e+00
7.470000e+02 4.380178e+00
7.480000e+02 4.634133e+00
7.490000e+02 4.902032e+00
7.500000e+02 5.184599e+00
7.510000e+02 5.482588e+00
7.520000e+02 5.796796e+00
7.530000e+02 6.128053e+00
7.540000e+02 6.477230e+00
7.550000e+02 6.845240e+00
7.560000e+02 7.233048e+00
7.570000e+02 7.641626e+00
7.580000e+02 8.072091e+00
7.590000e+02 8.525446e+00
7.600000e+02 9.002971e+00
7.610000e+02 9.505777e+00
7.620000e+02 1.003496e+01
7.630000e+02 1.059220e+01
7.640000e+02 1.117859e+01
7.650000e+02 1.179581e+01
7.660000e+02 1.244527e+01
7.670000e+02 1.312854e+01
7.680000e+02 1.384718e+01
7.690000e+02 1.460326e+01
7.700000e+02 1.539825e+01
7.710000e+02 1.623414e+01
7.720000e+02 1.711294e+01
7.730000e+02 1.803671e+01
7.740000e+02 1.900760e+01
7.750000e+02 2.002789e+01
7.760000e+02 2.109949e+01
7.770000e+02 2.222621e+01
7.780000e+02 2.340887e+01
7.790000e+02 2.465143e+01
7.800000e+02 2.595630e+01
7.810000e+02 2.732644e+01
7.820000e+02 2.876488e+01
7.830000e+02 3.027484e+01
7.840000e+02 3.185967e+01
7.850000e+02 3.352283e+01
7.860000e+02 3.526798e+01
7.870000e+02 3.709913e+01
7.880000e+02 3.901982e+01
7.890000e+02 4.103438e+01
7.900000e+02 4.314694e+01
7.910000e+02 4.536253e+01
7.920000e+02 4.768533e+01
7.930000e+02 5.011938e+01
7.940000e+02 5.267167e+01
7.950000e+02 5.534665e+01
7.960000e+02 5.814980e+01
7.970000e+02 6.108621e+01
7.980000e+02 6.416312e+01
7.990000e+02 6.738644e+01
8.000000e+02 7.076238e+01
8.010000e+02 7.429784e+01
8.020000e+02 7.799989e+01
8.030000e+02 8.187581e+01
8.040000e+02 8.593346e+01
8.050000e+02 9.018058e+01
8.060000e+02 9.462565e+01
8.070000e+02 9.927626e+01
8.080000e+02 1.041434e+02
8.090000e+02 1.092354e+02
8.100000e+02 1.145620e+02
8.110000e+02 1.201334e+02
8.120000e+02 1.259597e+02
8.130000e+02 1.320530e+02
8.140000e+02 1.384237e+02
8.150000e+02 1.450835e+02
8.160000e+02 1.520459e+02
8.170000e+02 1.593223e+02
8.180000e+02 1.669271e+02
8.190000e+02 1.748738e+02
8.200000e+02 1.831766e+02
8.210000e+02 1.918505e+02
8.220000e+02 2.009111e+02
8.230000e+02 2.103745e+02
8.240000e+02 2.202577e+02
8.250000e+02 2.305778e+02
8.260000e+02 2.413527e+02
8.270000e+02 2.525988e+02
8.280000e+02 2.643411e+02
8.290000e+02 2.765971e+02
8.300000e+02 2.893877e+02
8.310000e+02 3.027347e+02
8.320000e+02 3.166609e+02
8.330000e+02 3.311896e+02
8.340000e+02 3.463453e+02
8.350000e+02 3.620572e+02
8.360000e+02 3.786320e+02
8.370000e+02 3.958312e+02
8.380000e+02 4.137578e+02
8.390000e+02 4.324472e+02
8.400000e+02 4.519301e+02
8.410000e+02 4.722376e+02
8.420000e+02 4.933685e+02
8.430000e+02 5.154592e+02
8.440000e+02 5.384431e+02
8.450000e+02 5.623901e+02
8.460000e+02 5.873376e+02
8.470000e+02 6.133252e+02
8.480000e+02 6.403917e+02
8.490000e+02 6.685826e+02
8.500000e+02 6.979379e+02
8.510000e+02 7.285037e+02
8.520000e+02 7.603257e+02
8.530000e+02 7.934542e+02
8.540000e+02 8.279464e+02
8.550000e+02 8.638266e+02
8.560000e+02 9.011779e+02
8.570000e+02 9.400453e+02
8.580000e+02 9.804856e+02
8.590000e+02 1.022556e+03
8.600000e+02 1.066324e+03
8.610000e+02 1.111850e+03
8.620000e+02 1.159200e+03
8.630000e+02 1.208440e+03
8.640000e+02 1.259646e+03
8.650000e+02 1.312884e+03
8.660000e+02 1.368235e+03
8.670000e+02 1.425773e+03
8.680000e+02 1.485581e+03
8.690000e+02 1.547741e+03
8.700000e+02 1.612327e+03
8.710000e+02 1.679468e+03
8.720000e+02 1.749216e+03
8.730000e+02 1.821678e+03
8.740000e+02 1.896955e+03
8.750000e+02 1.975147e+03
8.760000e+02 2.056359e+03
8.770000e+02 2.140697e+03
8.780000e+02 2.228285e+03
8.790000e+02 2.319226e+03
8.800000e+02 2.413643e+03
8.810000e+02 2.511629e+03
8.820000e+02 2.613375e+03
8.830000e+02 2.718982e+03
8.840000e+02 2.828586e+03
8.850000e+02 2.942325e+03
8.860000e+02 3.060350e+03
8.870000e+02 3.182807e+03
8.880000e+02 3.309851e+03
8.890000e+02 3.441642e+03
8.900000e+02 3.578345e+03
8.910000e+02 3.720130e+03
8.920000e+02 3.851127e+03
8.930000e+02 4.019655e+03
8.940000e+02 4.177763e+03
8.950000e+02 4.341688e+03
8.960000e+02 4.511634e+03
8.970000e+02 4.687801e+03
8.980000e+02 4.870402e+03
8.990000e+02 5.059657e+03
9.000000e+02 5.255789e+03
9.010000e+02 5.459031e+03
9.020000e+02 5.669621e+03
9.030000e+02 5.887806e+03
9.040000e+02 6.113668e+03
9.050000e+02 6.347991e+03
9.060000e+02 6.590523e+03
9.070000e+02 6.841530e+03
9.080000e+02 7.101758e+03
9.090000e+02 7.371138e+03
9.100000e+02 7.650064e+03
9.110000e+02 7.938924e+03
9.120000e+02 8.238339e+03
9.130000e+02 8.259645e+03
9.140000e+02 9.249641e+03
9.150000e+02 8.084678e+04
9.160000e+02 2.941475e+05
9.170000e+02 3.099952e+05
9.180000e+02 3.127580e+05
9.190000e+02 3.322100e+05
9.200000e+02 3.426491e+05
9.210000e+02 1.066311e+04
9.220000e+02 3.623937e+05
9.230000e+02 3.639958e+05
9.240000e+02 3.003669e+05
9.250000e+02 3.858146e+05
9.260000e+02 4.011049e+05
9.270000e+02 4.166962e+05
9.280000e+02 4.295298e+05
9.290000e+02 3.366797e+05
9.300000e+02 4.463764e+05
9.310000e+02 4.587783e+05
9.320000e+02 4.807449e+05
9.330000e+02 4.934987e+05
9.340000e+02 5.079817e+05
9.350000e+02 1.413908e+05
9.360000e+02 5.340409e+05
9.370000e+02 1.026357e+05
9.380000e+02 4.293692e+05
9.390000e+02 5.825321e+05
9.400000e+02 5.992667e+05
9.410000e+02 4.503717e+05
9.420000e+02 6.331758e+05
9.430000e+02 6.505088e+05
9.440000e+02 4.790792e+05
9.450000e+02 6.859599e+05
9.460000e+02 7.052226e+05
9.470000e+02 4.937417e+05
9.480000e+02 7.376702e+05
9.490000e+02 7.524592e+05
9.500000e+02 1.813146e+05
9.510000e+02 7.487355e+05
9.520000e+02 8.279359e+05
9.530000e+02 8.493669e+05
9.540000e+02 6.691115e+05
9.550000e+02 8.979757e+05
9.560000e+02 9.259816e+05
9.570000e+02 7.401326e+05
9.580000e+02 9.588354e+05
9.590000e+02 1.003056e+06
9.600000e+02 2.065192e+05
9.610000e+02 1.059432e+06
9.620000e+02 1.085042e+06
9.630000e+02 1.116026e+06
9.640000e+02 5.850944e+04
9.650000e+02 1.022528e+06
9.660000e+02 1.205988e+06
9.670000e+02 1.236668e+06
9.680000e+02 1.256148e+06
9.690000e+02 1.290038e+06
9.700000e+02 1.330286e+06
9.710000e+02 1.347802e+06
9.720000e+02 1.210235e+06
9.730000e+02 1.190344e+06
9.740000e+02 1.445224e+06
9.750000e+02 1.511132e+06
9.760000e+02 1.556110e+06
9.770000e+02 1.597448e+06
9.780000e+02 1.636785e+06
9.790000e+02 1.682691e+06
9.800000e+02 1.725828e+06
9.810000e+02 1.770663e+06
9.820000e+02 1.800486e+06
9.830000e+02 1.860411e+06
9.840000e+02 4.377010e+05
9.850000e+02 1.956687e+06
9.860000e+02 2.005840e+06
9.870000e+02 2.055399e+06
9.880000e+02 2.097652e+06
9.890000e+02 1.310300e+06
9.900000e+02 1.624275e+05
9.910000e+02 2.243160e+06
9.920000e+02 2.264598e+06
9.930000e+02 2.264158e+06
9.940000e+02 2.968112e+05
9.950000e+02 3.550052e+05
9.960000e+02 8.897515e+05
9.970000e+02 5.805309e+05
9.980000e+02 2.675034e+06
9.990000e+02 2.717965e+06
1.000000e+03 2.827461e+06
1.001000e+03 2.896504e+06
1.002000e+03 2.965713e+06
1.003000e+03 2.674009e+06
1.004000e+03 3.111221e+06
1.005000e+03 2.899205e+06
1.006000e+03 3.263972e+06
1.007000e+03 3.342397e+06
1.008000e+03 3.419954e+06
1.009000e+03 3.336567e+06
1.010000e+03 3.586524e+06
1.011000e+03 3.671211e+06
1.012000e+03 3.757148e+06
1.013000e+03 3.846042e+06
1.014000e+03 3.927651e+06
1.015000e+03 3.916400e+06
1.016000e+03 4.111011e+06
1.017000e+03 4.202226e+06
1.018000e+03 4.303730e+06
1.019000e+03 4.393365e+06
1.020000e+03 4.482982e+06
1.021000e+03 3.974460e+06
1.022000e+03 4.483300e+06
1.023000e+03 4.614448e+06
1.024000e+03 4.372060e+06
1.025000e+03 2.837703e+06
1.026000e+03 1.014458e+06
1.027000e+03 4.257765e+06
1.028000e+03 1.396896e+06
1.029000e+03 5.381811e+06
1.030000e+03 5.525783e+06
1.031000e+03 5.770990e+06
1.032000e+03 5.889983e+06
1.033000e+03 3.119814e+06
1.034000e+03 6.229047e+06
1.035000e+03 1.262479e+06
1.036000e+03 6.462525e+06
1.037000e+03 6.634020e+05
1.038000e+03 6.832301e+06
1.039000e+03 6.955082e+06
1.040000e+03 7.156248e+06
1.041000e+03 7.308499e+06
1.042000e+03 7.319434e+06
1.043000e+03 7.563906e+06
1.044000e+03 7.814850e+06
1.045000e+03 7.995642e+06
1.046000e+03 8.184920e+06
1.047000e+03 8.369632e+06
1.048000e+03 8.513831e+06
1.049000e+03 8.717295e+06
1.050000e+03 8.941618e+06
1.051000e+03 9.139366e+06
1.052000e+03 9.341810e+06
1.053000e+03 9.397137e+06
1.054000e+03 9.737239e+06
1.055000e+03 9.969991e+06
1.056000e+03 1.019023e+07
1.057000e+03 1.041083e+07
1.058000e+03 1.063846e+07
1.059000e+03 1.086857e+07
1.060000e+03 1.110298e+07
1.061000e+03 1.134752e+07
1.062000e+03 1.159204e+07
1.063000e+03 9.725559e+06
1.064000e+03 2.161894e+06
1.065000e+03 1.244849e+07
1.066000e+03 1.268527e+07
1.067000e+03 1.259808e+07
1.068000e+03 1.327679e+07
1.069000e+03 1.354184e+07
1.070000e+03 1.371893e+07
1.071000e+03 1.416111e+07
1.072000e+03 1.445933e+07
1.073000e+03 1.475003e+07
1.074000e+03 1.507678e+07
1.075000e+03 1.538775e+07
1.076000e+03 1.571902e+07
1.077000e+03 1.603082e+07
1.078000e+03 1.638519e+07
1.079000e+03 1.663692e+07
1.080000e+03 1.706409e+07
1.081000e+03 1.743187e+07
1.082000e+03 1.777654e+07
1.083000e+03 1.816291e+07
1.084000e+03 1.805603e+07
1.085000e+03 1.732303e+07
1.086000e+03 1.930996e+07
1.087000e+03 1.969861e+07
1.088000e+03 2.000980e+07
1.089000e+03 2.051745e+07
1.090000e+03 2.092845e+07
1.091000e+03 2.136356e+07
1.092000e+03 2.179307e+07
1.093000e+03 2.221080e+07
1.094000e+03 2.269198e+07
1.095000e+03 2.311760e+07
1.096000e+03 2.361291e+07
1.097000e+03 2.385425e+07
1.098000e+03 2.445941e+07
1.099000e+03 2.505223e+07
1.100000e+03 2.512367e+07
1.101000e+03 2.341563e+07
1.102000e+03 6.198030e+07
1.103000e+03 2.473929e+08
1.104000e+03 6.745926e+07
1.105000e+03 2.627386e+07
1.106000e+03 6.601751e+08
1.107000e+03 6.220533e+08
1.108000e+03 6.825656e+08
1.109000e+03 4.704964e+08
1.110000e+03 9.818734e+07
1.111000e+03 6.520947e+07
1.112000e+03 6.556104e+08
1.113000e+03 7.348354e+08
1.114000e+03 2.076205e+07
1.115000e+03 7.251719e+08
1.116000e+03 7.477681e+08
1.117000e+03 1.845171e+07
1.118000e+03 7.232979e+08
1.119000e+03 7.873887e+08
1.120000e+03 7.944687e+08
1.121000e+03 5.472252e+08
1.122000e+03 5.211392e+06
1.123000e+03 8.840373e+07
1.124000e+03 8.423130e+08
1.125000e+03 3.621734e+08
1.126000e+03 8.735686e+08
1.127000e+03 8.215439e+08
1.128000e+03 3.822663e+08
1.129000e+03 8.848009e+08
1.130000e+03 6.939367e+08
1.131000e+03 9.428831e+08
1.132000e+03 1.734810e+07
1.133000e+03 9.351545e+08
1.134000e+03 9.222444e+08
1.135000e+03 1.498272e+07
1.136000e+03 9.949861e+08
1.137000e+03 1.020887e+09
1.138000e+03 1.042714e+09
1.139000e+03 1.018014e+09
1.140000e+03 1.105779e+07
1.141000e+03 1.089549e+09
1.142000e+03 1.048665e+09
1.143000e+03 1.115066e+09
1.144000e+03 1.133548e+09
1.145000e+03 7.876833e+08
1.146000e+03 1.166683e+09
1.147000e+03 1.143423e+09
1.148000e+03 1.159645e+09
1.149000e+03 1.210513e+09
1.150000e+03 1.151533e+09
1.151000e+03 1.226888e+09
1.152000e+03 1.251366e+09
1.153000e+03 3.465490e+08
1.154000e+03 2.826918e+07
1.155000e+03 1.168549e+09
1.156000e+03 5.007845e+08
1.157000e+03 1.340885e+09
1.158000e+03 2.531194e+07
1.159000e+03 1.128260e+09
1.160000e+03 1.404465e+09
1.161000e+03 1.431006e+09
1.162000e+03 1.316703e+08
1.163000e+03 1.431150e+09
1.164000e+03 3.935526e+07
1.165000e+03 1.504960e+09
1.166000e+03 1.498932e+09
1.167000e+03 1.412472e+09
1.168000e+03 1.567221e+09
1.169000e+03 1.507056e+09
1.170000e+03 1.608738e+09
1.171000e+03 1.629275e+09
1.172000e+03 1.563441e+09
1.173000e+03 1.667195e+09
1.174000e+03 1.648441e+09
1.175000e+03 3.813581e+07
1.176000e+03 2.696640e+07
1.177000e+03 1.727473e+09
1.178000e+03 1.640693e+09
1.179000e+03 1.775990e+09
1.180000e+03 1.378665e+09
1.181000e+03 1.754676e+09
1.182000e+03 1.821071e+09
1.183000e+03 1.831713e+09
1.184000e+03 1.843506e+09
1.185000e+03 1.807195e+09
1.186000e+03 1.855823e+09
1.187000e+03 1.862893e+09
1.188000e+03 1.819951e+09
1.189000e+03 2.935552e+07
1.190000e+03 4.313962e+08
1.191000e+03 1.790916e+09
1.192000e+03 1.787531e+09
1.193000e+03 2.385574e+07
1.194000e+03 3.353728e+07
1.195000e+03 8.536092e+08
1.196000e+03 1.716469e+09
1.197000e+03 1.878399e+09
1.198000e+03 1.889311e+09
1.199000e+03 1.796709e+09
1.200000e+03 1.527758e+09
1.201000e+03 1.606134e+09
1.202000e+03 1.566392e+09
1.203000e+03 1.558892e+09
1.204000e+03 1.393654e+09
1.205000e+03 1.257652e+09
1.206000e+03 1.031959e+09
1.207000e+03 4.873746e+08
1.208000e+03 7.781739e+08
1.209000e+03 5.899617e+08
1.210000e+03 5.811875e+07
1.211000e+03 3.254005e+08
1.212000e+03 2.108925e+08
1.213000e+03 1.257343e+08
1.214000e+03 7.133608e+07
1.215000e+03 4.299689e+07
1.216000e+03 3.761050e+07
1.217000e+03 6.225883e+07
1.218000e+03 1.130875e+08
1.219000e+03 2.011359e+08
1.220000e+03 3.297703e+08
1.221000e+03 4.962756e+08
1.222000e+03 6.950534e+08
1.223000e+03 9.202060e+08
1.224000e+03 1.166259e+09
1.225000e+03 1.427830e+09
1.226000e+03 1.695500e+09
1.227000e+03 1.963265e+09
1.228000e+03 2.275238e+09
1.229000e+03 2.565854e+09
1.230000e+03 2.854550e+09
1.231000e+03 3.152086e+09
1.232000e+03 3.446643e+09
1.233000e+03 3.734939e+09
1.234000e+03 2.212892e+09
1.235000e+03 4.295166e+09
1.236000e+03 4.566892e+09
1.237000e+03 4.835707e+09
1.238000e+03 5.103077e+09
1.239000e+03 5.361655e+09
1.240000e+03 5.086559e+09
1.241000e+03 8.762628e+09
1.242000e+03 4.865219e+09
1.243000e+03 7.751863e+09
1.244000e+03 3.199932e+09
1.245000e+03 4.698595e+09
1.246000e+03 1.486933e+10
1.247000e+03 1.609797e+10
1.248000e+03 3.364468e+09
1.249000e+03 4.586618e+09
1.250000e+03 1.921824e+10
1.251000e+03 2.013713e+10
1.252000e+03 2.081618e+10
1.253000e+03 2.260667e+10
1.254000e+03 2.319992e+10
1.255000e+03 2.460433e+10
1.256000e+03 2.543331e+10
1.257000e+03 2.700890e+10
1.258000e+03 2.735337e+10
1.259000e+03 2.552178e+10
1.260000e+03 1.845645e+10
1.261000e+03 9.490125e+07
1.262000e+03 2.044244e+09
1.263000e+03 3.126326e+10
1.264000e+03 2.528859e+10
1.265000e+03 8.450893e+07
1.266000e+03 3.327749e+10
1.267000e+03 3.775278e+10
