# wavelength_A flux
5.000000e+02 4.490243e-10
5.010000e+02 5.135805e-10
5.020000e+02 5.870923e-10
5.030000e+02 6.707567e-10
5.040000e+02 7.659244e-10
5.050000e+02 8.848794e-10
5.060000e+02 1.009204e-09
5.070000e+02 1.150380e-09
5.080000e+02 1.310605e-09
5.090000e+02 1.492358e-09
5.100000e+02 1.698418e-09
5.110000e+02 1.931918e-09
5.120000e+02 2.196375e-09
5.130000e+02 2.495742e-09
5.140000e+02 2.834454e-09
5.150000e+02 3.217471e-09
5.160000e+02 3.650426e-09
5.170000e+02 4.139432e-09
5.180000e+02 4.691798e-09
5.190000e+02 5.315095e-09
5.200000e+02 6.018204e-09
5.210000e+02 6.810952e-09
5.220000e+02 7.703894e-09
5.230000e+02 8.710663e-09
5.240000e+02 9.843648e-09
5.250000e+02 1.111871e-08
5.260000e+02 1.255283e-08
5.270000e+02 1.416518e-08
5.280000e+02 1.597704e-08
5.290000e+02 1.800994e-08
5.300000e+02 2.029699e-08
5.310000e+02 2.286098e-08
5.320000e+02 2.573696e-08
5.330000e+02 2.896136e-08
5.340000e+02 3.257478e-08
5.350000e+02 3.662232e-08
5.360000e+02 4.115401e-08
5.370000e+02 4.595863e-08
5.380000e+02 5.189893e-08
5.390000e+02 5.824355e-08
5.400000e+02 6.533412e-08
5.410000e+02 7.325216e-08
5.420000e+02 8.210097e-08
5.430000e+02 9.197537e-08
5.440000e+02 1.029922e-07
5.450000e+02 1.152789e-07
5.460000e+02 1.289645e-07
5.470000e+02 1.442394e-07
5.480000e+02 1.612404e-07
5.490000e+02 1.801696e-07
5.500000e+02 2.012366e-07
5.510000e+02 2.246732e-07
5.520000e+02 2.507354e-07
5.530000e+02 2.797055e-07
5.540000e+02 3.118948e-07
5.550000e+02 3.476469e-07
5.560000e+02 3.873401e-07
5.570000e+02 4.313912e-07
5.580000e+02 4.802595e-07
5.590000e+02 5.344504e-07
5.600000e+02 5.945200e-07
5.610000e+02 6.610803e-07
5.620000e+02 7.348038e-07
5.630000e+02 8.164302e-07
5.640000e+02 9.067720e-07
5.650000e+02 1.006721e-06
5.660000e+02 1.117259e-06
5.670000e+02 1.239459e-06
5.680000e+02 1.374503e-06
5.690000e+02 1.523684e-06
5.700000e+02 1.688421e-06
5.710000e+02 1.870270e-06
5.720000e+02 2.070934e-06
5.730000e+02 2.292278e-06
5.740000e+02 2.536346e-06
5.750000e+02 2.805393e-06
5.760000e+02 3.101716e-06
5.770000e+02 3.428343e-06
5.780000e+02 3.787864e-06
5.790000e+02 4.183585e-06
5.800000e+02 4.618999e-06
5.810000e+02 5.097920e-06
5.820000e+02 5.624507e-06
5.830000e+02 6.203283e-06
5.840000e+02 6.838457e-06
5.850000e+02 7.537653e-06
5.860000e+02 8.304900e-06
5.870000e+02 9.146882e-06
5.880000e+02 1.007076e-05
5.890000e+02 1.108413e-05
5.900000e+02 1.219543e-05
5.910000e+02 1.341359e-05
5.920000e+02 1.474847e-05
5.930000e+02 1.621078e-05
5.940000e+02 1.781218e-05
5.950000e+02 1.956529e-05
5.960000e+02 2.148394e-05
5.970000e+02 2.358300e-05
5.980000e+02 2.587874e-05
5.990000e+02 2.838878e-05
6.000000e+02 3.113225e-05
6.010000e+02 3.412982e-05
6.020000e+02 3.740431e-05
6.030000e+02 4.097985e-05
6.040000e+02 4.488302e-05
6.050000e+02 4.914255e-05
6.060000e+02 5.378947e-05
6.070000e+02 5.885761e-05
6.080000e+02 6.438333e-05
6.090000e+02 7.040615e-05
6.100000e+02 7.696883e-05
6.110000e+02 8.411762e-05
6.120000e+02 9.190253e-05
6.130000e+02 1.003776e-04
6.140000e+02 1.096014e-04
6.150000e+02 1.196371e-04
6.160000e+02 1.305529e-04
6.170000e+02 1.424225e-04
6.180000e+02 1.553256e-04
6.190000e+02 1.693481e-04
6.200000e+02 1.845828e-04
6.210000e+02 2.011297e-04
6.220000e+02 2.190967e-04
6.230000e+02 2.386003e-04
6.240000e+02 2.597658e-04
6.250000e+02 2.827284e-04
6.260000e+02 3.076339e-04
6.270000e+02 3.346391e-04
6.280000e+02 3.639129e-04
6.290000e+02 3.956373e-04
6.300000e+02 4.300079e-04
6.310000e+02 4.671801e-04
6.320000e+02 5.075465e-04
6.330000e+02 5.511834e-04
6.340000e+02 5.984118e-04
6.350000e+02 6.495078e-04
6.360000e+02 7.047608e-04
6.370000e+02 7.645498e-04
6.380000e+02 8.291664e-04
6.390000e+02 8.990052e-04
6.400000e+02 9.744687e-04
6.410000e+02 1.055989e-03
6.420000e+02 1.144028e-03
6.430000e+02 1.239085e-03
6.440000e+02 1.341692e-03
6.450000e+02 1.452420e-03
6.460000e+02 1.571883e-03
6.470000e+02 1.700736e-03
6.480000e+02 1.839684e-03
6.490000e+02 1.989478e-03
6.500000e+02 2.150927e-03
6.510000e+02 2.324894e-03
6.520000e+02 2.512304e-03
6.530000e+02 2.714145e-03
6.540000e+02 2.931477e-03
6.550000e+02 3.165431e-03
6.560000e+02 3.417217e-03
6.570000e+02 3.688115e-03
6.580000e+02 3.979556e-03
6.590000e+02 4.292969e-03
6.600000e+02 4.629949e-03
6.610000e+02 4.992186e-03
6.620000e+02 5.381478e-03
6.630000e+02 5.799749e-03
6.640000e+02 6.249053e-03
6.650000e+02 6.731579e-03
6.660000e+02 7.249667e-03
6.670000e+02 7.805808e-03
6.680000e+02 8.402660e-03
6.690000e+02 9.043061e-03
6.700000e+02 9.730028e-03
6.710000e+02 1.046679e-02
6.720000e+02 1.125677e-02
6.730000e+02 1.210362e-02
6.740000e+02 1.301125e-02
6.750000e+02 1.398379e-02
6.760000e+02 1.502566e-02
6.770000e+02 1.614156e-02
6.780000e+02 1.733648e-02
6.790000e+02 1.861576e-02
6.800000e+02 1.998503e-02
6.810000e+02 2.145032e-02
6.820000e+02 2.301804e-02
6.830000e+02 2.469497e-02
6.840000e+02 2.648835e-02
6.850000e+02 2.840585e-02
6.860000e+02 3.045565e-02
6.870000e+02 3.264640e-02
6.880000e+02 3.498732e-02
6.890000e+02 3.748817e-02
6.900000e+02 4.015932e-02
6.910000e+02 4.301181e-02
6.920000e+02 4.605730e-02
6.930000e+02 4.930818e-02
6.940000e+02 5.277763e-02
6.950000e+02 5.647957e-02
6.960000e+02 6.042879e-02
6.970000e+02 6.464072e-02
6.980000e+02 6.913272e-02
6.990000e+02 7.392164e-02
7.000000e+02 7.902639e-02
7.010000e+02 8.446671e-02
7.020000e+02 9.026355e-02
7.030000e+02 9.643906e-02
7.040000e+02 1.030167e-01
7.050000e+02 1.100213e-01
7.060000e+02 1.174791e-01
7.070000e+02 1.254179e-01
7.080000e+02 1.338672e-01
7.090000e+02 1.428580e-01
7.100000e+02 1.524234e-01
7.110000e+02 1.625980e-01
7.120000e+02 1.734185e-01
7.130000e+02 1.849240e-01
7.140000e+02 1.971555e-01
7.150000e+02 2.101563e-01
7.160000e+02 2.239723e-01
7.170000e+02 2.386518e-01
7.180000e+02 2.542457e-01
7.190000e+02 2.708095e-01
7.200000e+02 2.883984e-01
7.210000e+02 3.070733e-01
7.220000e+02 3.268974e-01
7.230000e+02 3.479380e-01
7.240000e+02 3.702656e-01
7.250000e+02 3.939546e-01
7.260000e+02 4.190838e-01
7.270000e+02 4.457359e-01
7.280000e+02 4.739983e-01
7.290000e+02 5.039632e-01
7.300000e+02 5.357273e-01
7.310000e+02 5.693932e-01
7.320000e+02 6.050683e-01
7.330000e+02 6.428661e-01
7.340000e+02 6.829062e-01
7.350000e+02 7.253143e-01
7.360000e+02 7.702227e-01
7.370000e+02 8.177713e-01
7.380000e+02 8.681062e-01
7.390000e+02 9.213822e-01
7.400000e+02 9.777613e-01
7.410000e+02 1.037415e+00
7.420000e+02 1.100523e+00
7.430000e+02 1.167273e+00
7.440000e+02 1.237866e+00
7.450000e+02 1.312509e+00
7.460000e+02 1.391422e+00
7.470000e+02 1.474836e+00
7.480000e+02 1.562994e+00
7.490000e+02 1.656151e+00
7.500000e+02 1.754573e+00
7.510000e+02 1.858543e+00
7.520000e+02 1.968354e+00
7.530000e+02 2.084319e+00
7.540000e+02 2.206761e+00
7.550000e+02 2.336022e+00
7.560000e+02 2.472461e+00
7.570000e+02 2.616453e+00
7.580000e+02 2.768397e+00
7.590000e+02 2.928701e+00
7.600000e+02 3.097805e+00
7.610000e+02 3.276161e+00
7.620000e+02 3.464247e+00
7.630000e+02 3.662564e+00
7.640000e+02 3.871637e+00
7.650000e+02 4.092016e+00
7.660000e+02 4.324279e+00
7.670000e+02 4.569028e+00
7.680000e+02 4.826896e+00
7.690000e+02 5.098552e+00
7.700000e+02 5.384683e+00
7.710000e+02 5.686019e+00
7.720000e+02 6.003323e+00
7.730000e+02 6.337390e+00
7.740000e+02 6.689057e+00
7.750000e+02 7.059196e+00
7.760000e+02 7.448694e+00
7.770000e+02 7.858590e+00
7.780000e+02 8.289804e+00
7.790000e+02 8.743407e+00
7.800000e+02 9.220498e+00
7.810000e+02 9.722220e+00
7.820000e+02 1.024977e+01
7.830000e+02 1.080440e+01
7.840000e+02 1.138742e+01
7.850000e+02 1.200020e+01
7.860000e+02 1.264417e+01
7.870000e+02 1.332082e+01
7.880000e+02 1.403171e+01
7.890000e+02 1.477848e+01
7.900000e+02 1.556282e+01
7.910000e+02 1.638652e+01
7.920000e+02 1.725143e+01
7.930000e+02 1.815949e+01
7.940000e+02 1.911273e+01
7.950000e+02 2.011327e+01
7.960000e+02 2.116330e+01
7.970000e+02 2.226514e+01
7.980000e+02 2.342118e+01
7.990000e+02 2.463393e+01
8.000000e+02 2.590601e+01
8.010000e+02 2.724014e+01
8.020000e+02 2.863917e+01
8.030000e+02 3.010607e+01
8.040000e+02 3.164393e+01
8.050000e+02 3.325598e+01
8.060000e+02 3.494557e+01
8.070000e+02 3.671622e+01
8.080000e+02 3.857158e+01
8.090000e+02 4.051544e+01
8.100000e+02 4.255178e+01
8.110000e+02 4.468473e+01
8.120000e+02 4.691860e+01
8.130000e+02 4.925785e+01
8.140000e+02 5.170718e+01
8.150000e+02 5.427142e+01
8.160000e+02 5.695565e+01
8.170000e+02 5.976514e+01
8.180000e+02 6.270536e+01
8.190000e+02 6.578204e+01
8.200000e+02 6.900109e+01
8.210000e+02 7.236873e+01
8.220000e+02 7.589137e+01
8.230000e+02 7.957570e+01
8.240000e+02 8.342869e+01
8.250000e+02 8.745758e+01
8.260000e+02 9.166989e+01
8.270000e+02 9.607346e+01
8.280000e+02 1.006764e+02
8.290000e+02 1.054873e+02
8.300000e+02 1.105148e+02
8.310000e+02 1.157681e+02
8.320000e+02 1.212567e+02
8.330000e+02 1.269905e+02
8.340000e+02 1.329797e+02
8.350000e+02 1.392344e+02
8.360000e+02 1.457676e+02
8.370000e+02 1.525889e+02
8.380000e+02 1.597108e+02
8.390000e+02 1.671457e+02
8.400000e+02 1.749066e+02
8.410000e+02 1.830068e+02
8.420000e+02 1.914600e+02
8.430000e+02 2.002812e+02
8.440000e+02 2.094848e+02
8.450000e+02 2.190865e+02
8.460000e+02 2.291025e+02
8.470000e+02 2.395494e+02
8.480000e+02 2.504446e+02
8.490000e+02 2.618062e+02
8.500000e+02 2.736526e+02
8.510000e+02 2.860035e+02
8.520000e+02 2.988787e+02
8.530000e+02 3.122993e+02
8.540000e+02 3.262866e+02
8.550000e+02 3.408632e+02
8.560000e+02 3.560522e+02
8.570000e+02 3.718776e+02
8.580000e+02 3.883645e+02
8.590000e+02 4.055386e+02
8.600000e+02 4.234267e+02
8.610000e+02 4.420566e+02
8.620000e+02 4.614569e+02
8.630000e+02 4.816576e+02
8.640000e+02 5.026893e+02
8.650000e+02 5.245840e+02
8.660000e+02 5.473749e+02
8.670000e+02 5.710961e+02
8.680000e+02 5.957832e+02
8.690000e+02 6.214728e+02
8.700000e+02 6.482029e+02
8.710000e+02 6.760130e+02
8.720000e+02 7.049436e+02
8.730000e+02 7.350370e+02
8.740000e+02 7.663368e+02
8.750000e+02 7.988881e+02
8.760000e+02 8.327375e+02
8.770000e+02 8.679335e+02
8.780000e+02 9.045258e+02
8.790000e+02 9.425663e+02
8.800000e+02 9.821084e+02
8.810000e+02 1.023207e+03
8.820000e+02 1.065920e+03
8.830000e+02 1.110306e+03
8.840000e+02 1.156426e+03
8.850000e+02 1.204344e+03
8.860000e+02 1.254124e+03
8.870000e+02 1.305834e+03
8.880000e+02 1.359544e+03
8.890000e+02 1.415326e+03
8.900000e+02 1.473254e+03
8.910000e+02 1.533406e+03
8.920000e+02 1.595860e+03
8.930000e+02 1.660699e+03
8.940000e+02 1.728008e+03
8.950000e+02 1.797874e+03
8.960000e+02 1.870387e+03
8.970000e+02 1.945642e+03
8.980000e+02 2.023735e+03
8.990000e+02 2.104764e+03
9.000000e+02 2.188834e+03
9.010000e+02 2.276050e+03
9.020000e+02 2.366521e+03
9.030000e+02 2.460362e+03
9.040000e+02 2.557687e+03
9.050000e+02 2.658619e+03
9.060000e+02 2.763280e+03
9.070000e+02 2.871800e+03
9.080000e+02 2.984311e+03
9.090000e+02 3.100948e+03
9.100000e+02 3.221853e+03
9.110000e+02 3.347171e+03
9.120000e+02 3.477052e+03
9.130000e+02 3.613472e+03
9.140000e+02 3.758431e+03
9.150000e+02 1.283781e+04
9.160000e+02 2.600660e+04
9.170000e+02 2.630212e+04
9.180000e+02 2.331733e+04
9.190000e+02 4.020944e+04
9.200000e+02 4.619223e+04
9.210000e+02 4.882345e+03
9.220000e+02 4.998374e+04
9.230000e+02 2.935832e+04
9.240000e+02 4.458616e+04
9.250000e+02 5.239028e+04
9.260000e+02 4.244285e+04
9.270000e+02 4.906170e+04
9.280000e+02 6.230482e+04
9.290000e+02 5.738055e+04
9.300000e+02 6.417404e+04
9.310000e+02 4.557347e+04
9.320000e+02 7.030044e+04
9.330000e+02 7.070675e+04
9.340000e+02 7.088027e+04
9.350000e+02 1.455157e+04
9.360000e+02 6.183545e+04
9.370000e+02 1.262715e+04
9.380000e+02 4.105035e+04
9.390000e+02 7.082201e+04
9.400000e+02 8.981755e+04
9.410000e+02 3.716442e+04
9.420000e+02 9.558634e+04
9.430000e+02 8.394634e+04
9.440000e+02 8.007986e+04
9.450000e+02 1.046154e+05
9.460000e+02 1.057692e+05
9.470000e+02 7.282114e+04
9.480000e+02 1.060195e+05
9.490000e+02 1.133296e+05
9.500000e+02 2.271677e+04
9.510000e+02 1.164621e+05
9.520000e+02 1.254296e+05
9.530000e+02 8.286756e+04
9.540000e+02 8.267269e+04
9.550000e+02 1.296189e+05
9.560000e+02 1.381676e+05
9.570000e+02 7.747780e+04
9.580000e+02 7.037402e+04
9.590000e+02 1.584296e+05
9.600000e+02 2.765638e+04
9.610000e+02 1.625668e+05
9.620000e+02 1.592707e+05
9.630000e+02 1.653286e+05
9.640000e+02 2.302684e+04
9.650000e+02 1.218474e+05
9.660000e+02 1.763617e+05
9.670000e+02 1.561603e+05
9.680000e+02 1.333279e+05
9.690000e+02 1.977502e+05
9.700000e+02 2.004710e+05
9.710000e+02 1.653627e+05
9.720000e+02 1.778932e+05
9.730000e+02 1.987198e+05
9.740000e+02 2.276822e+05
9.750000e+02 2.256865e+05
9.760000e+02 2.546065e+05
9.770000e+02 2.593879e+05
9.780000e+02 2.539304e+05
9.790000e+02 2.803469e+05
9.800000e+02 2.882534e+05
9.810000e+02 2.821913e+05
9.820000e+02 2.536624e+05
9.830000e+02 3.121421e+05
9.840000e+02 1.352874e+05
9.850000e+02 3.051743e+05
9.860000e+02 3.102719e+05
9.870000e+02 3.483305e+05
9.880000e+02 2.246463e+05
9.890000e+02 2.908443e+05
9.900000e+02 6.240412e+04
9.910000e+02 2.760262e+05
9.920000e+02 1.751275e+05
9.930000e+02 3.964866e+05
9.940000e+02 6.656934e+04
9.950000e+02 1.303694e+05
9.960000e+02 3.008018e+05
9.970000e+02 1.156125e+05
9.980000e+02 4.593554e+05
9.990000e+02 3.795525e+05
1.000000e+03 4.951748e+05
1.001000e+03 5.105612e+05
1.002000e+03 5.224590e+05
1.003000e+03 4.389593e+05
1.004000e+03 3.696470e+05
1.005000e+03 4.752294e+05
1.006000e+03 5.796546e+05
1.007000e+03 5.969549e+05
1.008000e+03 6.065135e+05
1.009000e+03 5.428817e+05
1.010000e+03 6.390153e+05
1.011000e+03 6.605544e+05
1.012000e+03 6.716452e+05
1.013000e+03 6.861648e+05
1.014000e+03 3.051479e+05
1.015000e+03 4.324248e+05
1.016000e+03 6.241392e+05
1.017000e+03 3.398858e+05
1.018000e+03 6.779198e+05
1.019000e+03 4.903171e+05
1.020000e+03 8.303484e+05
1.021000e+03 4.549624e+05
1.022000e+03 6.678422e+05
1.023000e+03 5.318389e+05
1.024000e+03 8.583098e+05
1.025000e+03 3.641792e+05
1.026000e+03 3.434319e+05
1.027000e+03 8.481214e+05
1.028000e+03 2.289132e+05
1.029000e+03 4.777968e+05
1.030000e+03 1.012857e+06
1.031000e+03 9.664044e+05
1.032000e+03 1.109846e+06
1.033000e+03 3.997732e+05
1.034000e+03 1.128635e+06
1.035000e+03 2.479465e+05
1.036000e+03 5.924443e+05
1.037000e+03 1.167936e+06
1.038000e+03 1.312600e+06
1.039000e+03 1.324958e+06
1.040000e+03 1.365339e+06
1.041000e+03 1.410850e+06
1.042000e+03 1.438541e+06
1.043000e+03 1.416549e+06
1.044000e+03 1.526146e+06
1.045000e+03 1.546326e+06
1.046000e+03 1.596660e+06
1.047000e+03 1.535657e+06
1.048000e+03 1.157823e+06
1.049000e+03 1.657754e+06
1.050000e+03 1.664098e+06
1.051000e+03 1.617696e+06
1.052000e+03 1.838894e+06
1.053000e+03 1.886535e+06
1.054000e+03 8.864212e+05
1.055000e+03 1.991631e+06
1.056000e+03 2.041169e+06
1.057000e+03 2.009508e+06
1.058000e+03 2.002249e+06
1.059000e+03 1.679975e+06
1.060000e+03 1.582878e+06
1.061000e+03 2.221501e+06
1.062000e+03 2.081999e+06
1.063000e+03 1.138366e+06
1.064000e+03 5.231250e+05
1.065000e+03 1.253594e+06
1.066000e+03 2.387094e+06
1.067000e+03 1.919203e+06
1.068000e+03 2.720484e+06
1.069000e+03 1.598891e+06
1.070000e+03 2.754472e+06
1.071000e+03 2.914883e+06
1.072000e+03 2.978224e+06
1.073000e+03 1.660664e+06
1.074000e+03 2.914059e+06
1.075000e+03 2.894173e+06
1.076000e+03 3.267942e+06
1.077000e+03 2.627236e+06
1.078000e+03 3.086068e+06
1.079000e+03 3.330208e+06
1.080000e+03 3.460134e+06
1.081000e+03 3.594271e+06
1.082000e+03 3.669870e+06
1.083000e+03 3.707008e+06
1.084000e+03 3.928458e+06
1.085000e+03 3.322930e+06
1.086000e+03 4.106330e+06
1.087000e+03 3.235774e+06
1.088000e+03 4.287690e+06
1.089000e+03 4.394074e+06
1.090000e+03 3.991876e+06
1.091000e+03 4.037361e+06
1.092000e+03 4.689096e+06
1.093000e+03 4.790208e+06
1.094000e+03 4.824776e+06
1.095000e+03 5.012362e+06
1.096000e+03 5.005986e+06
1.097000e+03 5.135822e+06
1.098000e+03 5.339706e+06
1.099000e+03 5.262700e+06
1.100000e+03 3.895437e+06
1.101000e+03 4.282921e+06
1.102000e+03 8.311468e+06
1.103000e+03 3.495024e+07
1.104000e+03 1.321936e+07
1.105000e+03 5.840468e+06
1.106000e+03 3.585586e+07
1.107000e+03 5.521176e+06
1.108000e+03 5.351559e+07
1.109000e+03 1.277572e+07
1.110000e+03 2.395177e+07
1.111000e+03 1.281320e+07
1.112000e+03 4.744181e+07
1.113000e+03 7.172661e+07
1.114000e+03 4.985786e+06
1.115000e+03 2.228439e+07
1.116000e+03 1.821892e+07
1.117000e+03 4.880720e+06
1.118000e+03 1.688689e+07
1.119000e+03 5.941645e+07
1.120000e+03 1.982849e+07
1.121000e+03 6.764553e+07
1.122000e+03 2.108792e+06
1.123000e+03 1.556920e+07
1.124000e+03 7.781419e+07
1.125000e+03 5.201025e+07
1.126000e+03 9.103606e+07
1.127000e+03 8.443185e+07
1.128000e+03 3.441366e+07
1.129000e+03 6.640407e+07
1.130000e+03 8.376242e+07
1.131000e+03 9.472264e+07
1.132000e+03 6.623664e+06
1.133000e+03 2.593801e+07
1.134000e+03 6.881115e+07
1.135000e+03 5.068268e+06
1.136000e+03 4.648934e+07
1.137000e+03 1.001363e+08
1.138000e+03 7.077720e+07
1.139000e+03 1.046474e+08
1.140000e+03 3.889560e+06
1.141000e+03 1.045199e+08
1.142000e+03 1.141823e+08
1.143000e+03 1.016290e+08
1.144000e+03 1.187230e+08
1.145000e+03 1.800590e+07
1.146000e+03 1.241375e+08
1.147000e+03 1.186778e+08
1.148000e+03 3.567923e+07
1.149000e+03 1.196065e+08
1.150000e+03 9.720234e+07
1.151000e+03 1.327707e+08
1.152000e+03 1.289566e+08
1.153000e+03 6.482290e+07
1.154000e+03 9.481099e+07
1.155000e+03 1.179450e+08
1.156000e+03 7.296419e+07
1.157000e+03 1.449930e+08
1.158000e+03 7.278064e+06
1.159000e+03 1.297047e+08
1.160000e+03 9.971282e+07
1.161000e+03 1.498275e+08
1.162000e+03 3.698086e+07
1.163000e+03 8.641365e+07
1.164000e+03 7.225424e+06
1.165000e+03 1.588942e+08
1.166000e+03 1.466938e+08
1.167000e+03 1.410570e+08
1.168000e+03 1.730088e+08
1.169000e+03 1.729216e+08
1.170000e+03 1.604211e+08
1.171000e+03 1.672618e+08
1.172000e+03 1.184450e+08
1.173000e+03 1.860542e+08
1.174000e+03 4.866778e+07
1.175000e+03 8.580848e+06
1.176000e+03 7.868048e+06
1.177000e+03 2.016938e+08
1.178000e+03 2.014710e+08
1.179000e+03 2.022466e+08
1.180000e+03 1.378682e+08
1.181000e+03 2.139749e+08
1.182000e+03 2.074450e+08
1.183000e+03 1.924479e+08
1.184000e+03 1.854040e+08
1.185000e+03 2.093410e+08
1.186000e+03 1.121882e+08
1.187000e+03 2.133840e+08
1.188000e+03 1.575449e+08
1.189000e+03 1.103694e+07
1.190000e+03 7.614638e+07
1.191000e+03 2.125091e+08
1.192000e+03 2.357550e+08
1.193000e+03 1.045557e+07
1.194000e+03 1.257530e+07
1.195000e+03 1.936238e+08
1.196000e+03 2.358832e+08
1.197000e+03 3.531019e+08
1.198000e+03 1.933469e+08
1.199000e+03 3.482228e+08
1.200000e+03 2.025062e+08
1.201000e+03 3.304638e+08
1.202000e+03 2.527314e+08
1.203000e+03 3.785220e+08
1.204000e+03 1.792256e+08
1.205000e+03 3.197333e+08
1.206000e+03 3.146232e+08
1.207000e+03 5.714976e+07
1.208000e+03 2.411880e+08
1.209000e+03 1.947320e+08
1.210000e+03 1.661016e+07
1.211000e+03 1.163877e+08
1.212000e+03 7.837890e+07
1.213000e+03 5.165852e+07
1.214000e+03 3.137940e+07
1.215000e+03 1.969997e+07
1.216000e+03 1.770148e+07
1.217000e+03 2.790389e+07
1.218000e+03 4.780532e+07
1.219000e+03 7.920158e+07
1.220000e+03 1.059640e+08
1.221000e+03 1.737729e+08
1.222000e+03 2.231549e+08
1.223000e+03 2.865985e+08
1.224000e+03 3.614805e+08
1.225000e+03 2.070837e+08
1.226000e+03 4.932095e+08
1.227000e+03 5.404776e+08
1.228000e+03 3.876094e+08
1.229000e+03 5.832559e+08
1.230000e+03 5.544794e+08
1.231000e+03 4.166897e+08
1.232000e+03 8.280623e+08
1.233000e+03 8.857439e+08
1.234000e+03 6.247777e+08
1.235000e+03 9.383934e+08
1.236000e+03 5.166195e+08
1.237000e+03 1.030046e+09
1.238000e+03 9.650784e+08
1.239000e+03 9.696229e+08
1.240000e+03 9.434928e+08
1.241000e+03 1.059711e+09
1.242000e+03 9.591032e+08
1.243000e+03 1.344020e+09
1.244000e+03 8.280895e+08
1.245000e+03 1.021503e+09
1.246000e+03 1.512890e+09
1.247000e+03 1.520800e+09
1.248000e+03 8.312495e+08
1.249000e+03 1.081508e+09
1.250000e+03 1.666368e+09
1.251000e+03 1.972600e+09
1.252000e+03 1.802478e+09
1.253000e+03 2.013504e+09
1.254000e+03 1.830765e+09
1.255000e+03 2.101801e+09
1.256000e+03 1.876014e+09
1.257000e+03 2.078991e+09
1.258000e+03 1.522505e+09
1.259000e+03 1.948043e+09
1.260000e+03 2.129734e+09
1.261000e+03 4.159762e+07
1.262000e+03 5.841164e+08
1.263000e+03 2.281967e+09
1.264000e+03 1.753988e+09
1.265000e+03 4.374438e+07
1.266000e+03 2.322830e+09
1.267000e+03 1.954839e+09
