# wavelength_A flux
5.000000e+02 9.065752e-09
5.010000e+02 1.029908e-08
5.020000e+02 1.169404e-08
5.030000e+02 1.327100e-08
5.040000e+02 1.505280e-08
5.050000e+02 1.848110e-08
5.060000e+02 2.093068e-08
5.070000e+02 2.369297e-08
5.080000e+02 2.680635e-08
5.090000e+02 3.031734e-08
5.100000e+02 3.426715e-08
5.110000e+02 3.871187e-08
5.120000e+02 4.371219e-08
5.130000e+02 4.933430e-08
5.140000e+02 5.565255e-08
5.150000e+02 6.274791e-08
5.160000e+02 7.071808e-08
5.170000e+02 7.964960e-08
5.180000e+02 8.969082e-08
5.190000e+02 1.009368e-07
5.200000e+02 1.135395e-07
5.210000e+02 1.276556e-07
5.220000e+02 1.434101e-07
5.230000e+02 1.611438e-07
5.240000e+02 1.809278e-07
5.250000e+02 2.030583e-07
5.260000e+02 2.277846e-07
5.270000e+02 2.554067e-07
5.280000e+02 2.862503e-07
5.290000e+02 3.204315e-07
5.300000e+02 3.590832e-07
5.310000e+02 4.019136e-07
5.320000e+02 4.496615e-07
5.330000e+02 5.028572e-07
5.340000e+02 5.621021e-07
5.350000e+02 6.280555e-07
5.360000e+02 7.014184e-07
5.370000e+02 7.517779e-07
5.380000e+02 8.737623e-07
5.390000e+02 9.747147e-07
5.400000e+02 1.086795e-06
5.410000e+02 1.210960e-06
5.420000e+02 1.349360e-06
5.430000e+02 1.502703e-06
5.440000e+02 1.672726e-06
5.450000e+02 1.861230e-06
5.460000e+02 2.068929e-06
5.470000e+02 2.301575e-06
5.480000e+02 2.557849e-06
5.490000e+02 2.841490e-06
5.500000e+02 3.155394e-06
5.510000e+02 3.502597e-06
5.520000e+02 3.886483e-06
5.530000e+02 4.310774e-06
5.540000e+02 4.779530e-06
5.550000e+02 5.297220e-06
5.560000e+02 5.868736e-06
5.570000e+02 6.499441e-06
5.580000e+02 7.195200e-06
5.590000e+02 7.962444e-06
5.600000e+02 8.808196e-06
5.610000e+02 9.739935e-06
5.620000e+02 1.076649e-05
5.630000e+02 1.189669e-05
5.640000e+02 1.314090e-05
5.650000e+02 1.450994e-05
5.660000e+02 1.601583e-05
5.670000e+02 1.767161e-05
5.680000e+02 1.949159e-05
5.690000e+02 2.149132e-05
5.700000e+02 2.368773e-05
5.710000e+02 2.609956e-05
5.720000e+02 2.874674e-05
5.730000e+02 3.165064e-05
5.740000e+02 3.483660e-05
5.750000e+02 3.833197e-05
5.760000e+02 4.215010e-05
5.770000e+02 4.635733e-05
5.780000e+02 5.095366e-05
5.790000e+02 5.598673e-05
5.800000e+02 6.149615e-05
5.810000e+02 6.752500e-05
5.820000e+02 7.411969e-05
5.830000e+02 8.132884e-05
5.840000e+02 8.912697e-05
5.850000e+02 9.780830e-05
5.860000e+02 1.072429e-04
5.870000e+02 1.175274e-04
5.880000e+02 1.287550e-04
5.890000e+02 1.410050e-04
5.900000e+02 1.543783e-04
5.910000e+02 1.689636e-04
5.920000e+02 1.848673e-04
5.930000e+02 2.022040e-04
5.940000e+02 2.210971e-04
5.950000e+02 2.416382e-04
5.960000e+02 2.640903e-04
5.970000e+02 2.884974e-04
5.980000e+02 3.150634e-04
5.990000e+02 3.439707e-04
6.000000e+02 3.754159e-04
6.010000e+02 4.096049e-04
6.020000e+02 4.467872e-04
6.030000e+02 4.871916e-04
6.040000e+02 5.310904e-04
6.050000e+02 5.787758e-04
6.060000e+02 6.305407e-04
6.070000e+02 6.867420e-04
6.080000e+02 7.477432e-04
6.090000e+02 8.139259e-04
6.100000e+02 8.857097e-04
6.110000e+02 9.635473e-04
6.120000e+02 1.047925e-03
6.130000e+02 1.139367e-03
6.140000e+02 1.238437e-03
6.150000e+02 1.345743e-03
6.160000e+02 1.461935e-03
6.170000e+02 1.587715e-03
6.180000e+02 1.723837e-03
6.190000e+02 1.871112e-03
6.200000e+02 2.030396e-03
6.210000e+02 2.202651e-03
6.220000e+02 2.388869e-03
6.230000e+02 2.590127e-03
6.240000e+02 2.807582e-03
6.250000e+02 3.042476e-03
6.260000e+02 3.296140e-03
6.270000e+02 3.569938e-03
6.280000e+02 3.865526e-03
6.290000e+02 4.184478e-03
6.300000e+02 4.528576e-03
6.310000e+02 4.899618e-03
6.320000e+02 5.299821e-03
6.330000e+02 5.731154e-03
6.340000e+02 6.196000e-03
6.350000e+02 6.696819e-03
6.360000e+02 7.203308e-03
6.370000e+02 7.817241e-03
6.380000e+02 8.442692e-03
6.390000e+02 9.115892e-03
6.400000e+02 9.840311e-03
6.410000e+02 1.061965e-02
6.420000e+02 1.145786e-02
6.430000e+02 1.235921e-02
6.440000e+02 1.332818e-02
6.450000e+02 1.436957e-02
6.460000e+02 1.548835e-02
6.470000e+02 1.669030e-02
6.480000e+02 1.798137e-02
6.490000e+02 1.936775e-02
6.500000e+02 2.085596e-02
6.510000e+02 2.245319e-02
6.520000e+02 2.416701e-02
6.530000e+02 2.600554e-02
6.540000e+02 2.797739e-02
6.550000e+02 3.009172e-02
6.560000e+02 3.235834e-02
6.570000e+02 3.478603e-02
6.580000e+02 3.739074e-02
6.590000e+02 4.017942e-02
6.600000e+02 4.316574e-02
6.610000e+02 4.636408e-02
6.620000e+02 4.978813e-02
6.630000e+02 5.345296e-02
6.640000e+02 5.737370e-02
6.650000e+02 6.156932e-02
6.660000e+02 6.605750e-02
6.670000e+02 7.085698e-02
6.680000e+02 7.598853e-02
6.690000e+02 8.147389e-02
6.700000e+02 8.733599e-02
6.710000e+02 9.360002e-02
6.720000e+02 1.002784e-01
6.730000e+02 1.074382e-01
6.740000e+02 1.150695e-01
6.750000e+02 1.232168e-01
6.760000e+02 1.319129e-01
6.770000e+02 1.411930e-01
6.780000e+02 1.510941e-01
6.790000e+02 1.616558e-01
6.800000e+02 1.729197e-01
6.810000e+02 1.849263e-01
6.820000e+02 1.977300e-01
6.830000e+02 2.113768e-01
6.840000e+02 2.259192e-01
6.850000e+02 2.414128e-01
6.860000e+02 2.579170e-01
6.870000e+02 2.754860e-01
6.880000e+02 2.942086e-01
6.890000e+02 3.141301e-01
6.900000e+02 3.353386e-01
6.910000e+02 3.579062e-01
6.920000e+02 3.819167e-01
6.930000e+02 4.074579e-01
6.940000e+02 4.346221e-01
6.950000e+02 4.635002e-01
6.960000e+02 4.942101e-01
6.970000e+02 5.268080e-01
6.980000e+02 5.615278e-01
6.990000e+02 5.983856e-01
7.000000e+02 6.375412e-01
7.010000e+02 6.791299e-01
7.020000e+02 7.232950e-01
7.030000e+02 7.701874e-01
7.040000e+02 8.199659e-01
7.050000e+02 8.727991e-01
7.060000e+02 9.288636e-01
7.070000e+02 9.883473e-01
7.080000e+02 1.051446e+00
7.090000e+02 1.118366e+00
7.100000e+02 1.189333e+00
7.110000e+02 1.264571e+00
7.120000e+02 1.344325e+00
7.130000e+02 1.428817e+00
7.140000e+02 1.518384e+00
7.150000e+02 1.613276e+00
7.160000e+02 1.713795e+00
7.170000e+02 1.820237e+00
7.180000e+02 1.932897e+00
7.190000e+02 2.052335e+00
7.200000e+02 2.178674e+00
7.210000e+02 2.312388e+00
7.220000e+02 2.453883e+00
7.230000e+02 2.603588e+00
7.240000e+02 2.761948e+00
7.250000e+02 2.929440e+00
7.260000e+02 3.106559e+00
7.270000e+02 3.293785e+00
7.280000e+02 3.491663e+00
7.290000e+02 3.700896e+00
7.300000e+02 3.921991e+00
7.310000e+02 4.155639e+00
7.320000e+02 4.402452e+00
7.330000e+02 4.663152e+00
7.340000e+02 4.938475e+00
7.350000e+02 5.229192e+00
7.360000e+02 5.536096e+00
7.370000e+02 5.860104e+00
7.380000e+02 6.202043e+00
7.390000e+02 6.562872e+00
7.400000e+02 6.943555e+00
7.410000e+02 7.345188e+00
7.420000e+02 7.768767e+00
7.430000e+02 8.215300e+00
7.440000e+02 8.686317e+00
7.450000e+02 9.182899e+00
7.460000e+02 9.706343e+00
7.470000e+02 1.025802e+01
7.480000e+02 1.083936e+01
7.490000e+02 1.145187e+01
7.500000e+02 1.209712e+01
7.510000e+02 1.277677e+01
7.520000e+02 1.349252e+01
7.530000e+02 1.424620e+01
7.540000e+02 1.503969e+01
7.550000e+02 1.587496e+01
7.560000e+02 1.675411e+01
7.570000e+02 1.767830e+01
7.580000e+02 1.865203e+01
7.590000e+02 1.967594e+01
7.600000e+02 2.075337e+01
7.610000e+02 2.188642e+01
7.620000e+02 2.307790e+01
7.630000e+02 2.433065e+01
7.640000e+02 2.564765e+01
7.650000e+02 2.703197e+01
7.660000e+02 2.848694e+01
7.670000e+02 3.001586e+01
7.680000e+02 3.162184e+01
7.690000e+02 3.330996e+01
7.700000e+02 3.508263e+01
7.710000e+02 3.694391e+01
7.720000e+02 3.889899e+01
7.730000e+02 4.095174e+01
7.740000e+02 4.310676e+01
7.750000e+02 4.536883e+01
7.760000e+02 4.773888e+01
7.770000e+02 5.023434e+01
7.780000e+02 5.284847e+01
7.790000e+02 5.559094e+01
7.800000e+02 5.846770e+01
7.810000e+02 6.148496e+01
7.820000e+02 6.464909e+01
7.830000e+02 6.796669e+01
7.840000e+02 7.144508e+01
7.850000e+02 7.509032e+01
7.860000e+02 7.891204e+01
7.870000e+02 8.291792e+01
7.880000e+02 8.711483e+01
7.890000e+02 9.151205e+01
7.900000e+02 9.611803e+01
7.910000e+02 1.009436e+02
7.920000e+02 1.059971e+02
7.930000e+02 1.112889e+02
7.940000e+02 1.168297e+02
7.950000e+02 1.226306e+02
7.960000e+02 1.287030e+02
7.970000e+02 1.350586e+02
7.980000e+02 1.417097e+02
7.990000e+02 1.486697e+02
8.000000e+02 1.559517e+02
8.010000e+02 1.635695e+02
8.020000e+02 1.715382e+02
8.030000e+02 1.798722e+02
8.040000e+02 1.885878e+02
8.050000e+02 1.977009e+02
8.060000e+02 2.072286e+02
8.070000e+02 2.171887e+02
8.080000e+02 2.275994e+02
8.090000e+02 2.384791e+02
8.100000e+02 2.498491e+02
8.110000e+02 2.617254e+02
8.120000e+02 2.741358e+02
8.130000e+02 2.871028e+02
8.140000e+02 3.006454e+02
8.150000e+02 3.147862e+02
8.160000e+02 3.295572e+02
8.170000e+02 3.449777e+02
8.180000e+02 3.610783e+02
8.190000e+02 3.778858e+02
8.200000e+02 3.954285e+02
8.210000e+02 4.137370e+02
8.220000e+02 4.328426e+02
8.230000e+02 4.527774e+02
8.240000e+02 4.735760e+02
8.250000e+02 4.952723e+02
8.260000e+02 5.179030e+02
8.270000e+02 5.415057e+02
8.280000e+02 5.661192e+02
8.290000e+02 5.917841e+02
8.300000e+02 6.185424e+02
8.310000e+02 6.464374e+02
8.320000e+02 6.755143e+02
8.330000e+02 7.058198e+02
8.340000e+02 7.374025e+02
8.350000e+02 7.700467e+02
8.360000e+02 8.045717e+02
8.370000e+02 8.403101e+02
8.380000e+02 8.775221e+02
8.390000e+02 9.162821e+02
8.400000e+02 9.566482e+02
8.410000e+02 9.986810e+02
8.420000e+02 1.042371e+03
8.430000e+02 1.088023e+03
8.440000e+02 1.135462e+03
8.450000e+02 1.184842e+03
8.460000e+02 1.236237e+03
8.470000e+02 1.289725e+03
8.480000e+02 1.345381e+03
8.490000e+02 1.403295e+03
8.500000e+02 1.463545e+03
8.510000e+02 1.526221e+03
8.520000e+02 1.591411e+03
8.530000e+02 1.659218e+03
8.540000e+02 1.729756e+03
8.550000e+02 1.803081e+03
8.560000e+02 1.879320e+03
8.570000e+02 1.958580e+03
8.580000e+02 2.040973e+03
8.590000e+02 2.126618e+03
8.600000e+02 2.215593e+03
8.610000e+02 2.308095e+03
8.620000e+02 2.404215e+03
8.630000e+02 2.504081e+03
8.640000e+02 2.607841e+03
8.650000e+02 2.715622e+03
8.660000e+02 2.827584e+03
8.670000e+02 2.943865e+03
8.680000e+02 3.064603e+03
8.690000e+02 3.190000e+03
8.700000e+02 3.320171e+03
8.710000e+02 3.455381e+03
8.720000e+02 3.595711e+03
8.730000e+02 3.741377e+03
8.740000e+02 3.892567e+03
8.750000e+02 4.049475e+03
8.760000e+02 4.212301e+03
8.770000e+02 4.381238e+03
8.780000e+02 4.556552e+03
8.790000e+02 4.738410e+03
8.800000e+02 4.927056e+03
8.810000e+02 5.122730e+03
8.820000e+02 5.325670e+03
8.830000e+02 5.536041e+03
8.840000e+02 5.754279e+03
8.850000e+02 5.980555e+03
8.860000e+02 6.215164e+03
8.870000e+02 6.458373e+03
8.880000e+02 6.710475e+03
8.890000e+02 6.971781e+03
8.900000e+02 7.242596e+03
8.910000e+02 7.523243e+03
8.920000e+02 7.775353e+03
8.930000e+02 8.115369e+03
8.940000e+02 8.427540e+03
8.950000e+02 8.750918e+03
8.960000e+02 9.085912e+03
8.970000e+02 9.432874e+03
8.980000e+02 9.792211e+03
8.990000e+02 1.016433e+04
9.000000e+02 1.054966e+04
9.010000e+02 1.094862e+04
9.020000e+02 1.136167e+04
9.030000e+02 1.178928e+04
9.040000e+02 1.223123e+04
9.050000e+02 1.268982e+04
9.060000e+02 1.316398e+04
9.070000e+02 1.365427e+04
9.080000e+02 1.416242e+04
9.090000e+02 1.468779e+04
9.100000e+02 1.523134e+04
9.110000e+02 1.579385e+04
9.120000e+02 1.637666e+04
9.130000e+02 1.627955e+04
9.140000e+02 1.855184e+04
9.150000e+02 2.207164e+05
9.160000e+02 9.790299e+05
9.170000e+02 1.068359e+06
9.180000e+02 1.063356e+06
9.190000e+02 1.153159e+06
9.200000e+02 1.190769e+06
9.210000e+02 2.068664e+04
9.220000e+02 1.258004e+06
9.230000e+02 1.242978e+06
9.240000e+02 1.039342e+06
9.250000e+02 1.335154e+06
9.260000e+02 1.379972e+06
9.270000e+02 1.441138e+06
9.280000e+02 1.482839e+06
9.290000e+02 1.165287e+06
9.300000e+02 1.539095e+06
9.310000e+02 1.574411e+06
9.320000e+02 1.657240e+06
9.330000e+02 1.698309e+06
9.340000e+02 1.748679e+06
9.350000e+02 6.413442e+05
9.360000e+02 1.835305e+06
9.370000e+02 4.364540e+05
9.380000e+02 1.353373e+06
9.390000e+02 1.997148e+06
9.400000e+02 2.054040e+06
9.410000e+02 1.530402e+06
9.420000e+02 2.166831e+06
9.430000e+02 2.224477e+06
9.440000e+02 1.381273e+06
9.450000e+02 2.342365e+06
9.460000e+02 2.405856e+06
9.470000e+02 1.606522e+06
9.480000e+02 2.493512e+06
9.490000e+02 2.559480e+06
9.500000e+02 6.258781e+05
9.510000e+02 2.538443e+06
9.520000e+02 2.812878e+06
9.530000e+02 2.878163e+06
9.540000e+02 2.237503e+06
9.550000e+02 3.044318e+06
9.560000e+02 3.112624e+06
9.570000e+02 2.686976e+06
9.580000e+02 3.252097e+06
9.590000e+02 3.391080e+06
9.600000e+02 8.480522e+05
9.610000e+02 3.576544e+06
9.620000e+02 3.658979e+06
9.630000e+02 3.762267e+06
9.640000e+02 1.183885e+05
9.650000e+02 3.415240e+06
9.660000e+02 4.056452e+06
9.670000e+02 4.149825e+06
9.680000e+02 4.217129e+06
9.690000e+02 4.324028e+06
9.700000e+02 4.459153e+06
9.710000e+02 4.512332e+06
9.720000e+02 4.017660e+06
9.730000e+02 3.942434e+06
9.740000e+02 4.825310e+06
9.750000e+02 5.046701e+06
9.760000e+02 5.195106e+06
9.770000e+02 5.328953e+06
9.780000e+02 5.453368e+06
9.790000e+02 5.606211e+06
9.800000e+02 5.744780e+06
9.810000e+02 5.891050e+06
9.820000e+02 5.982800e+06
9.830000e+02 6.179873e+06
9.840000e+02 1.456135e+06
9.850000e+02 6.490977e+06
9.860000e+02 6.649070e+06
9.870000e+02 6.807434e+06
9.880000e+02 6.937255e+06
9.890000e+02 4.327000e+06
9.900000e+02 3.850305e+05
9.910000e+02 7.404275e+06
9.920000e+02 7.139696e+06
9.930000e+02 7.311836e+06
9.940000e+02 1.010322e+06
9.950000e+02 1.105158e+06
9.960000e+02 2.144342e+06
9.970000e+02 1.519490e+06
9.980000e+02 8.796800e+06
9.990000e+02 8.836345e+06
1.000000e+03 9.278420e+06
1.001000e+03 9.498309e+06
1.002000e+03 9.716361e+06
1.003000e+03 8.598330e+06
1.004000e+03 1.018124e+07
1.005000e+03 9.072242e+06
1.006000e+03 1.066459e+07
1.007000e+03 1.091269e+07
1.008000e+03 1.115328e+07
1.009000e+03 1.086708e+07
1.010000e+03 1.168415e+07
1.011000e+03 1.195117e+07
1.012000e+03 1.222112e+07
1.013000e+03 1.250123e+07
1.014000e+03 1.276507e+07
1.015000e+03 1.271344e+07
1.016000e+03 1.333192e+07
1.017000e+03 1.362589e+07
1.018000e+03 1.393413e+07
1.019000e+03 1.421563e+07
1.020000e+03 1.448872e+07
1.021000e+03 1.259518e+07
1.022000e+03 1.452009e+07
1.023000e+03 1.485124e+07
1.024000e+03 1.398073e+07
1.025000e+03 8.879290e+06
1.026000e+03 2.985306e+06
1.027000e+03 1.351019e+07
1.028000e+03 5.207638e+06
1.029000e+03 1.727255e+07
1.030000e+03 1.765187e+07
1.031000e+03 1.851682e+07
1.032000e+03 1.885760e+07
1.033000e+03 1.171483e+07
1.034000e+03 1.995501e+07
1.035000e+03 4.363199e+06
1.036000e+03 2.058620e+07
1.037000e+03 1.352404e+06
1.038000e+03 2.182295e+07
1.039000e+03 2.212376e+07
1.040000e+03 2.283177e+07
1.041000e+03 2.328114e+07
1.042000e+03 2.321545e+07
1.043000e+03 2.411770e+07
1.044000e+03 2.483757e+07
1.045000e+03 2.539700e+07
1.046000e+03 2.600544e+07
1.047000e+03 2.656837e+07
1.048000e+03 2.694453e+07
1.049000e+03 2.740128e+07
1.050000e+03 2.832992e+07
1.051000e+03 2.893716e+07
1.052000e+03 2.955630e+07
1.053000e+03 2.958691e+07
1.054000e+03 3.077708e+07
1.055000e+03 3.147460e+07
1.056000e+03 3.214898e+07
1.057000e+03 3.281523e+07
1.058000e+03 3.350611e+07
1.059000e+03 3.421662e+07
1.060000e+03 3.493116e+07
1.061000e+03 3.567245e+07
1.062000e+03 3.641566e+07
1.063000e+03 2.746359e+07
1.064000e+03 6.924960e+06
1.065000e+03 3.912807e+07
1.066000e+03 3.948722e+07
1.067000e+03 3.907126e+07
1.068000e+03 4.164624e+07
1.069000e+03 4.243519e+07
1.070000e+03 4.274645e+07
1.071000e+03 4.432368e+07
1.072000e+03 4.522394e+07
1.073000e+03 4.611513e+07
1.074000e+03 4.708823e+07
1.075000e+03 4.802136e+07
1.076000e+03 4.902458e+07
1.077000e+03 4.996611e+07
1.078000e+03 5.102564e+07
1.079000e+03 5.177382e+07
1.080000e+03 5.305552e+07
1.081000e+03 5.417085e+07
1.082000e+03 5.520282e+07
1.083000e+03 5.635539e+07
1.084000e+03 5.382981e+07
1.085000e+03 4.672130e+07
1.086000e+03 5.980300e+07
1.087000e+03 6.096006e+07
1.088000e+03 6.185553e+07
1.089000e+03 6.340177e+07
1.090000e+03 6.460212e+07
1.091000e+03 6.593138e+07
1.092000e+03 6.721223e+07
1.093000e+03 6.844312e+07
1.094000e+03 6.988645e+07
1.095000e+03 7.113099e+07
1.096000e+03 7.261970e+07
1.097000e+03 7.322179e+07
1.098000e+03 7.478439e+07
1.099000e+03 7.685900e+07
1.100000e+03 7.687802e+07
1.101000e+03 7.269934e+07
1.102000e+03 1.651637e+08
1.103000e+03 5.417934e+08
1.104000e+03 1.863908e+08
1.105000e+03 8.003507e+07
1.106000e+03 1.376362e+09
1.107000e+03 1.300080e+09
1.108000e+03 1.420776e+09
1.109000e+03 8.071011e+08
1.110000e+03 1.728063e+08
1.111000e+03 1.794154e+08
1.112000e+03 1.321061e+09
1.113000e+03 1.527316e+09
1.114000e+03 6.353107e+07
1.115000e+03 1.473128e+09
1.116000e+03 1.551510e+09
1.117000e+03 6.131443e+07
1.118000e+03 1.362659e+09
1.119000e+03 1.629203e+09
1.120000e+03 1.646467e+09
1.121000e+03 1.126059e+09
1.122000e+03 1.095347e+07
1.123000e+03 2.005264e+08
1.124000e+03 1.736749e+09
1.125000e+03 5.851058e+08
1.126000e+03 1.801282e+09
1.127000e+03 1.685557e+09
1.128000e+03 8.879749e+08
1.129000e+03 1.825731e+09
1.130000e+03 1.397539e+09
1.131000e+03 1.943283e+09
1.132000e+03 4.447718e+07
1.133000e+03 1.813708e+09
1.134000e+03 1.890168e+09
1.135000e+03 2.998899e+07
1.136000e+03 2.029058e+09
1.137000e+03 2.099085e+09
1.138000e+03 2.144198e+09
1.139000e+03 2.097461e+09
1.140000e+03 2.954534e+07
1.141000e+03 2.237999e+09
1.142000e+03 2.106682e+09
1.143000e+03 2.284345e+09
1.144000e+03 2.323542e+09
1.145000e+03 1.597723e+09
1.146000e+03 2.385962e+09
1.147000e+03 2.336195e+09
1.148000e+03 2.371267e+09
1.149000e+03 2.475430e+09
1.150000e+03 2.344699e+09
1.151000e+03 2.504604e+09
1.152000e+03 2.547412e+09
1.153000e+03 5.217802e+08
1.154000e+03 6.944230e+07
1.155000e+03 2.073550e+09
1.156000e+03 9.072061e+08
1.157000e+03 2.732994e+09
1.158000e+03 6.218792e+07
1.159000e+03 2.304472e+09
1.160000e+03 2.826622e+09
1.161000e+03 2.911363e+09
1.162000e+03 3.051814e+08
1.163000e+03 2.890610e+09
1.164000e+03 1.268326e+08
1.165000e+03 3.054770e+09
1.166000e+03 3.028223e+09
1.167000e+03 2.838099e+09
1.168000e+03 3.172349e+09
1.169000e+03 3.044201e+09
1.170000e+03 3.251203e+09
1.171000e+03 3.289553e+09
1.172000e+03 3.138122e+09
1.173000e+03 3.356346e+09
1.174000e+03 3.268574e+09
1.175000e+03 1.237064e+08
1.176000e+03 7.741466e+07
1.177000e+03 3.454204e+09
1.178000e+03 3.143464e+09
1.179000e+03 3.553350e+09
1.180000e+03 2.771630e+09
1.181000e+03 3.503191e+09
1.182000e+03 3.635267e+09
1.183000e+03 3.652997e+09
1.184000e+03 3.674048e+09
1.185000e+03 3.556063e+09
1.186000e+03 3.691364e+09
1.187000e+03 3.700605e+09
1.188000e+03 3.588589e+09
1.189000e+03 7.221734e+07
1.190000e+03 8.219648e+08
1.191000e+03 3.537108e+09
1.192000e+03 3.532922e+09
1.193000e+03 4.567578e+07
1.194000e+03 8.464000e+07
1.195000e+03 1.742969e+09
1.196000e+03 3.376948e+09
1.197000e+03 3.567037e+09
1.198000e+03 3.588215e+09
1.199000e+03 3.417758e+09
1.200000e+03 2.924331e+09
1.201000e+03 3.068281e+09
1.202000e+03 2.996205e+09
1.203000e+03 2.937795e+09
1.204000e+03 2.638463e+09
1.205000e+03 2.409072e+09
1.206000e+03 1.983992e+09
1.207000e+03 1.162877e+09
1.208000e+03 1.559068e+09
1.209000e+03 1.204297e+09
1.210000e+03 1.650239e+08
1.211000e+03 7.244785e+08
1.212000e+03 4.922982e+08
1.213000e+03 3.060757e+08
1.214000e+03 1.726260e+08
1.215000e+03 8.960091e+07
1.216000e+03 6.944574e+07
1.217000e+03 1.463795e+08
1.218000e+03 2.760871e+08
1.219000e+03 4.756134e+08
1.220000e+03 7.425298e+08
1.221000e+03 1.066873e+09
1.222000e+03 1.437945e+09
1.223000e+03 1.846755e+09
1.224000e+03 2.285793e+09
1.225000e+03 2.747646e+09
1.226000e+03 3.211971e+09
1.227000e+03 3.686449e+09
1.228000e+03 4.228809e+09
1.229000e+03 4.729806e+09
1.230000e+03 5.237343e+09
1.231000e+03 5.756899e+09
1.232000e+03 6.270936e+09
1.233000e+03 6.774771e+09
1.234000e+03 4.032131e+09
1.235000e+03 7.751491e+09
1.236000e+03 8.232548e+09
1.237000e+03 8.700406e+09
1.238000e+03 9.170673e+09
1.239000e+03 9.625581e+09
1.240000e+03 9.216283e+09
1.241000e+03 1.535206e+10
1.242000e+03 8.973056e+09
1.243000e+03 1.352586e+10
1.244000e+03 5.875808e+09
1.245000e+03 8.681474e+09
1.246000e+03 2.510608e+10
1.247000e+03 2.730888e+10
1.248000e+03 6.475496e+09
1.249000e+03 8.365715e+09
1.250000e+03 3.265018e+10
1.251000e+03 3.394228e+10
1.252000e+03 3.477114e+10
1.253000e+03 3.830741e+10
1.254000e+03 3.925397e+10
1.255000e+03 4.147218e+10
1.256000e+03 4.295468e+10
1.257000e+03 4.569920e+10
1.258000e+03 4.616200e+10
1.259000e+03 4.316412e+10
1.260000e+03 3.134850e+10
1.261000e+03 1.907546e+08
1.262000e+03 4.239944e+09
1.263000e+03 5.285317e+10
1.264000e+03 4.267027e+10
1.265000e+03 1.414651e+08
1.266000e+03 5.612073e+10
1.267000e+03 6.374997e+10
