# wavelength_A flux
5.000000e+02 3.361129e-31
5.010000e+02 4.235709e-31
5.020000e+02 5.332866e-31
5.030000e+02 6.707975e-31
5.040000e+02 8.429866e-31
5.050000e+02 1.111934e-30
5.060000e+02 1.393412e-30
5.070000e+02 1.743655e-30
5.080000e+02 2.181560e-30
5.090000e+02 2.726021e-30
5.100000e+02 3.230558e-30
5.110000e+02 4.245521e-30
5.120000e+02 5.288791e-30
5.130000e+02 6.589318e-30
5.140000e+02 8.198682e-30
5.150000e+02 1.019232e-29
5.160000e+02 1.265996e-29
5.170000e+02 1.571322e-29
5.180000e+02 1.948578e-29
5.190000e+02 2.414410e-29
5.200000e+02 2.989149e-29
5.210000e+02 3.697663e-29
5.220000e+02 4.569110e-29
5.230000e+02 5.644579e-29
5.240000e+02 6.965774e-29
5.250000e+02 8.589219e-29
5.260000e+02 1.058259e-28
5.270000e+02 1.302826e-28
5.280000e+02 1.602651e-28
5.290000e+02 1.969932e-28
5.300000e+02 2.419501e-28
5.310000e+02 2.969365e-28
5.320000e+02 3.641384e-28
5.330000e+02 4.462068e-28
5.340000e+02 5.463544e-28
5.350000e+02 6.684704e-28
5.360000e+02 8.172525e-28
5.370000e+02 9.818071e-28
5.380000e+02 1.218824e-27
5.390000e+02 1.486814e-27
5.400000e+02 1.812361e-27
5.410000e+02 2.207448e-27
5.420000e+02 2.686963e-27
5.430000e+02 3.268095e-27
5.440000e+02 3.972036e-27
5.450000e+02 4.824126e-27
5.460000e+02 5.854808e-27
5.470000e+02 7.100633e-27
5.480000e+02 8.605444e-27
5.490000e+02 1.042180e-26
5.500000e+02 1.261268e-26
5.510000e+02 1.525347e-26
5.520000e+02 1.843436e-26
5.530000e+02 2.226318e-26
5.540000e+02 2.686869e-26
5.550000e+02 3.240489e-26
5.560000e+02 3.905511e-26
5.570000e+02 4.703824e-26
5.580000e+02 5.661499e-26
5.590000e+02 6.809586e-26
5.600000e+02 8.185030e-26
5.610000e+02 9.831767e-26
5.620000e+02 1.180201e-25
5.630000e+02 1.415779e-25
5.640000e+02 1.697269e-25
5.650000e+02 2.033405e-25
5.660000e+02 2.434534e-25
5.670000e+02 2.912919e-25
5.680000e+02 3.483075e-25
5.690000e+02 4.162177e-25
5.700000e+02 4.970533e-25
5.710000e+02 5.932140e-25
5.720000e+02 7.075341e-25
5.730000e+02 8.433585e-25
5.740000e+02 1.004633e-24
5.750000e+02 1.196007e-24
5.760000e+02 1.422965e-24
5.770000e+02 1.691982e-24
5.780000e+02 2.010596e-24
5.790000e+02 2.387761e-24
5.800000e+02 2.833970e-24
5.810000e+02 3.361545e-24
5.820000e+02 3.984948e-24
5.830000e+02 4.721122e-24
5.840000e+02 5.588774e-24
5.850000e+02 6.614728e-24
5.860000e+02 7.823402e-24
5.870000e+02 9.247129e-24
5.880000e+02 1.092358e-23
5.890000e+02 1.289652e-23
5.900000e+02 1.521706e-23
5.910000e+02 1.794491e-23
5.920000e+02 2.114975e-23
5.930000e+02 2.491288e-23
5.940000e+02 2.932909e-23
5.950000e+02 3.450884e-23
5.960000e+02 4.058078e-23
5.970000e+02 4.769470e-23
5.980000e+02 5.602482e-23
5.990000e+02 6.577376e-23
6.000000e+02 7.717702e-23
6.010000e+02 9.050813e-23
6.020000e+02 1.060846e-22
6.030000e+02 1.242751e-22
6.040000e+02 1.455067e-22
6.050000e+02 1.702750e-22
6.060000e+02 1.991539e-22
6.070000e+02 2.328079e-22
6.080000e+02 2.720062e-22
6.090000e+02 3.176386e-22
6.100000e+02 3.707336e-22
6.110000e+02 4.324801e-22
6.120000e+02 5.042511e-22
6.130000e+02 5.876317e-22
6.140000e+02 6.844509e-22
6.150000e+02 7.968180e-22
6.160000e+02 9.271646e-22
6.170000e+02 1.078292e-21
6.180000e+02 1.253427e-21
6.190000e+02 1.456282e-21
6.200000e+02 1.691129e-21
6.210000e+02 1.962883e-21
6.220000e+02 2.277188e-21
6.230000e+02 2.640533e-21
6.240000e+02 3.060366e-21
6.250000e+02 3.545237e-21
6.260000e+02 4.104953e-21
6.270000e+02 4.750762e-21
6.280000e+02 5.495553e-21
6.290000e+02 6.354092e-21
6.300000e+02 7.343289e-21
6.310000e+02 8.480765e-21
6.320000e+02 9.793863e-21
6.330000e+02 1.130270e-20
6.340000e+02 1.303794e-20
6.350000e+02 1.503257e-20
6.360000e+02 1.732460e-20
6.370000e+02 1.995686e-20
6.380000e+02 2.297863e-20
6.390000e+02 2.644596e-20
6.400000e+02 3.042279e-20
6.410000e+02 3.498196e-20
6.420000e+02 4.020643e-20
6.430000e+02 4.619065e-20
6.440000e+02 5.304210e-20
6.450000e+02 6.088303e-20
6.460000e+02 6.985245e-20
6.470000e+02 8.010835e-20
6.480000e+02 9.183019e-20
6.490000e+02 1.052218e-19
6.500000e+02 1.205145e-19
6.510000e+02 1.379707e-19
6.520000e+02 1.578882e-19
6.530000e+02 1.806044e-19
6.540000e+02 2.065017e-19
6.550000e+02 2.360133e-19
6.560000e+02 2.696298e-19
6.570000e+02 3.079062e-19
6.580000e+02 3.514707e-19
6.590000e+02 4.010335e-19
6.600000e+02 4.573976e-19
6.610000e+02 5.214703e-19
6.620000e+02 5.942766e-19
6.630000e+02 6.769737e-19
6.640000e+02 7.708677e-19
6.650000e+02 8.774322e-19
6.660000e+02 9.983303e-19
6.670000e+02 1.135434e-18
6.680000e+02 1.290854e-18
6.690000e+02 1.466971e-18
6.700000e+02 1.666462e-18
6.710000e+02 1.892342e-18
6.720000e+02 2.148004e-18
6.730000e+02 2.437262e-18
6.740000e+02 2.764408e-18
6.750000e+02 3.134262e-18
6.760000e+02 3.552242e-18
6.770000e+02 4.024433e-18
6.780000e+02 4.557664e-18
6.790000e+02 5.159603e-18
6.800000e+02 5.838850e-18
6.810000e+02 6.605049e-18
6.820000e+02 7.469014e-18
6.830000e+02 8.442860e-18
6.840000e+02 9.540165e-18
6.850000e+02 1.077613e-17
6.860000e+02 1.216777e-17
6.870000e+02 1.373412e-17
6.880000e+02 1.549650e-17
6.890000e+02 1.747873e-17
6.900000e+02 1.970743e-17
6.910000e+02 2.221237e-17
6.920000e+02 2.502679e-17
6.930000e+02 2.818783e-17
6.940000e+02 3.173692e-17
6.950000e+02 3.572031e-17
6.960000e+02 4.018961e-17
6.970000e+02 4.520236e-17
6.980000e+02 5.082271e-17
6.990000e+02 5.712215e-17
7.000000e+02 6.418033e-17
7.010000e+02 7.208596e-17
7.020000e+02 8.093780e-17
7.030000e+02 9.084575e-17
7.040000e+02 1.019321e-16
7.050000e+02 1.143330e-16
7.060000e+02 1.281993e-16
7.070000e+02 1.436998e-16
7.080000e+02 1.610208e-16
7.090000e+02 1.803698e-16
7.100000e+02 2.019774e-16
7.110000e+02 2.260994e-16
7.120000e+02 2.530195e-16
7.130000e+02 2.830527e-16
7.140000e+02 3.165484e-16
7.150000e+02 3.538936e-16
7.160000e+02 3.955178e-16
7.170000e+02 4.418963e-16
7.180000e+02 4.935560e-16
7.190000e+02 5.510802e-16
7.200000e+02 6.151146e-16
7.210000e+02 6.863738e-16
7.220000e+02 7.656485e-16
7.230000e+02 8.538129e-16
7.240000e+02 9.518339e-16
7.250000e+02 1.060780e-15
7.260000e+02 1.181832e-15
7.270000e+02 1.316294e-15
7.280000e+02 1.465607e-15
7.290000e+02 1.631361e-15
7.300000e+02 1.815312e-15
7.310000e+02 2.019395e-15
7.320000e+02 2.245748e-15
7.330000e+02 2.496725e-15
7.340000e+02 2.774924e-15
7.350000e+02 3.083207e-15
7.360000e+02 3.424727e-15
7.370000e+02 3.802957e-15
7.380000e+02 4.221722e-15
7.390000e+02 4.685232e-15
7.400000e+02 5.198121e-15
7.410000e+02 5.765487e-15
7.420000e+02 6.392936e-15
7.430000e+02 7.086636e-15
7.440000e+02 7.853363e-15
7.450000e+02 8.700568e-15
7.460000e+02 9.636435e-15
7.470000e+02 1.066995e-14
7.480000e+02 1.181099e-14
7.490000e+02 1.307039e-14
7.500000e+02 1.446005e-14
7.510000e+02 1.599301e-14
7.520000e+02 1.768358e-14
7.530000e+02 1.954748e-14
7.540000e+02 2.160190e-14
7.550000e+02 2.386572e-14
7.560000e+02 2.635959e-14
7.570000e+02 2.910617e-14
7.580000e+02 3.213025e-14
7.590000e+02 3.545898e-14
7.600000e+02 3.912208e-14
7.610000e+02 4.315208e-14
7.620000e+02 4.758456e-14
7.630000e+02 5.245844e-14
7.640000e+02 5.781627e-14
7.650000e+02 6.370458e-14
7.660000e+02 7.017422e-14
7.670000e+02 7.728075e-14
7.680000e+02 8.508486e-14
7.690000e+02 9.365281e-14
7.700000e+02 1.030570e-13
7.710000e+02 1.133765e-13
7.720000e+02 1.246974e-13
7.730000e+02 1.371137e-13
7.740000e+02 1.507282e-13
7.750000e+02 1.656527e-13
7.760000e+02 1.820091e-13
7.770000e+02 1.999304e-13
7.780000e+02 2.195615e-13
7.790000e+02 2.410602e-13
7.800000e+02 2.645984e-13
7.810000e+02 2.903634e-13
7.820000e+02 3.185588e-13
7.830000e+02 3.494066e-13
7.840000e+02 3.831480e-13
7.850000e+02 4.200458e-13
7.860000e+02 4.603854e-13
7.870000e+02 5.044774e-13
7.880000e+02 5.526595e-13
7.890000e+02 6.052986e-13
7.900000e+02 6.627933e-13
7.910000e+02 7.255770e-13
7.920000e+02 7.941199e-13
7.930000e+02 8.689334e-13
7.940000e+02 9.505718e-13
7.950000e+02 1.039637e-12
7.960000e+02 1.136783e-12
7.970000e+02 1.242718e-12
7.980000e+02 1.358210e-12
7.990000e+02 1.484094e-12
8.000000e+02 1.621274e-12
8.010000e+02 1.770729e-12
8.020000e+02 1.933521e-12
8.030000e+02 2.110800e-12
8.040000e+02 2.303814e-12
8.050000e+02 2.513892e-12
8.060000e+02 2.742551e-12
8.070000e+02 2.991319e-12
8.080000e+02 3.261926e-12
8.090000e+02 3.556224e-12
8.100000e+02 3.876218e-12
8.110000e+02 4.224076e-12
8.120000e+02 4.602142e-12
8.130000e+02 5.012950e-12
8.140000e+02 5.459241e-12
8.150000e+02 5.943976e-12
8.160000e+02 6.470352e-12
8.170000e+02 7.041828e-12
8.180000e+02 7.662134e-12
8.190000e+02 8.335301e-12
8.200000e+02 9.065681e-12
8.210000e+02 9.857970e-12
8.220000e+02 1.071724e-11
8.230000e+02 1.164895e-11
8.240000e+02 1.265900e-11
8.250000e+02 1.375377e-11
8.260000e+02 1.494009e-11
8.270000e+02 1.622538e-11
8.280000e+02 1.761760e-11
8.290000e+02 1.912534e-11
8.300000e+02 2.075786e-11
8.310000e+02 2.252513e-11
8.320000e+02 2.443787e-11
8.330000e+02 2.650766e-11
8.340000e+02 2.874694e-11
8.350000e+02 3.116911e-11
8.360000e+02 3.378859e-11
8.370000e+02 3.662089e-11
8.380000e+02 3.968269e-11
8.390000e+02 4.299195e-11
8.400000e+02 4.656797e-11
8.410000e+02 5.043149e-11
8.420000e+02 5.460483e-11
8.430000e+02 5.911196e-11
8.440000e+02 6.397863e-11
8.450000e+02 6.923253e-11
8.460000e+02 7.490338e-11
8.470000e+02 8.102308e-11
8.480000e+02 8.762594e-11
8.490000e+02 9.474875e-11
8.500000e+02 1.024310e-10
8.510000e+02 1.107151e-10
8.520000e+02 1.196464e-10
8.530000e+02 1.292739e-10
8.540000e+02 1.396498e-10
8.550000e+02 1.508302e-10
8.560000e+02 1.628753e-10
8.570000e+02 1.758495e-10
8.580000e+02 1.898220e-10
8.590000e+02 2.048669e-10
8.600000e+02 2.210635e-10
8.610000e+02 2.384969e-10
8.620000e+02 2.572580e-10
8.630000e+02 2.774443e-10
8.640000e+02 2.991603e-10
8.650000e+02 3.225178e-10
8.660000e+02 3.476361e-10
8.670000e+02 3.746435e-10
8.680000e+02 4.036767e-10
8.690000e+02 4.348823e-10
8.700000e+02 4.684167e-10
8.710000e+02 5.044480e-10
8.720000e+02 5.431547e-10
8.730000e+02 5.847287e-10
8.740000e+02 6.293744e-10
8.750000e+02 6.773105e-10
8.760000e+02 7.287708e-10
8.770000e+02 7.840049e-10
8.780000e+02 8.432791e-10
8.790000e+02 9.068790e-10
8.800000e+02 9.751078e-10
8.810000e+02 1.048290e-09
8.820000e+02 1.126773e-09
8.830000e+02 1.210926e-09
8.840000e+02 1.301144e-09
8.850000e+02 1.397847e-09
8.860000e+02 1.501484e-09
8.870000e+02 1.612535e-09
8.880000e+02 1.731510e-09
8.890000e+02 1.858954e-09
8.900000e+02 1.995446e-09
8.910000e+02 2.141607e-09
8.920000e+02 2.298095e-09
8.930000e+02 2.465612e-09
8.940000e+02 2.644907e-09
8.950000e+02 2.836778e-09
8.960000e+02 3.042073e-09
8.970000e+02 3.261697e-09
8.980000e+02 3.496611e-09
8.990000e+02 3.747842e-09
9.000000e+02 4.016480e-09
9.010000e+02 4.303685e-09
9.020000e+02 4.610692e-09
9.030000e+02 4.938815e-09
9.040000e+02 5.289454e-09
9.050000e+02 5.664095e-09
9.060000e+02 6.064315e-09
9.070000e+02 6.491799e-09
9.080000e+02 6.948331e-09
9.090000e+02 7.435812e-09
9.100000e+02 7.956260e-09
9.110000e+02 8.511819e-09
9.120000e+02 9.104768e-09
9.130000e+02 9.737526e-09
9.140000e+02 1.177730e-08
9.150000e+02 3.451672e-06
9.160000e+02 1.115713e-05
9.170000e+02 8.658730e-08
9.180000e+02 4.494104e-06
9.190000e+02 3.082796e-05
9.200000e+02 6.782984e-05
9.210000e+02 1.657729e-08
9.220000e+02 8.294853e-06
9.230000e+02 1.383613e-07
9.240000e+02 1.307853e-07
9.250000e+02 1.242730e-06
9.260000e+02 5.504228e-06
9.270000e+02 1.199343e-07
9.280000e+02 1.920255e-04
9.290000e+02 2.671205e-04
9.300000e+02 8.749557e-05
9.310000e+02 2.021010e-07
9.320000e+02 2.389795e-04
9.330000e+02 6.398623e-06
9.340000e+02 1.905079e-06
9.350000e+02 2.149798e-06
9.360000e+02 3.533405e-07
9.370000e+02 1.372433e-07
9.380000e+02 1.091930e-06
9.390000e+02 1.061243e-06
9.400000e+02 6.207449e-05
9.410000e+02 1.274401e-05
9.420000e+02 7.006569e-04
9.430000e+02 1.541623e-06
9.440000e+02 8.074694e-04
9.450000e+02 5.246183e-04
9.460000e+02 2.026710e-05
9.470000e+02 1.000412e-07
9.480000e+02 1.733158e-04
9.490000e+02 6.233094e-05
9.500000e+02 3.174845e-06
9.510000e+02 2.321893e-05
9.520000e+02 4.247134e-05
9.530000e+02 4.019530e-07
9.540000e+02 1.430774e-07
9.550000e+02 3.831956e-06
9.560000e+02 4.079409e-04
9.570000e+02 2.224897e-06
9.580000e+02 1.722428e-07
9.590000e+02 1.134303e-04
9.600000e+02 5.953021e-06
9.610000e+02 3.012232e-05
9.620000e+02 1.192228e-05
9.630000e+02 2.356668e-06
9.640000e+02 6.593182e-07
9.650000e+02 3.111199e-07
9.660000e+02 4.160596e-06
9.670000e+02 8.487623e-07
9.680000e+02 6.390474e-07
9.690000e+02 2.388771e-05
9.700000e+02 3.355901e-05
9.710000e+02 1.332176e-06
9.720000e+02 7.921662e-07
9.730000e+02 2.562616e-05
9.740000e+02 4.084680e-05
9.750000e+02 9.205827e-06
9.760000e+02 3.008358e-04
9.770000e+02 1.284339e-04
9.780000e+02 5.337220e-05
9.790000e+02 2.601024e-03
9.800000e+02 1.618082e-03
9.810000e+02 3.368943e-05
9.820000e+02 6.803835e-06
9.830000e+02 8.985163e-04
9.840000e+02 2.808149e-04
9.850000e+02 1.639611e-05
9.860000e+02 2.799006e-05
9.870000e+02 9.184589e-04
9.880000e+02 1.125853e-06
9.890000e+02 1.656722e-04
9.900000e+02 5.559819e-04
9.910000e+02 7.561367e-06
9.920000e+02 1.260191e-06
9.930000e+02 4.381553e-03
9.940000e+02 4.732428e-06
9.950000e+02 2.698073e-04
9.960000e+02 2.731394e-06
9.970000e+02 5.337213e-04
9.980000e+02 6.111139e-04
9.990000e+02 1.339956e-05
1.000000e+03 9.235618e-03
1.001000e+03 6.402647e-03
1.002000e+03 3.096569e-03
1.003000e+03 1.346041e-05
1.004000e+03 2.558576e-06
1.005000e+03 4.715100e-05
1.006000e+03 1.948189e-03
1.007000e+03 4.027139e-03
1.008000e+03 1.000491e-03
1.009000e+03 2.173401e-05
1.010000e+03 1.032821e-03
1.011000e+03 1.422641e-03
1.012000e+03 1.482953e-03
1.013000e+03 1.382131e-03
1.014000e+03 4.241534e-06
1.015000e+03 4.668022e-06
1.016000e+03 6.606663e-05
1.017000e+03 4.983274e-06
1.018000e+03 2.135173e-05
1.019000e+03 5.616806e-06
1.020000e+03 3.465122e-03
1.021000e+03 4.393491e-05
1.022000e+03 6.287964e-05
1.023000e+03 7.717405e-06
1.024000e+03 2.258810e-03
1.025000e+03 7.623908e-06
1.026000e+03 1.773571e-05
1.027000e+03 3.165845e-04
1.028000e+03 1.360483e-04
1.029000e+03 9.405543e-06
1.030000e+03 2.377192e-04
1.031000e+03 4.831746e-04
1.032000e+03 5.553632e-03
1.033000e+03 8.655000e-04
1.034000e+03 6.093527e-04
1.035000e+03 1.076832e-04
1.036000e+03 1.352921e-05
1.037000e+03 3.769285e-03
1.038000e+03 2.228026e-02
1.039000e+03 3.946874e-03
1.040000e+03 3.550050e-03
1.041000e+03 2.166731e-02
1.042000e+03 1.224991e-02
1.043000e+03 1.484774e-02
1.044000e+03 7.897088e-02
1.045000e+03 6.782476e-05
1.046000e+03 3.649971e-03
1.047000e+03 1.582401e-03
1.048000e+03 4.688394e-05
1.049000e+03 1.513027e-03
1.050000e+03 4.722155e-04
1.051000e+03 2.702195e-04
1.052000e+03 1.702441e-02
1.053000e+03 2.955673e-02
1.054000e+03 3.365055e-05
1.055000e+03 3.742806e-02
1.056000e+03 4.182756e-02
1.057000e+03 4.491622e-03
1.058000e+03 2.617100e-04
1.059000e+03 2.822988e-04
1.060000e+03 7.796660e-05
1.061000e+03 7.417440e-03
1.062000e+03 1.529786e-04
1.063000e+03 7.465213e-03
1.064000e+03 1.379550e-04
1.065000e+03 5.780347e-05
1.066000e+03 1.099893e-02
1.067000e+03 2.038719e-04
1.068000e+03 1.054687e-01
1.069000e+03 8.407701e-05
1.070000e+03 2.230942e-03
1.071000e+03 2.778613e-02
1.072000e+03 9.906475e-02
1.073000e+03 8.510053e-05
1.074000e+03 5.373930e-03
1.075000e+03 3.218412e-03
1.076000e+03 1.123706e-01
1.077000e+03 2.812003e-04
1.078000e+03 3.996342e-04
1.079000e+03 1.692816e-03
1.080000e+03 6.686313e-03
1.081000e+03 2.717945e-02
1.082000e+03 1.583862e-02
1.083000e+03 8.783087e-03
1.084000e+03 3.541788e-01
1.085000e+03 2.430223e-03
1.086000e+03 1.725766e-01
1.087000e+03 5.456209e-04
1.088000e+03 4.269556e-01
1.089000e+03 4.684304e-01
1.090000e+03 1.956171e-03
1.091000e+03 2.911210e-03
1.092000e+03 3.096589e-01
1.093000e+03 4.533374e-01
1.094000e+03 2.174257e-02
1.095000e+03 7.611353e-01
1.096000e+03 2.010229e-01
1.097000e+03 1.003731e-01
1.098000e+03 5.512808e-01
1.099000e+03 7.143080e-03
1.100000e+03 3.251694e-04
1.101000e+03 5.365623e-04
1.102000e+03 4.941739e-03
1.103000e+03 5.428727e-01
1.104000e+03 8.344061e-01
1.105000e+03 7.019775e-01
1.106000e+03 2.199923e-02
1.107000e+03 4.775226e-04
1.108000e+03 1.263918e-01
1.109000e+03 3.022641e-03
1.110000e+03 9.381078e-01
1.111000e+03 3.942668e-01
1.112000e+03 6.115076e-02
1.113000e+03 8.858694e-01
1.114000e+03 3.863941e-02
1.115000e+03 3.813356e-03
1.116000e+03 1.560586e-03
1.117000e+03 4.596512e-01
1.118000e+03 5.108021e-03
1.119000e+03 7.049336e-02
1.120000e+03 2.200216e-03
1.121000e+03 2.922304e-01
1.122000e+03 1.979740e+00
1.123000e+03 6.212223e-01
1.124000e+03 7.202253e-01
1.125000e+03 3.273693e-01
1.126000e+03 4.781473e+00
1.127000e+03 4.084767e-01
1.128000e+03 2.357215e+00
1.129000e+03 2.074394e-01
1.130000e+03 1.275725e+00
1.131000e+03 2.427737e+00
1.132000e+03 4.068516e-03
1.133000e+03 2.739978e-02
1.134000e+03 2.702723e-01
1.135000e+03 2.132710e+00
1.136000e+03 5.548215e-02
1.137000e+03 9.372608e-01
1.138000e+03 2.295116e-01
1.139000e+03 2.432705e+00
1.140000e+03 2.093964e+00
1.141000e+03 2.136972e+00
1.142000e+03 3.567330e+00
1.143000e+03 2.912641e-01
1.144000e+03 3.473091e+00
1.145000e+03 3.054023e-03
1.146000e+03 4.136963e+00
1.147000e+03 2.635384e+00
1.148000e+03 1.636589e-02
1.149000e+03 1.154240e+00
1.150000e+03 8.114696e-01
1.151000e+03 3.649384e+00
1.152000e+03 1.510742e+00
1.153000e+03 3.005697e+00
1.154000e+03 5.553864e+00
1.155000e+03 1.151896e+00
1.156000e+03 4.523750e+00
1.157000e+03 5.250873e+00
1.158000e+03 3.833752e-01
1.159000e+03 3.977541e+00
1.160000e+03 5.243488e-01
1.161000e+03 3.263736e+00
1.162000e+03 7.207775e-02
1.163000e+03 2.501254e-01
1.164000e+03 6.221449e-02
1.165000e+03 1.535432e+00
1.166000e+03 9.876356e-01
1.167000e+03 9.909011e-01
1.168000e+03 5.292606e+00
1.169000e+03 6.639125e+00
1.170000e+03 6.266119e-01
1.171000e+03 2.870193e+00
1.172000e+03 9.391346e-01
1.173000e+03 2.978439e+00
1.174000e+03 1.534915e-02
1.175000e+03 3.727821e-02
1.176000e+03 1.315627e-02
1.177000e+03 8.433059e+00
1.178000e+03 8.505272e+00
1.179000e+03 6.155598e+00
1.180000e+03 1.921313e+00
1.181000e+03 7.794198e+00
1.182000e+03 5.603978e+00
1.183000e+03 2.012307e+00
1.184000e+03 1.600827e+00
1.185000e+03 2.099515e+00
1.186000e+03 7.107406e-02
1.187000e+03 4.018133e+00
1.188000e+03 1.265464e+00
1.189000e+03 6.939696e+00
1.190000e+03 6.406829e+00
1.191000e+03 3.756099e+00
1.192000e+03 5.249732e+00
1.193000e+03 3.203721e+00
1.194000e+03 5.105019e+00
1.195000e+03 4.744137e+00
1.196000e+03 1.250412e+01
1.197000e+03 3.963468e+01
1.198000e+03 2.081940e-01
1.199000e+03 3.777549e+01
1.200000e+03 6.636870e-01
1.201000e+03 2.444370e+01
1.202000e+03 4.063618e+00
1.203000e+03 1.544000e+01
1.204000e+03 7.480450e-01
1.205000e+03 1.092829e+01
1.206000e+03 1.188150e+01
1.207000e+03 4.343204e+00
1.208000e+03 7.670492e+00
1.209000e+03 8.925017e+00
1.210000e+03 6.557107e-02
1.211000e+03 4.054757e+00
1.212000e+03 1.430727e+00
1.213000e+03 1.265534e+00
1.214000e+03 4.385120e-01
1.215000e+03 6.453449e-02
1.216000e+03 3.587567e-02
1.217000e+03 2.849236e-01
1.218000e+03 1.089859e+00
1.219000e+03 2.500892e+00
1.220000e+03 8.707373e-01
1.221000e+03 7.373043e+00
1.222000e+03 6.911361e+00
1.223000e+03 5.275603e+00
1.224000e+03 2.043694e+01
1.225000e+03 3.868618e-01
1.226000e+03 3.717841e+01
1.227000e+03 3.492843e+01
1.228000e+03 2.680822e+00
1.229000e+03 2.549757e+01
1.230000e+03 1.688629e+01
1.231000e+03 1.503109e+00
1.232000e+03 9.316900e+01
1.233000e+03 1.116484e+02
1.234000e+03 1.179189e+02
1.235000e+03 6.229590e+01
1.236000e+03 4.125870e+00
1.237000e+03 1.213146e+02
1.238000e+03 8.493798e+01
1.239000e+03 2.314494e+01
1.240000e+03 9.033047e+01
1.241000e+03 2.769171e+01
1.242000e+03 6.830221e+01
1.243000e+03 1.651695e+02
1.244000e+03 1.972999e+02
1.245000e+03 1.480767e+02
1.246000e+03 5.393513e+01
1.247000e+03 9.117036e+01
1.248000e+03 2.207388e+02
1.249000e+03 2.905869e+02
1.250000e+03 1.531730e+02
1.251000e+03 2.318387e+02
1.252000e+03 1.179669e+02
1.253000e+03 2.872316e+02
1.254000e+03 1.347513e+02
1.255000e+03 1.044212e+02
1.256000e+03 1.004257e+02
1.257000e+03 1.726498e+02
1.258000e+03 3.999902e+01
1.259000e+03 6.687207e+01
1.260000e+03 2.610134e+02
1.261000e+03 1.896906e+01
1.262000e+03 3.292564e+02
1.263000e+03 1.814785e+02
1.264000e+03 5.457556e+01
1.265000e+03 8.599402e+01
1.266000e+03 2.876655e+02
1.267000e+03 9.007080e+01
