# wavelength_A flux
5.000000e+02 3.373816e-07
5.010000e+02 3.807212e-07
5.020000e+02 4.294128e-07
5.030000e+02 4.840907e-07
5.040000e+02 5.454613e-07
5.050000e+02 6.350677e-07
5.060000e+02 7.147489e-07
5.070000e+02 8.040384e-07
5.080000e+02 9.040473e-07
5.090000e+02 1.016041e-06
5.100000e+02 1.141333e-06
5.110000e+02 1.281467e-06
5.120000e+02 1.438131e-06
5.130000e+02 1.613194e-06
5.140000e+02 1.808727e-06
5.150000e+02 2.026999e-06
5.160000e+02 2.270627e-06
5.170000e+02 2.542213e-06
5.180000e+02 2.845287e-06
5.190000e+02 3.182891e-06
5.200000e+02 3.558854e-06
5.210000e+02 3.977512e-06
5.220000e+02 4.442869e-06
5.230000e+02 4.961908e-06
5.240000e+02 5.538269e-06
5.250000e+02 6.179116e-06
5.260000e+02 6.891022e-06
5.270000e+02 7.681640e-06
5.280000e+02 8.559305e-06
5.290000e+02 9.530327e-06
5.300000e+02 1.061338e-05
5.310000e+02 1.181101e-05
5.320000e+02 1.313794e-05
5.330000e+02 1.460826e-05
5.340000e+02 1.623640e-05
5.350000e+02 1.803857e-05
5.360000e+02 2.003239e-05
5.370000e+02 2.185540e-05
5.380000e+02 2.467550e-05
5.390000e+02 2.737082e-05
5.400000e+02 3.034763e-05
5.410000e+02 3.363139e-05
5.420000e+02 3.726260e-05
5.430000e+02 4.126600e-05
5.440000e+02 4.568120e-05
5.450000e+02 5.054980e-05
5.460000e+02 5.590232e-05
5.470000e+02 6.182738e-05
5.480000e+02 6.833772e-05
5.490000e+02 7.550538e-05
5.500000e+02 8.339302e-05
5.510000e+02 9.207002e-05
5.520000e+02 1.016119e-04
5.530000e+02 1.121009e-04
5.540000e+02 1.236270e-04
5.550000e+02 1.362881e-04
5.560000e+02 1.501908e-04
5.570000e+02 1.654516e-04
5.580000e+02 1.821970e-04
5.590000e+02 2.005651e-04
5.600000e+02 2.207059e-04
5.610000e+02 2.427828e-04
5.620000e+02 2.669734e-04
5.630000e+02 2.934711e-04
5.640000e+02 3.224857e-04
5.650000e+02 3.542402e-04
5.660000e+02 3.889931e-04
5.670000e+02 4.270078e-04
5.680000e+02 4.685768e-04
5.690000e+02 5.140173e-04
5.700000e+02 5.636719e-04
5.710000e+02 6.179174e-04
5.720000e+02 6.771437e-04
5.730000e+02 7.418114e-04
5.740000e+02 8.123847e-04
5.750000e+02 8.893979e-04
5.760000e+02 9.732348e-04
5.770000e+02 1.064921e-03
5.780000e+02 1.164706e-03
5.790000e+02 1.273429e-03
5.800000e+02 1.391852e-03
5.810000e+02 1.520801e-03
5.820000e+02 1.661162e-03
5.830000e+02 1.813878e-03
5.840000e+02 1.979225e-03
5.850000e+02 2.160555e-03
5.860000e+02 2.357219e-03
5.870000e+02 2.570782e-03
5.880000e+02 2.802814e-03
5.890000e+02 3.054790e-03
5.900000e+02 3.328512e-03
5.910000e+02 3.625598e-03
5.920000e+02 3.948006e-03
5.930000e+02 4.297789e-03
5.940000e+02 4.677163e-03
5.950000e+02 5.088195e-03
5.960000e+02 5.534401e-03
5.970000e+02 6.017586e-03
5.980000e+02 6.541039e-03
5.990000e+02 7.107947e-03
6.000000e+02 7.721753e-03
6.010000e+02 8.385878e-03
6.020000e+02 9.105034e-03
6.030000e+02 9.882616e-03
6.040000e+02 1.072372e-02
6.050000e+02 1.163314e-02
6.060000e+02 1.261608e-02
6.070000e+02 1.367834e-02
6.080000e+02 1.482584e-02
6.090000e+02 1.606516e-02
6.100000e+02 1.740327e-02
6.110000e+02 1.884768e-02
6.120000e+02 2.040638e-02
6.130000e+02 2.208760e-02
6.140000e+02 2.390127e-02
6.150000e+02 2.585694e-02
6.160000e+02 2.796511e-02
6.170000e+02 3.023711e-02
6.180000e+02 3.268487e-02
6.190000e+02 3.532162e-02
6.200000e+02 3.816106e-02
6.210000e+02 4.121729e-02
6.220000e+02 4.450749e-02
6.230000e+02 4.804789e-02
6.240000e+02 5.185657e-02
6.250000e+02 5.595280e-02
6.260000e+02 6.035722e-02
6.270000e+02 6.509180e-02
6.280000e+02 7.018008e-02
6.290000e+02 7.564709e-02
6.300000e+02 8.151957e-02
6.310000e+02 8.782537e-02
6.320000e+02 9.459703e-02
6.330000e+02 1.018649e-01
6.340000e+02 1.096642e-01
6.350000e+02 1.180317e-01
6.360000e+02 1.267338e-01
6.370000e+02 1.366318e-01
6.380000e+02 1.469479e-01
6.390000e+02 1.580079e-01
6.400000e+02 1.698598e-01
6.410000e+02 1.825573e-01
6.420000e+02 1.961578e-01
6.430000e+02 2.107220e-01
6.440000e+02 2.263145e-01
6.450000e+02 2.430039e-01
6.460000e+02 2.608643e-01
6.470000e+02 2.799719e-01
6.480000e+02 3.004109e-01
6.490000e+02 3.222627e-01
6.500000e+02 3.456314e-01
6.510000e+02 3.706108e-01
6.520000e+02 3.973061e-01
6.530000e+02 4.258286e-01
6.540000e+02 4.562885e-01
6.550000e+02 4.888276e-01
6.560000e+02 5.235717e-01
6.570000e+02 5.606478e-01
6.580000e+02 6.002478e-01
6.590000e+02 6.424888e-01
6.600000e+02 6.875517e-01
6.610000e+02 7.356188e-01
6.620000e+02 7.868760e-01
6.630000e+02 8.415243e-01
6.640000e+02 8.997766e-01
6.650000e+02 9.618551e-01
6.660000e+02 1.028004e+00
6.670000e+02 1.098469e+00
6.680000e+02 1.173518e+00
6.690000e+02 1.253409e+00
6.700000e+02 1.338487e+00
6.710000e+02 1.429048e+00
6.720000e+02 1.525299e+00
6.730000e+02 1.627960e+00
6.740000e+02 1.737038e+00
6.750000e+02 1.853050e+00
6.760000e+02 1.976411e+00
6.770000e+02 2.107560e+00
6.780000e+02 2.246964e+00
6.790000e+02 2.395110e+00
6.800000e+02 2.552519e+00
6.810000e+02 2.719736e+00
6.820000e+02 2.897279e+00
6.830000e+02 3.085874e+00
6.840000e+02 3.286037e+00
6.850000e+02 3.498575e+00
6.860000e+02 3.724148e+00
6.870000e+02 3.963451e+00
6.880000e+02 4.217429e+00
6.890000e+02 4.486758e+00
6.900000e+02 4.772408e+00
6.910000e+02 5.075281e+00
6.920000e+02 5.396355e+00
6.930000e+02 5.736668e+00
6.940000e+02 6.097307e+00
6.950000e+02 6.479417e+00
6.960000e+02 6.884202e+00
6.970000e+02 7.312745e+00
6.980000e+02 7.766778e+00
6.990000e+02 8.247462e+00
7.000000e+02 8.756307e+00
7.010000e+02 9.294868e+00
7.020000e+02 9.864779e+00
7.030000e+02 1.046776e+01
7.040000e+02 1.110561e+01
7.050000e+02 1.178025e+01
7.060000e+02 1.249365e+01
7.070000e+02 1.324794e+01
7.080000e+02 1.404530e+01
7.090000e+02 1.488802e+01
7.100000e+02 1.577863e+01
7.110000e+02 1.671959e+01
7.120000e+02 1.771323e+01
7.130000e+02 1.876311e+01
7.140000e+02 1.987183e+01
7.150000e+02 2.104249e+01
7.160000e+02 2.227833e+01
7.170000e+02 2.358267e+01
7.180000e+02 2.495890e+01
7.190000e+02 2.641204e+01
7.200000e+02 2.794453e+01
7.210000e+02 2.956104e+01
7.220000e+02 3.126589e+01
7.230000e+02 3.306366e+01
7.240000e+02 3.495906e+01
7.250000e+02 3.695709e+01
7.260000e+02 3.906298e+01
7.270000e+02 4.128220e+01
7.280000e+02 4.362048e+01
7.290000e+02 4.608381e+01
7.300000e+02 4.867839e+01
7.310000e+02 5.141108e+01
7.320000e+02 5.428849e+01
7.330000e+02 5.731790e+01
7.340000e+02 6.050687e+01
7.350000e+02 6.386328e+01
7.360000e+02 6.739525e+01
7.370000e+02 7.111184e+01
7.380000e+02 7.502163e+01
7.390000e+02 7.913424e+01
7.400000e+02 8.345729e+01
7.410000e+02 8.800572e+01
7.420000e+02 9.278743e+01
7.430000e+02 9.781469e+01
7.440000e+02 1.030985e+02
7.450000e+02 1.086515e+02
7.460000e+02 1.144865e+02
7.470000e+02 1.206169e+02
7.480000e+02 1.270567e+02
7.490000e+02 1.338206e+02
7.500000e+02 1.409240e+02
7.510000e+02 1.483826e+02
7.520000e+02 1.562132e+02
7.530000e+02 1.644333e+02
7.540000e+02 1.730609e+02
7.550000e+02 1.821148e+02
7.560000e+02 1.916151e+02
7.570000e+02 2.015789e+02
7.580000e+02 2.120374e+02
7.590000e+02 2.230021e+02
7.600000e+02 2.345033e+02
7.610000e+02 2.465621e+02
7.620000e+02 2.592018e+02
7.630000e+02 2.724542e+02
7.640000e+02 2.863445e+02
7.650000e+02 3.009011e+02
7.660000e+02 3.161545e+02
7.670000e+02 3.321270e+02
7.680000e+02 3.488651e+02
7.690000e+02 3.664026e+02
7.700000e+02 3.847665e+02
7.710000e+02 4.039962e+02
7.720000e+02 4.241300e+02
7.730000e+02 4.452075e+02
7.740000e+02 4.672701e+02
7.750000e+02 4.903608e+02
7.760000e+02 5.144850e+02
7.770000e+02 5.398073e+02
7.780000e+02 5.662588e+02
7.790000e+02 5.939285e+02
7.800000e+02 6.228692e+02
7.810000e+02 6.531355e+02
7.820000e+02 6.847838e+02
7.830000e+02 7.178729e+02
7.840000e+02 7.524651e+02
7.850000e+02 7.886231e+02
7.860000e+02 8.264130e+02
7.870000e+02 8.659081e+02
7.880000e+02 9.071722e+02
7.890000e+02 9.502831e+02
7.900000e+02 9.953157e+02
7.910000e+02 1.042357e+03
7.920000e+02 1.091454e+03
7.930000e+02 1.142754e+03
7.940000e+02 1.196316e+03
7.950000e+02 1.252235e+03
7.960000e+02 1.310608e+03
7.970000e+02 1.371535e+03
7.980000e+02 1.435118e+03
7.990000e+02 1.501470e+03
8.000000e+02 1.570694e+03
8.010000e+02 1.642915e+03
8.020000e+02 1.718255e+03
8.030000e+02 1.796833e+03
8.040000e+02 1.878784e+03
8.050000e+02 1.964239e+03
8.060000e+02 2.053338e+03
8.070000e+02 2.146228e+03
8.080000e+02 2.243057e+03
8.090000e+02 2.343981e+03
8.100000e+02 2.449162e+03
8.110000e+02 2.558767e+03
8.120000e+02 2.672964e+03
8.130000e+02 2.791949e+03
8.140000e+02 2.915891e+03
8.150000e+02 3.044980e+03
8.160000e+02 3.179352e+03
8.170000e+02 3.319319e+03
8.180000e+02 3.465107e+03
8.190000e+02 3.616888e+03
8.200000e+02 3.774896e+03
8.210000e+02 3.939366e+03
8.220000e+02 4.110548e+03
8.230000e+02 4.288692e+03
8.240000e+02 4.474069e+03
8.250000e+02 4.666945e+03
8.260000e+02 4.867603e+03
8.270000e+02 5.076335e+03
8.280000e+02 5.293445e+03
8.290000e+02 5.519243e+03
8.300000e+02 5.754053e+03
8.310000e+02 5.998208e+03
8.320000e+02 6.252056e+03
8.330000e+02 6.515953e+03
8.340000e+02 6.790268e+03
8.350000e+02 7.074257e+03
8.360000e+02 7.371596e+03
8.370000e+02 7.679571e+03
8.380000e+02 7.999259e+03
8.390000e+02 8.331671e+03
8.400000e+02 8.676972e+03
8.410000e+02 9.035635e+03
8.420000e+02 9.407845e+03
8.430000e+02 9.795068e+03
8.440000e+02 1.019682e+04
8.450000e+02 1.061397e+04
8.460000e+02 1.104706e+04
8.470000e+02 1.149667e+04
8.480000e+02 1.196336e+04
8.490000e+02 1.244775e+04
8.500000e+02 1.295046e+04
8.510000e+02 1.347212e+04
8.520000e+02 1.401337e+04
8.530000e+02 1.457497e+04
8.540000e+02 1.515768e+04
8.550000e+02 1.576202e+04
8.560000e+02 1.638884e+04
8.570000e+02 1.703893e+04
8.580000e+02 1.771308e+04
8.590000e+02 1.841213e+04
8.600000e+02 1.913632e+04
8.610000e+02 1.988771e+04
8.620000e+02 2.066660e+04
8.630000e+02 2.147393e+04
8.640000e+02 2.231073e+04
8.650000e+02 2.317786e+04
8.660000e+02 2.407619e+04
8.670000e+02 2.500727e+04
8.680000e+02 2.597192e+04
8.690000e+02 2.697126e+04
8.700000e+02 2.800631e+04
8.710000e+02 2.907864e+04
8.720000e+02 3.018910e+04
8.730000e+02 3.133908e+04
8.740000e+02 3.252987e+04
8.750000e+02 3.376282e+04
8.760000e+02 3.503929e+04
8.770000e+02 3.636062e+04
8.780000e+02 3.772856e+04
8.790000e+02 3.914433e+04
8.800000e+02 4.060957e+04
8.810000e+02 4.212454e+04
8.820000e+02 4.369350e+04
8.830000e+02 4.531690e+04
8.840000e+02 4.699642e+04
8.850000e+02 4.873388e+04
8.860000e+02 5.053112e+04
8.870000e+02 5.239004e+04
8.880000e+02 5.431259e+04
8.890000e+02 5.630078e+04
8.900000e+02 5.835668e+04
8.910000e+02 6.048241e+04
8.920000e+02 6.252835e+04
8.930000e+02 6.495216e+04
8.940000e+02 6.730077e+04
8.950000e+02 6.972822e+04
8.960000e+02 7.223727e+04
8.970000e+02 7.483018e+04
8.980000e+02 7.750960e+04
8.990000e+02 8.027820e+04
9.000000e+02 8.313870e+04
9.010000e+02 8.609107e+04
9.020000e+02 8.914382e+04
9.030000e+02 9.229713e+04
9.040000e+02 9.555223e+04
9.050000e+02 9.891773e+04
9.060000e+02 1.023915e+05
9.070000e+02 1.059763e+05
9.080000e+02 1.096822e+05
9.090000e+02 1.135060e+05
9.100000e+02 1.174537e+05
9.110000e+02 1.215278e+05
9.120000e+02 1.257386e+05
9.130000e+02 1.272339e+05
9.140000e+02 1.375557e+05
9.150000e+02 6.299129e+05
9.160000e+02 2.925073e+06
9.170000e+02 3.153871e+06
9.180000e+02 2.960158e+06
9.190000e+02 3.604332e+06
9.200000e+02 3.766995e+06
9.210000e+02 1.611481e+05
9.220000e+02 3.981828e+06
9.230000e+02 3.538280e+06
9.240000e+02 3.394628e+06
9.250000e+02 4.227721e+06
9.260000e+02 4.153965e+06
9.270000e+02 4.526048e+06
9.280000e+02 4.651384e+06
9.290000e+02 3.826502e+06
9.300000e+02 4.822974e+06
9.310000e+02 4.757982e+06
9.320000e+02 5.170347e+06
9.330000e+02 5.297510e+06
9.340000e+02 5.442516e+06
9.350000e+02 1.637984e+06
9.360000e+02 5.698847e+06
9.370000e+02 1.101349e+06
9.380000e+02 3.819398e+06
9.390000e+02 6.161421e+06
9.400000e+02 6.333204e+06
9.410000e+02 3.851432e+06
9.420000e+02 6.659810e+06
9.430000e+02 6.832010e+06
9.440000e+02 4.143404e+06
9.450000e+02 7.176524e+06
9.460000e+02 7.348686e+06
9.470000e+02 5.220088e+06
9.480000e+02 7.391664e+06
9.490000e+02 7.788707e+06
9.500000e+02 1.634851e+06
9.510000e+02 7.797032e+06
9.520000e+02 8.520570e+06
9.530000e+02 8.681615e+06
9.540000e+02 7.037292e+06
9.550000e+02 9.180356e+06
9.560000e+02 9.069074e+06
9.570000e+02 7.553742e+06
9.580000e+02 9.774466e+06
9.590000e+02 1.016119e+07
9.600000e+02 2.116821e+06
9.610000e+02 1.067953e+07
9.620000e+02 1.091149e+07
9.630000e+02 1.120466e+07
9.640000e+02 7.239270e+05
9.650000e+02 1.038549e+07
9.660000e+02 1.203076e+07
9.670000e+02 1.226918e+07
9.680000e+02 1.248172e+07
9.690000e+02 1.279209e+07
9.700000e+02 1.316049e+07
9.710000e+02 1.332258e+07
9.720000e+02 1.207169e+07
9.730000e+02 1.189942e+07
9.740000e+02 1.421109e+07
9.750000e+02 1.479465e+07
9.760000e+02 1.520219e+07
9.770000e+02 1.557016e+07
9.780000e+02 1.591016e+07
9.790000e+02 1.633335e+07
9.800000e+02 1.671299e+07
9.810000e+02 1.711383e+07
9.820000e+02 1.737519e+07
9.830000e+02 1.790777e+07
9.840000e+02 5.157856e+06
9.850000e+02 1.875592e+07
9.860000e+02 1.918647e+07
9.870000e+02 1.962057e+07
9.880000e+02 1.995102e+07
9.890000e+02 1.352000e+07
9.900000e+02 1.846134e+06
9.910000e+02 2.125522e+07
9.920000e+02 1.979263e+07
9.930000e+02 2.094168e+07
9.940000e+02 3.010860e+06
9.950000e+02 4.144054e+06
9.960000e+02 6.304624e+06
9.970000e+02 4.608416e+06
9.980000e+02 2.503573e+07
9.990000e+02 2.504338e+07
1.000000e+03 2.629167e+07
1.001000e+03 2.688200e+07
1.002000e+03 2.746431e+07
1.003000e+03 2.466406e+07
1.004000e+03 2.868301e+07
1.005000e+03 2.557674e+07
1.006000e+03 2.999403e+07
1.007000e+03 3.064734e+07
1.008000e+03 3.128490e+07
1.009000e+03 3.070911e+07
1.010000e+03 3.270127e+07
1.011000e+03 3.340944e+07
1.012000e+03 3.412290e+07
1.013000e+03 3.486260e+07
1.014000e+03 3.537836e+07
1.015000e+03 3.552868e+07
1.016000e+03 3.705163e+07
1.017000e+03 3.768326e+07
1.018000e+03 3.864280e+07
1.019000e+03 3.935596e+07
1.020000e+03 4.014346e+07
1.021000e+03 3.092758e+07
1.022000e+03 3.963584e+07
1.023000e+03 4.127378e+07
1.024000e+03 3.929144e+07
1.025000e+03 2.673231e+07
1.026000e+03 1.022318e+07
1.027000e+03 3.852764e+07
1.028000e+03 1.269678e+07
1.029000e+03 4.739752e+07
1.030000e+03 4.846774e+07
1.031000e+03 5.063840e+07
1.032000e+03 5.148990e+07
1.033000e+03 2.841112e+07
1.034000e+03 5.430547e+07
1.035000e+03 1.118452e+07
1.036000e+03 5.524414e+07
1.037000e+03 6.075336e+06
1.038000e+03 5.911300e+07
1.039000e+03 5.977450e+07
1.040000e+03 6.165794e+07
1.041000e+03 6.270659e+07
1.042000e+03 6.265937e+07
1.043000e+03 6.449478e+07
1.044000e+03 6.672837e+07
1.045000e+03 6.818067e+07
1.046000e+03 6.973864e+07
1.047000e+03 7.113382e+07
1.048000e+03 7.197310e+07
1.049000e+03 7.266702e+07
1.050000e+03 7.561690e+07
1.051000e+03 7.714467e+07
1.052000e+03 7.872395e+07
1.053000e+03 7.879349e+07
1.054000e+03 8.137959e+07
1.055000e+03 8.352436e+07
1.056000e+03 8.525515e+07
1.057000e+03 8.691181e+07
1.058000e+03 8.863218e+07
1.059000e+03 9.037054e+07
1.060000e+03 9.214393e+07
1.061000e+03 9.407925e+07
1.062000e+03 9.592532e+07
1.063000e+03 5.593181e+07
1.064000e+03 1.872922e+07
1.065000e+03 1.023358e+08
1.066000e+03 1.003009e+08
1.067000e+03 1.022038e+08
1.068000e+03 1.090014e+08
1.069000e+03 1.105410e+08
1.070000e+03 1.114762e+08
1.071000e+03 1.156052e+08
1.072000e+03 1.178299e+08
1.073000e+03 1.197224e+08
1.074000e+03 1.224087e+08
1.075000e+03 1.247011e+08
1.076000e+03 1.271959e+08
1.077000e+03 1.294039e+08
1.078000e+03 1.320712e+08
1.079000e+03 1.340322e+08
1.080000e+03 1.370821e+08
1.081000e+03 1.398132e+08
1.082000e+03 1.423713e+08
1.083000e+03 1.450896e+08
1.084000e+03 1.418427e+08
1.085000e+03 1.140649e+08
1.086000e+03 1.535689e+08
1.087000e+03 1.562618e+08
1.088000e+03 1.586919e+08
1.089000e+03 1.623016e+08
1.090000e+03 1.651210e+08
1.091000e+03 1.683679e+08
1.092000e+03 1.715519e+08
1.093000e+03 1.745586e+08
1.094000e+03 1.779962e+08
1.095000e+03 1.810298e+08
1.096000e+03 1.845750e+08
1.097000e+03 1.862962e+08
1.098000e+03 1.892012e+08
1.099000e+03 1.947487e+08
1.100000e+03 1.951129e+08
1.101000e+03 1.829380e+08
1.102000e+03 4.369351e+08
1.103000e+03 1.517189e+09
1.104000e+03 5.193294e+08
1.105000e+03 1.993060e+08
1.106000e+03 3.717667e+09
1.107000e+03 3.201742e+09
1.108000e+03 3.834313e+09
1.109000e+03 2.187977e+09
1.110000e+03 5.056501e+08
1.111000e+03 4.733315e+08
1.112000e+03 3.520807e+09
1.113000e+03 4.119668e+09
1.114000e+03 1.531978e+08
1.115000e+03 3.961455e+09
1.116000e+03 4.128371e+09
1.117000e+03 1.571505e+08
1.118000e+03 3.391734e+09
1.119000e+03 4.391692e+09
1.120000e+03 4.382173e+09
1.121000e+03 3.354411e+09
1.122000e+03 4.459571e+07
1.123000e+03 4.420105e+08
1.124000e+03 4.675210e+09
1.125000e+03 1.666746e+09
1.126000e+03 4.836243e+09
1.127000e+03 4.630427e+09
1.128000e+03 2.191138e+09
1.129000e+03 4.900268e+09
1.130000e+03 3.939515e+09
1.131000e+03 5.193691e+09
1.132000e+03 1.341804e+08
1.133000e+03 4.552454e+09
1.134000e+03 5.132688e+09
1.135000e+03 8.305357e+07
1.136000e+03 5.372661e+09
1.137000e+03 5.599010e+09
1.138000e+03 5.683805e+09
1.139000e+03 5.596965e+09
1.140000e+03 8.816947e+07
1.141000e+03 5.933519e+09
1.142000e+03 5.623182e+09
1.143000e+03 6.056794e+09
1.144000e+03 6.161150e+09
1.145000e+03 4.563512e+09
1.146000e+03 6.310457e+09
1.147000e+03 6.250120e+09
1.148000e+03 6.239081e+09
1.149000e+03 6.550715e+09
1.150000e+03 6.301017e+09
1.151000e+03 6.653762e+09
1.152000e+03 6.734974e+09
1.153000e+03 1.374781e+09
1.154000e+03 2.141256e+08
1.155000e+03 5.251094e+09
1.156000e+03 1.966090e+09
1.157000e+03 7.207574e+09
1.158000e+03 1.485042e+08
1.159000e+03 6.120820e+09
1.160000e+03 7.308430e+09
1.161000e+03 7.643370e+09
1.162000e+03 9.382789e+08
1.163000e+03 7.571371e+09
1.164000e+03 2.643382e+08
1.165000e+03 8.016666e+09
1.166000e+03 7.972242e+09
1.167000e+03 7.594209e+09
1.168000e+03 8.333288e+09
1.169000e+03 8.104042e+09
1.170000e+03 8.545023e+09
1.171000e+03 8.648271e+09
1.172000e+03 8.318923e+09
1.173000e+03 8.835897e+09
1.174000e+03 8.461663e+09
1.175000e+03 2.757632e+08
1.176000e+03 1.988736e+08
1.177000e+03 9.138656e+09
1.178000e+03 8.298780e+09
1.179000e+03 9.412166e+09
1.180000e+03 7.187162e+09
1.181000e+03 9.381688e+09
1.182000e+03 9.686403e+09
1.183000e+03 9.751571e+09
1.184000e+03 9.825742e+09
1.185000e+03 9.517213e+09
1.186000e+03 9.894800e+09
1.187000e+03 9.982240e+09
1.188000e+03 9.691424e+09
1.189000e+03 2.143247e+08
1.190000e+03 1.624354e+09
1.191000e+03 9.742164e+09
1.192000e+03 9.763549e+09
1.193000e+03 1.799578e+08
1.194000e+03 2.460032e+08
1.195000e+03 5.228197e+09
1.196000e+03 9.531903e+09
1.197000e+03 1.070367e+10
1.198000e+03 1.075621e+10
1.199000e+03 1.035641e+10
1.200000e+03 9.020691e+09
1.201000e+03 9.434818e+09
1.202000e+03 9.227655e+09
1.203000e+03 9.412101e+09
1.204000e+03 8.442664e+09
1.205000e+03 7.776236e+09
1.206000e+03 6.314744e+09
1.207000e+03 2.818826e+09
1.208000e+03 5.034628e+09
1.209000e+03 3.790230e+09
1.210000e+03 4.023258e+08
1.211000e+03 2.216793e+09
1.212000e+03 1.455136e+09
1.213000e+03 8.871654e+08
1.214000e+03 5.082261e+08
1.215000e+03 3.104517e+08
1.216000e+03 2.764704e+08
1.217000e+03 4.427566e+08
1.218000e+03 7.952632e+08
1.219000e+03 1.390344e+09
1.220000e+03 2.230873e+09
1.221000e+03 3.285351e+09
1.222000e+03 4.506553e+09
1.223000e+03 5.852146e+09
1.224000e+03 7.284227e+09
1.225000e+03 8.749464e+09
1.226000e+03 1.021193e+10
1.227000e+03 1.169323e+10
1.228000e+03 1.332673e+10
1.229000e+03 1.479529e+10
1.230000e+03 1.627082e+10
1.231000e+03 1.773117e+10
1.232000e+03 1.920975e+10
1.233000e+03 2.058744e+10
1.234000e+03 1.264733e+10
1.235000e+03 2.316911e+10
1.236000e+03 2.434277e+10
1.237000e+03 2.562831e+10
1.238000e+03 2.680583e+10
1.239000e+03 2.794697e+10
1.240000e+03 2.627970e+10
1.241000e+03 4.752292e+10
1.242000e+03 2.522398e+10
1.243000e+03 3.892901e+10
1.244000e+03 1.544138e+10
1.245000e+03 2.356661e+10
1.246000e+03 7.731764e+10
1.247000e+03 8.301311e+10
1.248000e+03 1.682971e+10
1.249000e+03 2.171574e+10
1.250000e+03 9.790375e+10
1.251000e+03 1.012693e+11
1.252000e+03 1.018297e+11
1.253000e+03 1.126820e+11
1.254000e+03 1.147428e+11
1.255000e+03 1.198101e+11
1.256000e+03 1.222472e+11
1.257000e+03 1.301524e+11
1.258000e+03 1.288555e+11
1.259000e+03 1.240866e+11
1.260000e+03 9.604361e+10
1.261000e+03 6.383112e+08
1.262000e+03 9.943720e+09
1.263000e+03 1.466512e+11
1.264000e+03 1.233217e+11
1.265000e+03 5.973422e+08
1.266000e+03 1.546891e+11
1.267000e+03 1.683132e+11
