# wavelength_A flux
5.000000e+02 3.390477e-17
5.010000e+02 4.007373e-17
5.020000e+02 4.733264e-17
5.030000e+02 5.586829e-17
5.040000e+02 6.589851e-17
5.050000e+02 7.761839e-17
5.060000e+02 9.143623e-17
5.070000e+02 1.076421e-16
5.080000e+02 1.266363e-16
5.090000e+02 1.488840e-16
5.100000e+02 1.749257e-16
5.110000e+02 2.053884e-16
5.120000e+02 2.410001e-16
5.130000e+02 2.826045e-16
5.140000e+02 3.311792e-16
5.150000e+02 3.878568e-16
5.160000e+02 4.539460e-16
5.170000e+02 5.309653e-16
5.180000e+02 6.206597e-16
5.190000e+02 7.250581e-16
5.200000e+02 8.464940e-16
5.210000e+02 9.876621e-16
5.220000e+02 1.151679e-15
5.230000e+02 1.342097e-15
5.240000e+02 1.563067e-15
5.250000e+02 1.819327e-15
5.260000e+02 2.116339e-15
5.270000e+02 2.460381e-15
5.280000e+02 2.858665e-15
5.290000e+02 3.319527e-15
5.300000e+02 3.852327e-15
5.310000e+02 4.468122e-15
5.320000e+02 5.179367e-15
5.330000e+02 6.000392e-15
5.340000e+02 6.947606e-15
5.350000e+02 8.039793e-15
5.360000e+02 9.298441e-15
5.370000e+02 1.074689e-14
5.380000e+02 1.241688e-14
5.390000e+02 1.433680e-14
5.400000e+02 1.654447e-14
5.410000e+02 1.908171e-14
5.420000e+02 2.199595e-14
5.430000e+02 2.534161e-14
5.440000e+02 2.918046e-14
5.450000e+02 3.358285e-14
5.460000e+02 3.862901e-14
5.470000e+02 4.440956e-14
5.480000e+02 5.102845e-14
5.490000e+02 5.860316e-14
5.500000e+02 6.726724e-14
5.510000e+02 7.717228e-14
5.520000e+02 8.849028e-14
5.530000e+02 1.014162e-13
5.540000e+02 1.161711e-13
5.550000e+02 1.330053e-13
5.560000e+02 1.522023e-13
5.570000e+02 1.740828e-13
5.580000e+02 1.990096e-13
5.590000e+02 2.273931e-13
5.600000e+02 2.596968e-13
5.610000e+02 2.964441e-13
5.620000e+02 3.382265e-13
5.630000e+02 3.857108e-13
5.640000e+02 4.396495e-13
5.650000e+02 5.008908e-13
5.660000e+02 5.703908e-13
5.670000e+02 6.492260e-13
5.680000e+02 7.386086e-13
5.690000e+02 8.399027e-13
5.700000e+02 9.546426e-13
5.710000e+02 1.084554e-12
5.720000e+02 1.231574e-12
5.730000e+02 1.397883e-12
5.740000e+02 1.585924e-12
5.750000e+02 1.798444e-12
5.760000e+02 2.038508e-12
5.770000e+02 2.309602e-12
5.780000e+02 2.615564e-12
5.790000e+02 2.960740e-12
5.800000e+02 3.349985e-12
5.810000e+02 3.788735e-12
5.820000e+02 4.283070e-12
5.830000e+02 4.839791e-12
5.840000e+02 5.466413e-12
5.850000e+02 6.171699e-12
5.860000e+02 6.964922e-12
5.870000e+02 7.856714e-12
5.880000e+02 8.858925e-12
5.890000e+02 9.984749e-12
5.900000e+02 1.124894e-11
5.910000e+02 1.266788e-11
5.920000e+02 1.425988e-11
5.930000e+02 1.604531e-11
5.940000e+02 1.804685e-11
5.950000e+02 2.028975e-11
5.960000e+02 2.280212e-11
5.970000e+02 2.561519e-11
5.980000e+02 2.876370e-11
5.990000e+02 3.228625e-11
6.000000e+02 3.622572e-11
6.010000e+02 4.062943e-11
6.020000e+02 4.555114e-11
6.030000e+02 5.104859e-11
6.040000e+02 5.718713e-11
6.050000e+02 6.403889e-11
6.060000e+02 7.168380e-11
6.070000e+02 8.021044e-11
6.080000e+02 8.971689e-11
6.090000e+02 1.003118e-10
6.100000e+02 1.121152e-10
6.110000e+02 1.252602e-10
6.120000e+02 1.398938e-10
6.130000e+02 1.561786e-10
6.140000e+02 1.742941e-10
6.150000e+02 1.944390e-10
6.160000e+02 2.168321e-10
6.170000e+02 2.417157e-10
6.180000e+02 2.693565e-10
6.190000e+02 3.000492e-10
6.200000e+02 3.341186e-10
6.210000e+02 3.719226e-10
6.220000e+02 4.138558e-10
6.230000e+02 4.603530e-10
6.240000e+02 5.118929e-10
6.250000e+02 5.690022e-10
6.260000e+02 6.322612e-10
6.270000e+02 7.023077e-10
6.280000e+02 7.798435e-10
6.290000e+02 8.656398e-10
6.300000e+02 9.605448e-10
6.310000e+02 1.065442e-09
6.320000e+02 1.181498e-09
6.330000e+02 1.309689e-09
6.340000e+02 1.451306e-09
6.350000e+02 1.607690e-09
6.360000e+02 1.780324e-09
6.370000e+02 1.970859e-09
6.380000e+02 2.181051e-09
6.390000e+02 2.412865e-09
6.400000e+02 2.668442e-09
6.410000e+02 2.950128e-09
6.420000e+02 3.260489e-09
6.430000e+02 3.602336e-09
6.440000e+02 3.978743e-09
6.450000e+02 4.393073e-09
6.460000e+02 4.849004e-09
6.470000e+02 5.350556e-09
6.480000e+02 5.902121e-09
6.490000e+02 6.508497e-09
6.500000e+02 7.174926e-09
6.510000e+02 7.907134e-09
6.520000e+02 8.711361e-09
6.530000e+02 9.594426e-09
6.540000e+02 1.056376e-08
6.550000e+02 1.162748e-08
6.560000e+02 1.279441e-08
6.570000e+02 1.407415e-08
6.580000e+02 1.547732e-08
6.590000e+02 1.701523e-08
6.600000e+02 1.870037e-08
6.610000e+02 2.054630e-08
6.620000e+02 2.256775e-08
6.630000e+02 2.478079e-08
6.640000e+02 2.720287e-08
6.650000e+02 2.985296e-08
6.660000e+02 3.275172e-08
6.670000e+02 3.592156e-08
6.680000e+02 3.938685e-08
6.690000e+02 4.317405e-08
6.700000e+02 4.731191e-08
6.710000e+02 5.183163e-08
6.720000e+02 5.676707e-08
6.730000e+02 6.215497e-08
6.740000e+02 6.803519e-08
6.750000e+02 7.445095e-08
6.760000e+02 8.144912e-08
6.770000e+02 8.908045e-08
6.780000e+02 9.740001e-08
6.790000e+02 1.064674e-07
6.800000e+02 1.163472e-07
6.810000e+02 1.271093e-07
6.820000e+02 1.388293e-07
6.830000e+02 1.515892e-07
6.840000e+02 1.654776e-07
6.850000e+02 1.805902e-07
6.860000e+02 1.970307e-07
6.870000e+02 2.149111e-07
6.880000e+02 2.343526e-07
6.890000e+02 2.554857e-07
6.900000e+02 2.784520e-07
6.910000e+02 3.034040e-07
6.920000e+02 3.305065e-07
6.930000e+02 3.599374e-07
6.940000e+02 3.918885e-07
6.950000e+02 4.265671e-07
6.960000e+02 4.641966e-07
6.970000e+02 5.050165e-07
6.980000e+02 5.492904e-07
6.990000e+02 5.972945e-07
7.000000e+02 6.493317e-07
7.010000e+02 7.057271e-07
7.020000e+02 7.668307e-07
7.030000e+02 8.330196e-07
7.040000e+02 9.046996e-07
7.050000e+02 9.823076e-07
7.060000e+02 1.066314e-06
7.070000e+02 1.157224e-06
7.080000e+02 1.255582e-06
7.090000e+02 1.361972e-06
7.100000e+02 1.477025e-06
7.110000e+02 1.601416e-06
7.120000e+02 1.735871e-06
7.130000e+02 1.881171e-06
7.140000e+02 2.038154e-06
7.150000e+02 2.207721e-06
7.160000e+02 2.390838e-06
7.170000e+02 2.588542e-06
7.180000e+02 2.801943e-06
7.190000e+02 3.032252e-06
7.200000e+02 3.280733e-06
7.210000e+02 3.548766e-06
7.220000e+02 3.837826e-06
7.230000e+02 4.149491e-06
7.240000e+02 4.485457e-06
7.250000e+02 4.847537e-06
7.260000e+02 5.237675e-06
7.270000e+02 5.657954e-06
7.280000e+02 6.110604e-06
7.290000e+02 6.598011e-06
7.300000e+02 7.122731e-06
7.310000e+02 7.687499e-06
7.320000e+02 8.295242e-06
7.330000e+02 8.949089e-06
7.340000e+02 9.652388e-06
7.350000e+02 1.040872e-05
7.360000e+02 1.122191e-05
7.370000e+02 1.209605e-05
7.380000e+02 1.303552e-05
7.390000e+02 1.404498e-05
7.400000e+02 1.512942e-05
7.410000e+02 1.629418e-05
7.420000e+02 1.754493e-05
7.430000e+02 1.888778e-05
7.440000e+02 2.032918e-05
7.450000e+02 2.187607e-05
7.460000e+02 2.353582e-05
7.470000e+02 2.531631e-05
7.480000e+02 2.722595e-05
7.490000e+02 2.927369e-05
7.500000e+02 3.146908e-05
7.510000e+02 3.382230e-05
7.520000e+02 3.634421e-05
7.530000e+02 3.904635e-05
7.540000e+02 4.194104e-05
7.550000e+02 4.504141e-05
7.560000e+02 4.836142e-05
7.570000e+02 5.191574e-05
7.580000e+02 5.572079e-05
7.590000e+02 5.979279e-05
7.600000e+02 6.415001e-05
7.610000e+02 6.881139e-05
7.620000e+02 7.379727e-05
7.630000e+02 7.912920e-05
7.640000e+02 8.483016e-05
7.650000e+02 9.092454e-05
7.660000e+02 9.743829e-05
7.670000e+02 1.043989e-04
7.680000e+02 1.118357e-04
7.690000e+02 1.197800e-04
7.700000e+02 1.282645e-04
7.710000e+02 1.373245e-04
7.720000e+02 1.469973e-04
7.730000e+02 1.573223e-04
7.740000e+02 1.683417e-04
7.750000e+02 1.800999e-04
7.760000e+02 1.926404e-04
7.770000e+02 2.060250e-04
7.780000e+02 2.202953e-04
7.790000e+02 2.355116e-04
7.800000e+02 2.517337e-04
7.810000e+02 2.690252e-04
7.820000e+02 2.874531e-04
7.830000e+02 3.070890e-04
7.840000e+02 3.280081e-04
7.850000e+02 3.502907e-04
7.860000e+02 3.740214e-04
7.870000e+02 3.992904e-04
7.880000e+02 4.261920e-04
7.890000e+02 4.548274e-04
7.900000e+02 4.853029e-04
7.910000e+02 5.177315e-04
7.920000e+02 5.522323e-04
7.930000e+02 5.889318e-04
7.940000e+02 6.279634e-04
7.950000e+02 6.694685e-04
7.960000e+02 7.135966e-04
7.970000e+02 7.605056e-04
7.980000e+02 8.103625e-04
7.990000e+02 8.633440e-04
8.000000e+02 9.196366e-04
8.010000e+02 9.794374e-04
8.020000e+02 1.042955e-03
8.030000e+02 1.110410e-03
8.040000e+02 1.182034e-03
8.050000e+02 1.258073e-03
8.060000e+02 1.338786e-03
8.070000e+02 1.424447e-03
8.080000e+02 1.515344e-03
8.090000e+02 1.611784e-03
8.100000e+02 1.714086e-03
8.110000e+02 1.822592e-03
8.120000e+02 1.937658e-03
8.130000e+02 2.059664e-03
8.140000e+02 2.189007e-03
8.150000e+02 2.326107e-03
8.160000e+02 2.471408e-03
8.170000e+02 2.625375e-03
8.180000e+02 2.788502e-03
8.190000e+02 2.961308e-03
8.200000e+02 3.144337e-03
8.210000e+02 3.338167e-03
8.220000e+02 3.543403e-03
8.230000e+02 3.760685e-03
8.240000e+02 3.990685e-03
8.250000e+02 4.234111e-03
8.260000e+02 4.491710e-03
8.270000e+02 4.764264e-03
8.280000e+02 5.052602e-03
8.290000e+02 5.357592e-03
8.300000e+02 5.680149e-03
8.310000e+02 6.021236e-03
8.320000e+02 6.381863e-03
8.330000e+02 6.763096e-03
8.340000e+02 7.166055e-03
8.350000e+02 7.591793e-03
8.360000e+02 8.041911e-03
8.370000e+02 8.517361e-03
8.380000e+02 9.019599e-03
8.390000e+02 9.550107e-03
8.400000e+02 1.011036e-02
8.410000e+02 1.070195e-02
8.420000e+02 1.132651e-02
8.430000e+02 1.198590e-02
8.440000e+02 1.268184e-02
8.450000e+02 1.341632e-02
8.460000e+02 1.419134e-02
8.470000e+02 1.500903e-02
8.480000e+02 1.587164e-02
8.490000e+02 1.678150e-02
8.500000e+02 1.774106e-02
8.510000e+02 1.875292e-02
8.520000e+02 1.981976e-02
8.530000e+02 2.094445e-02
8.540000e+02 2.212995e-02
8.550000e+02 2.337938e-02
8.560000e+02 2.469600e-02
8.570000e+02 2.608327e-02
8.580000e+02 2.754476e-02
8.590000e+02 2.908426e-02
8.600000e+02 3.070571e-02
8.610000e+02 3.241325e-02
8.620000e+02 3.421123e-02
8.630000e+02 3.610417e-02
8.640000e+02 3.809687e-02
8.650000e+02 4.019426e-02
8.660000e+02 4.240163e-02
8.670000e+02 4.472440e-02
8.680000e+02 4.716830e-02
8.690000e+02 4.973932e-02
8.700000e+02 5.244374e-02
8.710000e+02 5.528812e-02
8.720000e+02 5.827933e-02
8.730000e+02 6.142456e-02
8.740000e+02 6.473131e-02
8.750000e+02 6.820748e-02
8.760000e+02 7.186127e-02
8.770000e+02 7.570126e-02
8.780000e+02 7.973653e-02
8.790000e+02 8.397642e-02
8.800000e+02 8.843077e-02
8.810000e+02 9.310987e-02
8.820000e+02 9.802447e-02
8.830000e+02 1.031858e-01
8.840000e+02 1.086056e-01
8.850000e+02 1.142961e-01
8.860000e+02 1.202701e-01
8.870000e+02 1.265411e-01
8.880000e+02 1.331230e-01
8.890000e+02 1.400303e-01
8.900000e+02 1.472784e-01
8.910000e+02 1.548831e-01
8.920000e+02 1.628269e-01
8.930000e+02 1.712298e-01
8.940000e+02 1.800071e-01
8.950000e+02 1.892121e-01
8.960000e+02 1.988644e-01
8.970000e+02 2.089846e-01
8.980000e+02 2.195943e-01
8.990000e+02 2.307157e-01
9.000000e+02 2.423722e-01
9.010000e+02 2.545883e-01
9.020000e+02 2.673893e-01
9.030000e+02 2.808017e-01
9.040000e+02 2.948532e-01
9.050000e+02 3.095725e-01
9.060000e+02 3.249898e-01
9.070000e+02 3.411356e-01
9.080000e+02 3.580444e-01
9.090000e+02 3.757485e-01
9.100000e+02 3.942837e-01
9.110000e+02 4.136873e-01
9.120000e+02 4.339987e-01
9.130000e+02 4.545672e-01
9.140000e+02 4.798899e-01
9.150000e+02 3.943278e+00
9.160000e+02 6.053998e+00
9.170000e+02 5.986529e+00
9.180000e+02 6.456970e+00
9.190000e+02 6.916813e+00
9.200000e+02 7.209516e+00
9.210000e+02 6.637026e-01
9.220000e+02 7.764890e+00
9.230000e+02 7.895931e+00
9.240000e+02 7.690833e+00
9.250000e+02 8.440472e+00
9.260000e+02 8.979924e+00
9.270000e+02 8.849601e+00
9.280000e+02 9.833544e+00
9.290000e+02 1.020858e+01
9.300000e+02 1.038148e+01
9.310000e+02 1.007040e+01
9.320000e+02 1.146878e+01
9.330000e+02 1.189588e+01
9.340000e+02 1.236688e+01
9.350000e+02 8.693075e-01
9.360000e+02 1.133154e+01
9.370000e+02 9.937635e-01
9.380000e+02 4.029392e+00
9.390000e+02 1.418636e+01
9.400000e+02 1.550856e+01
9.410000e+02 1.807598e+00
9.420000e+02 1.673040e+01
9.430000e+02 1.683850e+01
9.440000e+02 1.212904e+01
9.450000e+02 1.869174e+01
9.460000e+02 1.933040e+01
9.470000e+02 1.256420e+01
9.480000e+02 1.275043e+01
9.490000e+02 2.129823e+01
9.500000e+02 1.769563e+00
9.510000e+02 2.249794e+01
9.520000e+02 2.417798e+01
9.530000e+02 2.067879e+01
9.540000e+02 1.494903e+01
9.550000e+02 2.654323e+01
9.560000e+02 1.611730e+01
9.570000e+02 8.165619e+00
9.580000e+02 1.483207e+01
9.590000e+02 3.176488e+01
9.600000e+02 2.766064e+00
9.610000e+02 3.401428e+01
9.620000e+02 3.496024e+01
9.630000e+02 3.570265e+01
9.640000e+02 4.542040e+00
9.650000e+02 2.690576e+01
9.660000e+02 3.990668e+01
9.670000e+02 3.819629e+01
9.680000e+02 3.644971e+01
9.690000e+02 4.466799e+01
9.700000e+02 4.648630e+01
9.710000e+02 4.312900e+01
9.720000e+02 3.911253e+01
9.730000e+02 4.145362e+01
9.740000e+02 5.256847e+01
9.750000e+02 5.453577e+01
9.760000e+02 5.852382e+01
9.770000e+02 6.067152e+01
9.780000e+02 6.209795e+01
9.790000e+02 6.543020e+01
9.800000e+02 6.771774e+01
9.810000e+02 6.946566e+01
9.820000e+02 6.896294e+01
9.830000e+02 7.525535e+01
9.840000e+02 1.435680e+01
9.850000e+02 7.884260e+01
9.860000e+02 8.152399e+01
9.870000e+02 8.655487e+01
9.880000e+02 6.522392e+01
9.890000e+02 7.206177e+01
9.900000e+02 1.105902e+01
9.910000e+02 8.464877e+01
9.920000e+02 3.912386e+01
9.930000e+02 9.406837e+01
9.940000e+02 1.438278e+01
9.950000e+02 1.384483e+01
9.960000e+02 9.561047e+01
9.970000e+02 1.250546e+01
9.980000e+02 1.248603e+02
9.990000e+02 1.025905e+02
1.000000e+03 1.333612e+02
1.001000e+03 1.399090e+02
1.002000e+03 1.446035e+02
1.003000e+03 1.351641e+02
1.004000e+03 1.159165e+02
1.005000e+03 1.441085e+02
1.006000e+03 1.652673e+02
1.007000e+03 1.707755e+02
1.008000e+03 1.758840e+02
1.009000e+03 1.710723e+02
1.010000e+03 1.883758e+02
1.011000e+03 1.948565e+02
1.012000e+03 2.010746e+02
1.013000e+03 2.076024e+02
1.014000e+03 8.199991e+01
1.015000e+03 1.469315e+02
1.016000e+03 2.163559e+02
1.017000e+03 9.005093e+01
1.018000e+03 2.297612e+02
1.019000e+03 1.687770e+02
1.020000e+03 2.579417e+02
1.021000e+03 5.511444e+01
1.022000e+03 1.872455e+02
1.023000e+03 1.945500e+02
1.024000e+03 2.280992e+02
1.025000e+03 7.166988e+01
1.026000e+03 4.357427e+01
1.027000e+03 2.299765e+02
1.028000e+03 4.310165e+01
1.029000e+03 1.377805e+02
1.030000e+03 3.410056e+02
1.031000e+03 3.580220e+02
1.032000e+03 3.727389e+02
1.033000e+03 5.564532e+01
1.034000e+03 4.017934e+02
1.035000e+03 6.328946e+01
1.036000e+03 1.793491e+02
1.037000e+03 4.434019e+02
1.038000e+03 4.638138e+02
1.039000e+03 4.719329e+02
1.040000e+03 4.938000e+02
1.041000e+03 4.958281e+02
1.042000e+03 5.253605e+02
1.043000e+03 4.768921e+02
1.044000e+03 5.606417e+02
1.045000e+03 5.761339e+02
1.046000e+03 5.966168e+02
1.047000e+03 6.081824e+02
1.048000e+03 5.228692e+02
1.049000e+03 6.117767e+02
1.050000e+03 6.626661e+02
1.051000e+03 6.722639e+02
1.052000e+03 7.183296e+02
1.053000e+03 7.391970e+02
1.054000e+03 3.018266e+02
1.055000e+03 7.740739e+02
1.056000e+03 8.128576e+02
1.057000e+03 8.317994e+02
1.058000e+03 8.405757e+02
1.059000e+03 8.154872e+02
1.060000e+03 7.547485e+02
1.061000e+03 9.415670e+02
1.062000e+03 9.240807e+02
1.063000e+03 1.467947e+02
1.064000e+03 1.931696e+02
1.065000e+03 4.755176e+02
1.066000e+03 6.141685e+02
1.067000e+03 9.821984e+02
1.068000e+03 1.167532e+03
1.069000e+03 8.220093e+02
1.070000e+03 1.227153e+03
1.071000e+03 1.276893e+03
1.072000e+03 1.315027e+03
1.073000e+03 7.317448e+02
1.074000e+03 1.379066e+03
1.075000e+03 1.409740e+03
1.076000e+03 1.478580e+03
1.077000e+03 7.957732e+02
1.078000e+03 1.499957e+03
1.079000e+03 1.586842e+03
1.080000e+03 1.641514e+03
1.081000e+03 1.706062e+03
1.082000e+03 1.751166e+03
1.083000e+03 1.798067e+03
1.084000e+03 1.860899e+03
1.085000e+03 9.697994e+02
1.086000e+03 1.971676e+03
1.087000e+03 1.820141e+03
1.088000e+03 2.071069e+03
1.089000e+03 2.144005e+03
1.090000e+03 2.131112e+03
1.091000e+03 2.193092e+03
1.092000e+03 2.324970e+03
1.093000e+03 2.391180e+03
1.094000e+03 2.453438e+03
1.095000e+03 2.530476e+03
1.096000e+03 2.282333e+03
1.097000e+03 2.616900e+03
1.098000e+03 2.725402e+03
1.099000e+03 2.789323e+03
1.100000e+03 2.203911e+03
1.101000e+03 2.340959e+03
1.102000e+03 7.114478e+03
1.103000e+03 2.776817e+04
1.104000e+03 9.215965e+03
1.105000e+03 2.995754e+03
1.106000e+03 5.309523e+04
1.107000e+03 9.312895e+03
1.108000e+03 5.866915e+04
1.109000e+03 3.016534e+04
1.110000e+03 1.915229e+04
1.111000e+03 8.712348e+03
1.112000e+03 5.813771e+04
1.113000e+03 6.487516e+04
1.114000e+03 2.166678e+03
1.115000e+03 4.603863e+04
1.116000e+03 4.165457e+04
1.117000e+03 2.179551e+03
1.118000e+03 3.701605e+04
1.119000e+03 7.137066e+04
1.120000e+03 4.441268e+04
1.121000e+03 7.238252e+04
1.122000e+03 1.392969e+03
1.123000e+03 9.315852e+03
1.124000e+03 7.979502e+04
1.125000e+03 5.230113e+04
1.126000e+03 8.353859e+04
1.127000e+03 8.145611e+04
1.128000e+03 3.757501e+04
1.129000e+03 8.438904e+04
1.130000e+03 8.261727e+04
1.131000e+03 9.069077e+04
1.132000e+03 1.709305e+03
1.133000e+03 6.595095e+04
1.134000e+03 9.081782e+04
1.135000e+03 1.501656e+03
1.136000e+03 8.777170e+04
1.137000e+03 1.018805e+05
1.138000e+03 1.003403e+05
1.139000e+03 1.039613e+05
1.140000e+03 1.963918e+03
1.141000e+03 1.098971e+05
1.142000e+03 1.120671e+05
1.143000e+03 1.113041e+05
1.144000e+03 1.158557e+05
1.145000e+03 3.666986e+04
1.146000e+03 1.208639e+05
1.147000e+03 1.207468e+05
1.148000e+03 8.749384e+04
1.149000e+03 1.264930e+05
1.150000e+03 1.272907e+05
1.151000e+03 1.311794e+05
1.152000e+03 1.345982e+05
1.153000e+03 5.454896e+04
1.154000e+03 1.209543e+05
1.155000e+03 1.407140e+05
1.156000e+03 5.686230e+04
1.157000e+03 1.459466e+05
1.158000e+03 3.181281e+03
1.159000e+03 1.363759e+05
1.160000e+03 1.505868e+05
1.161000e+03 1.582827e+05
1.162000e+03 4.763387e+04
1.163000e+03 1.521888e+05
1.164000e+03 3.700625e+03
1.165000e+03 1.700962e+05
1.166000e+03 1.729074e+05
1.167000e+03 1.762910e+05
1.168000e+03 1.824532e+05
1.169000e+03 1.807922e+05
1.170000e+03 1.887180e+05
1.171000e+03 1.941159e+05
1.172000e+03 1.933636e+05
1.173000e+03 2.033686e+05
1.174000e+03 1.208603e+05
1.175000e+03 5.291906e+03
1.176000e+03 6.265266e+03
1.177000e+03 2.212753e+05
1.178000e+03 2.237547e+05
1.179000e+03 2.300293e+05
1.180000e+03 1.914486e+05
1.181000e+03 2.388742e+05
1.182000e+03 2.450307e+05
1.183000e+03 2.479890e+05
1.184000e+03 2.518608e+05
1.185000e+03 2.575662e+05
1.186000e+03 2.236437e+05
1.187000e+03 2.666102e+05
1.188000e+03 2.623979e+05
1.189000e+03 8.377266e+03
1.190000e+03 6.101645e+04
1.191000e+03 2.776380e+05
1.192000e+03 2.814158e+05
1.193000e+03 1.082670e+04
1.194000e+03 9.299484e+03
1.195000e+03 2.511302e+05
1.196000e+03 2.899423e+05
1.197000e+03 5.356886e+05
1.198000e+03 4.694314e+05
1.199000e+03 5.151616e+05
1.200000e+03 4.204074e+05
1.201000e+03 4.737605e+05
1.202000e+03 4.567784e+05
1.203000e+03 6.554831e+05
1.204000e+03 5.159167e+05
1.205000e+03 5.153808e+05
1.206000e+03 4.869054e+05
1.207000e+03 2.683659e+04
1.208000e+03 3.061216e+05
1.209000e+03 2.060038e+05
1.210000e+03 1.514443e+04
1.211000e+03 9.157456e+04
1.212000e+03 4.920462e+04
1.213000e+03 2.565505e+04
1.214000e+03 1.500263e+04
1.215000e+03 1.611887e+04
1.216000e+03 1.918784e+04
1.217000e+03 1.503273e+04
1.218000e+03 2.321555e+04
1.219000e+03 4.703201e+04
1.220000e+03 9.114316e+04
1.221000e+03 1.620041e+05
1.222000e+03 2.585481e+05
1.223000e+03 3.768088e+05
1.224000e+03 5.095528e+05
1.225000e+03 5.637282e+05
1.226000e+03 8.378749e+05
1.227000e+03 9.931144e+05
1.228000e+03 1.115737e+06
1.229000e+03 1.355937e+06
1.230000e+03 1.386684e+06
1.231000e+03 1.486399e+06
1.232000e+03 1.887061e+06
1.233000e+03 2.060935e+06
1.234000e+03 1.085322e+06
1.235000e+03 2.379596e+06
1.236000e+03 2.275395e+06
1.237000e+03 2.684289e+06
1.238000e+03 2.821685e+06
1.239000e+03 2.938086e+06
1.240000e+03 2.023131e+06
1.241000e+03 3.633140e+06
1.242000e+03 3.028895e+06
1.243000e+03 3.766214e+06
1.244000e+03 2.400912e+06
1.245000e+03 3.151149e+06
1.246000e+03 4.767627e+06
1.247000e+03 4.887458e+06
1.248000e+03 2.352007e+06
1.249000e+03 3.246748e+06
1.250000e+03 4.983876e+06
1.251000e+03 5.651584e+06
1.252000e+03 5.678938e+06
1.253000e+03 5.968325e+06
1.254000e+03 6.054132e+06
1.255000e+03 5.819100e+06
1.256000e+03 6.255550e+06
1.257000e+03 6.178449e+06
1.258000e+03 6.352492e+06
1.259000e+03 6.694036e+06
1.260000e+03 6.238606e+06
1.261000e+03 6.026958e+04
1.262000e+03 2.052800e+06
1.263000e+03 7.100436e+06
1.264000e+03 6.993084e+06
1.265000e+03 6.711475e+04
1.266000e+03 7.796476e+06
1.267000e+03 7.872891e+06
