# wavelength_A flux
5.000000e+02 2.886115e-03
5.010000e+02 3.199131e-03
5.020000e+02 3.544569e-03
5.030000e+02 3.925635e-03
5.040000e+02 4.345824e-03
5.050000e+02 4.894795e-03
5.060000e+02 5.413487e-03
5.070000e+02 5.984657e-03
5.080000e+02 6.613359e-03
5.090000e+02 7.305273e-03
5.100000e+02 8.066108e-03
5.110000e+02 8.902575e-03
5.120000e+02 9.821817e-03
5.130000e+02 1.083163e-02
5.140000e+02 1.194052e-02
5.150000e+02 1.315762e-02
5.160000e+02 1.449327e-02
5.170000e+02 1.595772e-02
5.180000e+02 1.756426e-02
5.190000e+02 1.932453e-02
5.200000e+02 2.125304e-02
5.210000e+02 2.336504e-02
5.220000e+02 2.567512e-02
5.230000e+02 2.820740e-02
5.240000e+02 3.097521e-02
5.250000e+02 3.400249e-02
5.260000e+02 3.731137e-02
5.270000e+02 4.092712e-02
5.280000e+02 4.487678e-02
5.290000e+02 4.918202e-02
5.300000e+02 5.389742e-02
5.310000e+02 5.903441e-02
5.320000e+02 6.463800e-02
5.330000e+02 7.074809e-02
5.340000e+02 7.740828e-02
5.350000e+02 8.466551e-02
5.360000e+02 9.257023e-02
5.370000e+02 1.002444e-01
5.380000e+02 1.105474e-01
5.390000e+02 1.207451e-01
5.400000e+02 1.318372e-01
5.410000e+02 1.438913e-01
5.420000e+02 1.570093e-01
5.430000e+02 1.712589e-01
5.440000e+02 1.867379e-01
5.450000e+02 2.035481e-01
5.460000e+02 2.217725e-01
5.470000e+02 2.416045e-01
5.480000e+02 2.630927e-01
5.490000e+02 2.864003e-01
5.500000e+02 3.116706e-01
5.510000e+02 3.390616e-01
5.520000e+02 3.687414e-01
5.530000e+02 4.008914e-01
5.540000e+02 4.357062e-01
5.550000e+02 4.733951e-01
5.560000e+02 5.141829e-01
5.570000e+02 5.583107e-01
5.580000e+02 6.060375e-01
5.590000e+02 6.576412e-01
5.600000e+02 7.134199e-01
5.610000e+02 7.736934e-01
5.620000e+02 8.388044e-01
5.630000e+02 9.091202e-01
5.640000e+02 9.850346e-01
5.650000e+02 1.066968e+00
5.660000e+02 1.155375e+00
5.670000e+02 1.250738e+00
5.680000e+02 1.353573e+00
5.690000e+02 1.464435e+00
5.700000e+02 1.583913e+00
5.710000e+02 1.712650e+00
5.720000e+02 1.851314e+00
5.730000e+02 2.000633e+00
5.740000e+02 2.161376e+00
5.750000e+02 2.334403e+00
5.760000e+02 2.520331e+00
5.770000e+02 2.720761e+00
5.780000e+02 2.936066e+00
5.790000e+02 3.167531e+00
5.800000e+02 3.416300e+00
5.810000e+02 3.683590e+00
5.820000e+02 3.970707e+00
5.830000e+02 4.279014e+00
5.840000e+02 4.609137e+00
5.850000e+02 4.965175e+00
5.860000e+02 5.346673e+00
5.870000e+02 5.755723e+00
5.880000e+02 6.194410e+00
5.890000e+02 6.664702e+00
5.900000e+02 7.168966e+00
5.910000e+02 7.709296e+00
5.920000e+02 8.288205e+00
5.930000e+02 8.908287e+00
5.940000e+02 9.572304e+00
5.950000e+02 1.028296e+01
5.960000e+02 1.104407e+01
5.970000e+02 1.185825e+01
5.980000e+02 1.272926e+01
5.990000e+02 1.366083e+01
6.000000e+02 1.465693e+01
6.010000e+02 1.572126e+01
6.020000e+02 1.685981e+01
6.030000e+02 1.807578e+01
6.040000e+02 1.937477e+01
6.050000e+02 2.076206e+01
6.060000e+02 2.224327e+01
6.070000e+02 2.382454e+01
6.080000e+02 2.551206e+01
6.090000e+02 2.731263e+01
6.100000e+02 2.923335e+01
6.110000e+02 3.128180e+01
6.120000e+02 3.346594e+01
6.130000e+02 3.579424e+01
6.140000e+02 3.827563e+01
6.150000e+02 4.091965e+01
6.160000e+02 4.373624e+01
6.170000e+02 4.673604e+01
6.180000e+02 4.993024e+01
6.190000e+02 5.333068e+01
6.200000e+02 5.694990e+01
6.210000e+02 6.080111e+01
6.220000e+02 6.489825e+01
6.230000e+02 6.925616e+01
6.240000e+02 7.389031e+01
6.250000e+02 7.881734e+01
6.260000e+02 8.405453e+01
6.270000e+02 8.962023e+01
6.280000e+02 9.553379e+01
6.290000e+02 1.018156e+02
6.300000e+02 1.084873e+02
6.310000e+02 1.155684e+02
6.320000e+02 1.230921e+02
6.330000e+02 1.310742e+02
6.340000e+02 1.395450e+02
6.350000e+02 1.485319e+02
6.360000e+02 1.579403e+02
6.370000e+02 1.681747e+02
6.380000e+02 1.788943e+02
6.390000e+02 1.902580e+02
6.400000e+02 2.023024e+02
6.410000e+02 2.150654e+02
6.420000e+02 2.285874e+02
6.430000e+02 2.429107e+02
6.440000e+02 2.580798e+02
6.450000e+02 2.741412e+02
6.460000e+02 2.911449e+02
6.470000e+02 3.091412e+02
6.480000e+02 3.281861e+02
6.490000e+02 3.483362e+02
6.500000e+02 3.696513e+02
6.510000e+02 3.921948e+02
6.520000e+02 4.160328e+02
6.530000e+02 4.412350e+02
6.540000e+02 4.678743e+02
6.550000e+02 4.960277e+02
6.560000e+02 5.257755e+02
6.570000e+02 5.571957e+02
6.580000e+02 5.903967e+02
6.590000e+02 6.254519e+02
6.600000e+02 6.624646e+02
6.610000e+02 7.015393e+02
6.620000e+02 7.427812e+02
6.630000e+02 7.863020e+02
6.640000e+02 8.322227e+02
6.650000e+02 8.806635e+02
6.660000e+02 9.317581e+02
6.670000e+02 9.856380e+02
6.680000e+02 1.042447e+03
6.690000e+02 1.102334e+03
6.700000e+02 1.165454e+03
6.710000e+02 1.231971e+03
6.720000e+02 1.302029e+03
6.730000e+02 1.375885e+03
6.740000e+02 1.453648e+03
6.750000e+02 1.535540e+03
6.760000e+02 1.621764e+03
6.770000e+02 1.712536e+03
6.780000e+02 1.808079e+03
6.790000e+02 1.908627e+03
6.800000e+02 2.014425e+03
6.810000e+02 2.125728e+03
6.820000e+02 2.242804e+03
6.830000e+02 2.365932e+03
6.840000e+02 2.495403e+03
6.850000e+02 2.631520e+03
6.860000e+02 2.774610e+03
6.870000e+02 2.924983e+03
6.880000e+02 3.083028e+03
6.890000e+02 3.249069e+03
6.900000e+02 3.423492e+03
6.910000e+02 3.606705e+03
6.920000e+02 3.799108e+03
6.930000e+02 4.001134e+03
6.940000e+02 4.213228e+03
6.950000e+02 4.435864e+03
6.960000e+02 4.669527e+03
6.970000e+02 4.914675e+03
6.980000e+02 5.171988e+03
6.990000e+02 5.441861e+03
7.000000e+02 5.724936e+03
7.010000e+02 6.021804e+03
7.020000e+02 6.333092e+03
7.030000e+02 6.659451e+03
7.040000e+02 7.001560e+03
7.050000e+02 7.360125e+03
7.060000e+02 7.735881e+03
7.070000e+02 8.129600e+03
7.080000e+02 8.542074e+03
7.090000e+02 8.974120e+03
7.100000e+02 9.426633e+03
7.110000e+02 9.900499e+03
7.120000e+02 1.039665e+04
7.130000e+02 1.091607e+04
7.140000e+02 1.145976e+04
7.150000e+02 1.202878e+04
7.160000e+02 1.262422e+04
7.170000e+02 1.324720e+04
7.180000e+02 1.389886e+04
7.190000e+02 1.458073e+04
7.200000e+02 1.529373e+04
7.210000e+02 1.603933e+04
7.220000e+02 1.681889e+04
7.230000e+02 1.763387e+04
7.240000e+02 1.848575e+04
7.250000e+02 1.937608e+04
7.260000e+02 2.030647e+04
7.270000e+02 2.127859e+04
7.280000e+02 2.229415e+04
7.290000e+02 2.335501e+04
7.300000e+02 2.446302e+04
7.310000e+02 2.562010e+04
7.320000e+02 2.682824e+04
7.330000e+02 2.808961e+04
7.340000e+02 2.940633e+04
7.350000e+02 3.078066e+04
7.360000e+02 3.221489e+04
7.370000e+02 3.371155e+04
7.380000e+02 3.527305e+04
7.390000e+02 3.690204e+04
7.400000e+02 3.860112e+04
7.410000e+02 4.037332e+04
7.420000e+02 4.222125e+04
7.430000e+02 4.414821e+04
7.440000e+02 4.615708e+04
7.450000e+02 4.825118e+04
7.460000e+02 5.043383e+04
7.470000e+02 5.270852e+04
7.480000e+02 5.507882e+04
7.490000e+02 5.754845e+04
7.500000e+02 6.012125e+04
7.510000e+02 6.280122e+04
7.520000e+02 6.559248e+04
7.530000e+02 6.849929e+04
7.540000e+02 7.152608e+04
7.550000e+02 7.467738e+04
7.560000e+02 7.795797e+04
7.570000e+02 8.137192e+04
7.580000e+02 8.492681e+04
7.590000e+02 8.862512e+04
7.600000e+02 9.247377e+04
7.610000e+02 9.647779e+04
7.620000e+02 1.006429e+05
7.630000e+02 1.049755e+05
7.640000e+02 1.094816e+05
7.650000e+02 1.141674e+05
7.660000e+02 1.190400e+05
7.670000e+02 1.241060e+05
7.680000e+02 1.293721e+05
7.690000e+02 1.348467e+05
7.700000e+02 1.405363e+05
7.710000e+02 1.464491e+05
7.720000e+02 1.525930e+05
7.730000e+02 1.589766e+05
7.740000e+02 1.656082e+05
7.750000e+02 1.724968e+05
7.760000e+02 1.796444e+05
7.770000e+02 1.870823e+05
7.780000e+02 1.947984e+05
7.790000e+02 2.028100e+05
7.800000e+02 2.111276e+05
7.810000e+02 2.197619e+05
7.820000e+02 2.287240e+05
7.830000e+02 2.380253e+05
7.840000e+02 2.476780e+05
7.850000e+02 2.576938e+05
7.860000e+02 2.680853e+05
7.870000e+02 2.788663e+05
7.880000e+02 2.900490e+05
7.890000e+02 3.016473e+05
7.900000e+02 3.136762e+05
7.910000e+02 3.261493e+05
7.920000e+02 3.390830e+05
7.930000e+02 3.524923e+05
7.940000e+02 3.663932e+05
7.950000e+02 3.808022e+05
7.960000e+02 3.957366e+05
7.970000e+02 4.112137e+05
7.980000e+02 4.272518e+05
7.990000e+02 4.438694e+05
8.000000e+02 4.610858e+05
8.010000e+02 4.789204e+05
8.020000e+02 4.973949e+05
8.030000e+02 5.165289e+05
8.040000e+02 5.363446e+05
8.050000e+02 5.568642e+05
8.060000e+02 5.781105e+05
8.070000e+02 6.001072e+05
8.080000e+02 6.228787e+05
8.090000e+02 6.464498e+05
8.100000e+02 6.708464e+05
8.110000e+02 6.960948e+05
8.120000e+02 7.222226e+05
8.130000e+02 7.492574e+05
8.140000e+02 7.772264e+05
8.150000e+02 8.061619e+05
8.160000e+02 8.360958e+05
8.170000e+02 8.670561e+05
8.180000e+02 8.990747e+05
8.190000e+02 9.321881e+05
8.200000e+02 9.664288e+05
8.210000e+02 1.001832e+06
8.220000e+02 1.038433e+06
8.230000e+02 1.076270e+06
8.240000e+02 1.115381e+06
8.250000e+02 1.155802e+06
8.260000e+02 1.197579e+06
8.270000e+02 1.240750e+06
8.280000e+02 1.285358e+06
8.290000e+02 1.331447e+06
8.300000e+02 1.379062e+06
8.310000e+02 1.428249e+06
8.320000e+02 1.479055e+06
8.330000e+02 1.531528e+06
8.340000e+02 1.585720e+06
8.350000e+02 1.641594e+06
8.360000e+02 1.699458e+06
8.370000e+02 1.759122e+06
8.380000e+02 1.820708e+06
8.390000e+02 1.884291e+06
8.400000e+02 1.949917e+06
8.410000e+02 2.017649e+06
8.420000e+02 2.087529e+06
8.430000e+02 2.159687e+06
8.440000e+02 2.234115e+06
8.450000e+02 2.310910e+06
8.460000e+02 2.390139e+06
8.470000e+02 2.471870e+06
8.480000e+02 2.556175e+06
8.490000e+02 2.643128e+06
8.500000e+02 2.732806e+06
8.510000e+02 2.825286e+06
8.520000e+02 2.920645e+06
8.530000e+02 3.018970e+06
8.540000e+02 3.120351e+06
8.550000e+02 3.224856e+06
8.560000e+02 3.332582e+06
8.570000e+02 3.443619e+06
8.580000e+02 3.558050e+06
8.590000e+02 3.675991e+06
8.600000e+02 3.797527e+06
8.610000e+02 3.922759e+06
8.620000e+02 4.051788e+06
8.630000e+02 4.184718e+06
8.640000e+02 4.321662e+06
8.650000e+02 4.462720e+06
8.660000e+02 4.608018e+06
8.670000e+02 4.757660e+06
8.680000e+02 4.911766e+06
8.690000e+02 5.070448e+06
8.700000e+02 5.233845e+06
8.710000e+02 5.402094e+06
8.720000e+02 5.575302e+06
8.730000e+02 5.753611e+06
8.740000e+02 5.937157e+06
8.750000e+02 6.126079e+06
8.760000e+02 6.320519e+06
8.770000e+02 6.520615e+06
8.780000e+02 6.726545e+06
8.790000e+02 6.938433e+06
8.800000e+02 7.156445e+06
8.810000e+02 7.380743e+06
8.820000e+02 7.611489e+06
8.830000e+02 7.848852e+06
8.840000e+02 8.093004e+06
8.850000e+02 8.344121e+06
8.860000e+02 8.602382e+06
8.870000e+02 8.867971e+06
8.880000e+02 9.141076e+06
8.890000e+02 9.421892e+06
8.900000e+02 9.710612e+06
8.910000e+02 1.000744e+07
8.920000e+02 1.030463e+07
8.930000e+02 1.062622e+07
8.940000e+02 1.094862e+07
8.950000e+02 1.127998e+07
8.960000e+02 1.162053e+07
8.970000e+02 1.197049e+07
8.980000e+02 1.233010e+07
8.990000e+02 1.269956e+07
9.000000e+02 1.307919e+07
9.010000e+02 1.346921e+07
9.020000e+02 1.386987e+07
9.030000e+02 1.428143e+07
9.040000e+02 1.470408e+07
9.050000e+02 1.513834e+07
9.060000e+02 1.558422e+07
9.070000e+02 1.604199e+07
9.080000e+02 1.651236e+07
9.090000e+02 1.699518e+07
9.100000e+02 1.749091e+07
9.110000e+02 1.799989e+07
9.120000e+02 1.852261e+07
9.130000e+02 1.893158e+07
9.140000e+02 1.970529e+07
9.150000e+02 3.180039e+07
9.160000e+02 6.258404e+07
9.170000e+02 6.720726e+07
9.180000e+02 5.404754e+07
9.190000e+02 1.201797e+08
9.200000e+02 1.751207e+08
9.210000e+02 2.343843e+07
9.220000e+02 2.193688e+08
9.230000e+02 6.889103e+07
9.240000e+02 2.045932e+08
9.250000e+02 2.547549e+08
9.260000e+02 1.028688e+08
9.270000e+02 2.405339e+08
9.280000e+02 2.988760e+08
9.290000e+02 2.661959e+08
9.300000e+02 2.542215e+08
9.310000e+02 1.260113e+08
9.320000e+02 3.148510e+08
9.330000e+02 3.443854e+08
9.340000e+02 3.570373e+08
9.350000e+02 9.558483e+07
9.360000e+02 3.391358e+08
9.370000e+02 7.083988e+07
9.380000e+02 1.094480e+08
9.390000e+02 3.514116e+08
9.400000e+02 4.022723e+08
9.410000e+02 1.853010e+08
9.420000e+02 4.293775e+08
9.430000e+02 4.338533e+08
9.440000e+02 2.918324e+08
9.450000e+02 4.579654e+08
9.460000e+02 4.646685e+08
9.470000e+02 3.841385e+08
9.480000e+02 4.088332e+08
9.490000e+02 3.834006e+08
9.500000e+02 9.623631e+07
9.510000e+02 4.538519e+08
9.520000e+02 5.167759e+08
9.530000e+02 4.763616e+08
9.540000e+02 4.535398e+08
9.550000e+02 5.589619e+08
9.560000e+02 4.896064e+08
9.570000e+02 4.065853e+08
9.580000e+02 5.021163e+08
9.590000e+02 6.178141e+08
9.600000e+02 1.254422e+08
9.610000e+02 6.398406e+08
9.620000e+02 6.442127e+08
9.630000e+02 6.657837e+08
9.640000e+02 7.788198e+07
9.650000e+02 6.130643e+08
9.660000e+02 7.027564e+08
9.670000e+02 6.949938e+08
9.680000e+02 6.572319e+08
9.690000e+02 7.347778e+08
9.700000e+02 7.419312e+08
9.710000e+02 6.993690e+08
9.720000e+02 5.053919e+08
9.730000e+02 4.732388e+08
9.740000e+02 7.652489e+08
9.750000e+02 8.206991e+08
9.760000e+02 8.613219e+08
9.770000e+02 8.800296e+08
9.780000e+02 8.875574e+08
9.790000e+02 9.241907e+08
9.800000e+02 9.431576e+08
9.810000e+02 9.540322e+08
9.820000e+02 9.414137e+08
9.830000e+02 9.995956e+08
9.840000e+02 4.390638e+08
9.850000e+02 1.027160e+09
9.860000e+02 1.040433e+09
9.870000e+02 1.079479e+09
9.880000e+02 1.002443e+09
9.890000e+02 8.340185e+08
9.900000e+02 1.728992e+08
9.910000e+02 1.059933e+09
9.920000e+02 8.787797e+08
9.930000e+02 1.157111e+09
9.940000e+02 2.027395e+08
9.950000e+02 3.667140e+08
9.960000e+02 4.848909e+08
9.970000e+02 3.005144e+08
9.980000e+02 1.322651e+09
9.990000e+02 1.282325e+09
1.000000e+03 1.384622e+09
1.001000e+03 1.412880e+09
1.002000e+03 1.436514e+09
1.003000e+03 1.276962e+09
1.004000e+03 1.404018e+09
1.005000e+03 1.320881e+09
1.006000e+03 1.547907e+09
1.007000e+03 1.576065e+09
1.008000e+03 1.602062e+09
1.009000e+03 1.549948e+09
1.010000e+03 1.662324e+09
1.011000e+03 1.695096e+09
1.012000e+03 1.721498e+09
1.013000e+03 1.750909e+09
1.014000e+03 1.322328e+09
1.015000e+03 1.599355e+09
1.016000e+03 1.766871e+09
1.017000e+03 1.466726e+09
1.018000e+03 1.868403e+09
1.019000e+03 1.768959e+09
1.020000e+03 1.982105e+09
1.021000e+03 1.195587e+09
1.022000e+03 1.820713e+09
1.023000e+03 1.781998e+09
1.024000e+03 1.883750e+09
1.025000e+03 1.191128e+09
1.026000e+03 6.691832e+08
1.027000e+03 1.839065e+09
1.028000e+03 5.993069e+08
1.029000e+03 1.812427e+09
1.030000e+03 2.304260e+09
1.031000e+03 2.312104e+09
1.032000e+03 2.432174e+09
1.033000e+03 1.154922e+09
1.034000e+03 2.534241e+09
1.035000e+03 5.738721e+08
1.036000e+03 2.035943e+09
1.037000e+03 4.760502e+08
1.038000e+03 2.755159e+09
1.039000e+03 2.766112e+09
1.040000e+03 2.840774e+09
1.041000e+03 2.884235e+09
1.042000e+03 2.866445e+09
1.043000e+03 2.912219e+09
1.044000e+03 3.048272e+09
1.045000e+03 3.102936e+09
1.046000e+03 3.168811e+09
1.047000e+03 3.158444e+09
1.048000e+03 2.951170e+09
1.049000e+03 3.253647e+09
1.050000e+03 3.357343e+09
1.051000e+03 3.354917e+09
1.052000e+03 3.500062e+09
1.053000e+03 3.492632e+09
1.054000e+03 2.725713e+09
1.055000e+03 3.675016e+09
1.056000e+03 3.757881e+09
1.057000e+03 3.771024e+09
1.058000e+03 3.845272e+09
1.059000e+03 3.630842e+09
1.060000e+03 3.679540e+09
1.061000e+03 4.038255e+09
1.062000e+03 4.075756e+09
1.063000e+03 1.706495e+09
1.064000e+03 9.338668e+08
1.065000e+03 3.527239e+09
1.066000e+03 3.773182e+09
1.067000e+03 3.962127e+09
1.068000e+03 4.642034e+09
1.069000e+03 3.767875e+09
1.070000e+03 4.651334e+09
1.071000e+03 4.876364e+09
1.072000e+03 4.950597e+09
1.073000e+03 4.222592e+09
1.074000e+03 4.996893e+09
1.075000e+03 5.039682e+09
1.076000e+03 5.281678e+09
1.077000e+03 5.187687e+09
1.078000e+03 5.370017e+09
1.079000e+03 5.465780e+09
1.080000e+03 5.579106e+09
1.081000e+03 5.676116e+09
1.082000e+03 5.779440e+09
1.083000e+03 5.847866e+09
1.084000e+03 5.911064e+09
1.085000e+03 4.849452e+09
1.086000e+03 6.196243e+09
1.087000e+03 5.849055e+09
1.088000e+03 6.380760e+09
1.089000e+03 6.492688e+09
1.090000e+03 6.400961e+09
1.091000e+03 6.458430e+09
1.092000e+03 6.800825e+09
1.093000e+03 6.901413e+09
1.094000e+03 6.984407e+09
1.095000e+03 7.116400e+09
1.096000e+03 7.222630e+09
1.097000e+03 7.253452e+09
1.098000e+03 7.307516e+09
1.099000e+03 7.507918e+09
1.100000e+03 6.981422e+09
1.101000e+03 6.905266e+09
1.102000e+03 1.321075e+10
1.103000e+03 3.726671e+10
1.104000e+03 1.781326e+10
1.105000e+03 7.654330e+09
1.106000e+03 5.764687e+10
1.107000e+03 1.670542e+10
1.108000e+03 6.570061e+10
1.109000e+03 2.795831e+10
1.110000e+03 1.724562e+10
1.111000e+03 1.592646e+10
1.112000e+03 5.977377e+10
1.113000e+03 7.599289e+10
1.114000e+03 6.032194e+09
1.115000e+03 5.138471e+10
1.116000e+03 4.422144e+10
1.117000e+03 6.694531e+09
1.118000e+03 3.713731e+10
1.119000e+03 7.170346e+10
1.120000e+03 5.153963e+10
1.121000e+03 6.793412e+10
1.122000e+03 2.348241e+09
1.123000e+03 1.234116e+10
1.124000e+03 8.070554e+10
1.125000e+03 4.237421e+10
1.126000e+03 8.811318e+10
1.127000e+03 8.530361e+10
1.128000e+03 3.441113e+10
1.129000e+03 7.584481e+10
1.130000e+03 7.346221e+10
1.131000e+03 9.163955e+10
1.132000e+03 6.804955e+09
1.133000e+03 4.456935e+10
1.134000e+03 7.968485e+10
1.135000e+03 3.717628e+09
1.136000e+03 6.897155e+10
1.137000e+03 9.716516e+10
1.138000e+03 8.304013e+10
1.139000e+03 9.693105e+10
1.140000e+03 3.997295e+09
1.141000e+03 9.864543e+10
1.142000e+03 9.935380e+10
1.143000e+03 9.996917e+10
1.144000e+03 1.075626e+11
1.145000e+03 4.331530e+10
1.146000e+03 1.102916e+11
1.147000e+03 1.072398e+11
1.148000e+03 6.729935e+10
1.149000e+03 1.108000e+11
1.150000e+03 9.597941e+10
1.151000e+03 1.157459e+11
1.152000e+03 1.123469e+11
1.153000e+03 3.798955e+10
1.154000e+03 1.264806e+10
1.155000e+03 9.848770e+10
1.156000e+03 3.761563e+10
1.157000e+03 1.235797e+11
1.158000e+03 5.554392e+09
1.159000e+03 1.036602e+11
1.160000e+03 9.993866e+10
1.161000e+03 1.270437e+11
1.162000e+03 2.998971e+10
1.163000e+03 9.953337e+10
1.164000e+03 7.490400e+09
1.165000e+03 1.339011e+11
1.166000e+03 1.287943e+11
1.167000e+03 1.203914e+11
1.168000e+03 1.393466e+11
1.169000e+03 1.380875e+11
1.170000e+03 1.388845e+11
1.171000e+03 1.370274e+11
1.172000e+03 1.109956e+11
1.173000e+03 1.459320e+11
1.174000e+03 8.775931e+10
1.175000e+03 8.262722e+09
1.176000e+03 7.002104e+09
1.177000e+03 1.523686e+11
1.178000e+03 1.421897e+11
1.179000e+03 1.544800e+11
1.180000e+03 1.066879e+11
1.181000e+03 1.581190e+11
1.182000e+03 1.563172e+11
1.183000e+03 1.546346e+11
1.184000e+03 1.529682e+11
1.185000e+03 1.562862e+11
1.186000e+03 1.380655e+11
1.187000e+03 1.604958e+11
1.188000e+03 1.359745e+11
1.189000e+03 8.419312e+09
1.190000e+03 3.274468e+10
1.191000e+03 1.577724e+11
1.192000e+03 1.668763e+11
1.193000e+03 7.585882e+09
1.194000e+03 9.492038e+09
1.195000e+03 1.126101e+11
1.196000e+03 1.645252e+11
1.197000e+03 2.024711e+11
1.198000e+03 1.809897e+11
1.199000e+03 1.997653e+11
1.200000e+03 1.632152e+11
1.201000e+03 1.893263e+11
1.202000e+03 1.692624e+11
1.203000e+03 1.985578e+11
1.204000e+03 1.509890e+11
1.205000e+03 1.727705e+11
1.206000e+03 1.475379e+11
1.207000e+03 5.134916e+10
1.208000e+03 1.314876e+11
1.209000e+03 1.057136e+11
1.210000e+03 1.242162e+10
1.211000e+03 7.044644e+10
1.212000e+03 4.969328e+10
1.213000e+03 3.341189e+10
1.214000e+03 2.018850e+10
1.215000e+03 1.248849e+10
1.216000e+03 1.119825e+10
1.217000e+03 1.757138e+10
1.218000e+03 3.022573e+10
1.219000e+03 4.878579e+10
1.220000e+03 6.935781e+10
1.221000e+03 9.689689e+10
1.222000e+03 1.217006e+11
1.223000e+03 1.496732e+11
1.224000e+03 1.773234e+11
1.225000e+03 1.739232e+11
1.226000e+03 2.253895e+11
1.227000e+03 2.476495e+11
1.228000e+03 2.444988e+11
1.229000e+03 2.768999e+11
1.230000e+03 2.808493e+11
1.231000e+03 2.883156e+11
1.232000e+03 3.507473e+11
1.233000e+03 3.699687e+11
1.234000e+03 2.931247e+11
1.235000e+03 3.967143e+11
1.236000e+03 3.349737e+11
1.237000e+03 4.252422e+11
1.238000e+03 4.119811e+11
1.239000e+03 4.295965e+11
1.240000e+03 4.226815e+11
1.241000e+03 5.759881e+11
1.242000e+03 3.973929e+11
1.243000e+03 5.611171e+11
1.244000e+03 2.768412e+11
1.245000e+03 3.809060e+11
1.246000e+03 7.847351e+11
1.247000e+03 7.702107e+11
1.248000e+03 2.884904e+11
1.249000e+03 3.537931e+11
1.250000e+03 8.967573e+11
1.251000e+03 9.845297e+11
1.252000e+03 9.161780e+11
1.253000e+03 9.886571e+11
1.254000e+03 9.168587e+11
1.255000e+03 1.054047e+12
1.256000e+03 9.642865e+11
1.257000e+03 1.060643e+12
1.258000e+03 8.723696e+11
1.259000e+03 1.004779e+12
1.260000e+03 1.027895e+12
1.261000e+03 2.149655e+10
1.262000e+03 1.712578e+11
1.263000e+03 1.176507e+12
1.264000e+03 9.206949e+11
1.265000e+03 2.150141e+10
1.266000e+03 1.126572e+12
1.267000e+03 1.045054e+12
