# wavelength_A flux
5.000000e+02 8.176107e-09
5.010000e+02 9.296829e-09
5.020000e+02 1.056556e-08
5.030000e+02 1.200109e-08
5.040000e+02 1.362451e-08
5.050000e+02 1.573837e-08
5.060000e+02 1.784678e-08
5.070000e+02 2.022724e-08
5.080000e+02 2.291350e-08
5.090000e+02 2.594374e-08
5.100000e+02 2.935939e-08
5.110000e+02 3.320810e-08
5.120000e+02 3.754256e-08
5.130000e+02 4.242172e-08
5.140000e+02 4.791136e-08
5.150000e+02 5.408446e-08
5.160000e+02 6.102408e-08
5.170000e+02 6.881832e-08
5.180000e+02 7.757505e-08
5.190000e+02 8.740167e-08
5.200000e+02 9.842618e-08
5.210000e+02 1.107886e-07
5.220000e+02 1.246354e-07
5.230000e+02 1.401692e-07
5.240000e+02 1.575532e-07
5.250000e+02 1.770131e-07
5.260000e+02 1.987837e-07
5.270000e+02 2.231296e-07
5.280000e+02 2.503435e-07
5.290000e+02 2.807030e-07
5.300000e+02 3.147073e-07
5.310000e+02 3.526146e-07
5.320000e+02 3.949135e-07
5.330000e+02 4.420899e-07
5.340000e+02 4.946846e-07
5.350000e+02 5.532942e-07
5.360000e+02 6.185762e-07
5.370000e+02 6.849436e-07
5.380000e+02 7.721587e-07
5.390000e+02 8.621693e-07
5.400000e+02 9.622545e-07
5.410000e+02 1.073442e-06
5.420000e+02 1.197098e-06
5.430000e+02 1.334386e-06
5.440000e+02 1.486791e-06
5.450000e+02 1.655919e-06
5.460000e+02 1.843291e-06
5.470000e+02 2.051556e-06
5.480000e+02 2.282126e-06
5.490000e+02 2.537594e-06
5.500000e+02 2.820521e-06
5.510000e+02 3.133743e-06
5.520000e+02 3.480365e-06
5.530000e+02 3.863800e-06
5.540000e+02 4.287794e-06
5.550000e+02 4.756456e-06
5.560000e+02 5.274294e-06
5.570000e+02 5.846250e-06
5.580000e+02 6.477740e-06
5.590000e+02 7.174698e-06
5.600000e+02 7.943622e-06
5.610000e+02 8.791629e-06
5.620000e+02 9.726505e-06
5.630000e+02 1.075677e-05
5.640000e+02 1.189173e-05
5.650000e+02 1.314158e-05
5.660000e+02 1.451747e-05
5.670000e+02 1.603152e-05
5.680000e+02 1.769703e-05
5.690000e+02 1.952850e-05
5.700000e+02 2.154172e-05
5.710000e+02 2.375402e-05
5.720000e+02 2.618417e-05
5.730000e+02 2.885270e-05
5.740000e+02 3.178197e-05
5.750000e+02 3.499677e-05
5.760000e+02 3.851979e-05
5.770000e+02 4.238948e-05
5.780000e+02 4.662811e-05
5.790000e+02 5.127295e-05
5.800000e+02 5.636121e-05
5.810000e+02 6.193334e-05
5.820000e+02 6.803325e-05
5.830000e+02 7.470830e-05
5.840000e+02 8.199455e-05
5.850000e+02 8.999513e-05
5.860000e+02 9.873183e-05
5.870000e+02 1.082765e-04
5.880000e+02 1.187046e-04
5.890000e+02 1.300932e-04
5.900000e+02 1.425310e-04
5.910000e+02 1.561058e-04
5.920000e+02 1.709188e-04
5.930000e+02 1.870776e-04
5.940000e+02 2.046989e-04
5.950000e+02 2.239055e-04
5.960000e+02 2.448455e-04
5.970000e+02 2.676554e-04
5.980000e+02 2.924993e-04
5.990000e+02 3.195503e-04
6.000000e+02 3.489952e-04
6.010000e+02 3.810241e-04
6.020000e+02 4.158929e-04
6.030000e+02 4.537998e-04
6.040000e+02 4.950126e-04
6.050000e+02 5.398058e-04
6.060000e+02 5.884753e-04
6.070000e+02 6.413442e-04
6.080000e+02 6.987549e-04
6.090000e+02 7.610805e-04
6.100000e+02 8.287220e-04
6.110000e+02 9.021129e-04
6.120000e+02 9.817178e-04
6.130000e+02 1.068039e-03
6.140000e+02 1.161616e-03
6.150000e+02 1.263032e-03
6.160000e+02 1.372911e-03
6.170000e+02 1.491926e-03
6.180000e+02 1.620802e-03
6.190000e+02 1.760317e-03
6.200000e+02 1.911309e-03
6.210000e+02 2.074676e-03
6.220000e+02 2.251384e-03
6.230000e+02 2.442472e-03
6.240000e+02 2.649055e-03
6.250000e+02 2.872328e-03
6.260000e+02 3.113575e-03
6.270000e+02 3.374176e-03
6.280000e+02 3.655608e-03
6.290000e+02 3.959456e-03
6.300000e+02 4.287420e-03
6.310000e+02 4.641130e-03
6.320000e+02 5.023119e-03
6.330000e+02 5.434888e-03
6.340000e+02 5.878898e-03
6.350000e+02 6.357517e-03
6.360000e+02 6.869262e-03
6.370000e+02 7.429102e-03
6.380000e+02 8.027748e-03
6.390000e+02 8.672427e-03
6.400000e+02 9.366507e-03
6.410000e+02 1.011358e-02
6.420000e+02 1.091751e-02
6.430000e+02 1.178241e-02
6.440000e+02 1.271266e-02
6.450000e+02 1.371296e-02
6.460000e+02 1.478834e-02
6.470000e+02 1.594413e-02
6.480000e+02 1.718608e-02
6.490000e+02 1.852027e-02
6.500000e+02 1.995322e-02
6.510000e+02 2.149186e-02
6.520000e+02 2.314363e-02
6.530000e+02 2.491640e-02
6.540000e+02 2.681860e-02
6.550000e+02 2.885922e-02
6.560000e+02 3.104781e-02
6.570000e+02 3.339413e-02
6.580000e+02 3.591037e-02
6.590000e+02 3.860675e-02
6.600000e+02 4.149598e-02
6.610000e+02 4.459129e-02
6.620000e+02 4.790650e-02
6.630000e+02 5.145648e-02
6.640000e+02 5.525702e-02
6.650000e+02 5.932482e-02
6.660000e+02 6.367797e-02
6.670000e+02 6.833519e-02
6.680000e+02 7.331675e-02
6.690000e+02 7.864404e-02
6.700000e+02 8.433986e-02
6.710000e+02 9.042839e-02
6.720000e+02 9.693516e-02
6.730000e+02 1.038878e-01
6.740000e+02 1.113150e-01
6.750000e+02 1.192474e-01
6.760000e+02 1.277178e-01
6.770000e+02 1.367606e-01
6.780000e+02 1.464126e-01
6.790000e+02 1.567127e-01
6.800000e+02 1.677021e-01
6.810000e+02 1.794245e-01
6.820000e+02 1.919262e-01
6.830000e+02 2.052565e-01
6.840000e+02 2.194672e-01
6.850000e+02 2.346133e-01
6.860000e+02 2.507537e-01
6.870000e+02 2.679487e-01
6.880000e+02 2.862667e-01
6.890000e+02 3.057740e-01
6.900000e+02 3.265449e-01
6.910000e+02 3.486570e-01
6.920000e+02 3.721920e-01
6.930000e+02 3.972368e-01
6.940000e+02 4.238831e-01
6.950000e+02 4.522277e-01
6.960000e+02 4.823730e-01
6.970000e+02 5.144221e-01
6.980000e+02 5.485054e-01
6.990000e+02 5.847276e-01
7.000000e+02 6.232219e-01
7.010000e+02 6.641229e-01
7.020000e+02 7.075731e-01
7.030000e+02 7.537226e-01
7.040000e+02 8.027301e-01
7.050000e+02 8.547628e-01
7.060000e+02 9.099975e-01
7.070000e+02 9.686208e-01
7.080000e+02 1.030829e+00
7.090000e+02 1.096827e+00
7.100000e+02 1.166839e+00
7.110000e+02 1.241090e+00
7.120000e+02 1.319824e+00
7.130000e+02 1.403298e+00
7.140000e+02 1.491781e+00
7.150000e+02 1.585557e+00
7.160000e+02 1.684924e+00
7.170000e+02 1.790194e+00
7.180000e+02 1.901693e+00
7.190000e+02 2.019812e+00
7.200000e+02 2.144868e+00
7.210000e+02 2.277266e+00
7.220000e+02 2.417412e+00
7.230000e+02 2.565737e+00
7.240000e+02 2.722688e+00
7.250000e+02 2.888740e+00
7.260000e+02 3.064391e+00
7.270000e+02 3.250166e+00
7.280000e+02 3.446612e+00
7.290000e+02 3.654312e+00
7.300000e+02 3.873871e+00
7.310000e+02 4.105928e+00
7.320000e+02 4.351156e+00
7.330000e+02 4.610258e+00
7.340000e+02 4.883975e+00
7.350000e+02 5.173084e+00
7.360000e+02 5.478398e+00
7.370000e+02 5.800784e+00
7.380000e+02 6.141131e+00
7.390000e+02 6.500386e+00
7.400000e+02 6.879527e+00
7.410000e+02 7.279628e+00
7.420000e+02 7.701730e+00
7.430000e+02 8.147027e+00
7.440000e+02 8.616677e+00
7.450000e+02 9.111950e+00
7.460000e+02 9.634162e+00
7.470000e+02 1.018469e+01
7.480000e+02 1.076499e+01
7.490000e+02 1.137657e+01
7.500000e+02 1.202102e+01
7.510000e+02 1.269999e+01
7.520000e+02 1.341525e+01
7.530000e+02 1.416860e+01
7.540000e+02 1.496196e+01
7.550000e+02 1.579733e+01
7.560000e+02 1.667681e+01
7.570000e+02 1.760238e+01
7.580000e+02 1.857692e+01
7.590000e+02 1.960220e+01
7.600000e+02 2.068107e+01
7.610000e+02 2.181602e+01
7.620000e+02 2.300984e+01
7.630000e+02 2.426538e+01
7.640000e+02 2.558566e+01
7.650000e+02 2.697380e+01
7.660000e+02 2.843312e+01
7.670000e+02 2.996701e+01
7.680000e+02 3.157896e+01
7.690000e+02 3.327303e+01
7.700000e+02 3.505282e+01
7.710000e+02 3.692251e+01
7.720000e+02 3.888639e+01
7.730000e+02 4.094888e+01
7.740000e+02 4.311467e+01
7.750000e+02 4.538859e+01
7.760000e+02 4.777338e+01
7.770000e+02 5.028136e+01
7.780000e+02 5.291105e+01
7.790000e+02 5.567051e+01
7.800000e+02 5.856578e+01
7.810000e+02 6.160315e+01
7.820000e+02 6.478913e+01
7.830000e+02 6.813055e+01
7.840000e+02 7.163457e+01
7.850000e+02 7.530858e+01
7.860000e+02 7.916029e+01
7.870000e+02 8.319798e+01
7.880000e+02 8.742972e+01
7.890000e+02 9.186443e+01
7.900000e+02 9.651119e+01
7.910000e+02 1.013796e+02
7.920000e+02 1.064795e+02
7.930000e+02 1.118213e+02
7.940000e+02 1.174156e+02
7.950000e+02 1.232738e+02
7.960000e+02 1.294074e+02
7.970000e+02 1.358285e+02
7.980000e+02 1.425499e+02
7.990000e+02 1.495847e+02
8.000000e+02 1.569465e+02
8.010000e+02 1.646495e+02
8.020000e+02 1.727088e+02
8.030000e+02 1.811396e+02
8.040000e+02 1.899580e+02
8.050000e+02 1.991807e+02
8.060000e+02 2.088250e+02
8.070000e+02 2.189089e+02
8.080000e+02 2.294513e+02
8.090000e+02 2.404716e+02
8.100000e+02 2.519901e+02
8.110000e+02 2.640280e+02
8.120000e+02 2.766071e+02
8.130000e+02 2.897502e+02
8.140000e+02 3.034808e+02
8.150000e+02 3.178233e+02
8.160000e+02 3.328043e+02
8.170000e+02 3.484492e+02
8.180000e+02 3.647859e+02
8.190000e+02 3.818430e+02
8.200000e+02 3.996503e+02
8.210000e+02 4.182385e+02
8.220000e+02 4.376397e+02
8.230000e+02 4.578871e+02
8.240000e+02 4.790152e+02
8.250000e+02 5.010598e+02
8.260000e+02 5.240581e+02
8.270000e+02 5.480485e+02
8.280000e+02 5.730712e+02
8.290000e+02 5.991674e+02
8.300000e+02 6.263804e+02
8.310000e+02 6.547547e+02
8.320000e+02 6.843365e+02
8.330000e+02 7.151740e+02
8.340000e+02 7.473168e+02
8.350000e+02 7.807704e+02
8.360000e+02 8.157237e+02
8.370000e+02 8.521024e+02
8.380000e+02 8.899991e+02
8.390000e+02 9.294833e+02
8.400000e+02 9.706095e+02
8.410000e+02 1.013443e+03
8.420000e+02 1.058039e+03
8.430000e+02 1.104505e+03
8.440000e+02 1.152871e+03
8.450000e+02 1.203225e+03
8.460000e+02 1.255643e+03
8.470000e+02 1.310203e+03
8.480000e+02 1.366987e+03
8.490000e+02 1.426081e+03
8.500000e+02 1.487570e+03
8.510000e+02 1.551547e+03
8.520000e+02 1.618102e+03
8.530000e+02 1.687338e+03
8.540000e+02 1.759355e+03
8.550000e+02 1.834249e+03
8.560000e+02 1.912133e+03
8.570000e+02 1.993116e+03
8.580000e+02 2.077315e+03
8.590000e+02 2.164848e+03
8.600000e+02 2.255838e+03
8.610000e+02 2.350412e+03
8.620000e+02 2.448700e+03
8.630000e+02 2.550839e+03
8.640000e+02 2.656973e+03
8.650000e+02 2.767239e+03
8.660000e+02 2.881797e+03
8.670000e+02 3.000795e+03
8.680000e+02 3.124395e+03
8.690000e+02 3.252762e+03
8.700000e+02 3.386062e+03
8.710000e+02 3.524488e+03
8.720000e+02 3.668207e+03
8.730000e+02 3.817412e+03
8.740000e+02 3.972298e+03
8.750000e+02 4.133066e+03
8.760000e+02 4.299924e+03
8.770000e+02 4.473081e+03
8.780000e+02 4.652773e+03
8.790000e+02 4.839214e+03
8.800000e+02 5.032645e+03
8.810000e+02 5.233308e+03
8.820000e+02 5.441456e+03
8.830000e+02 5.657346e+03
8.840000e+02 5.881248e+03
8.850000e+02 6.113436e+03
8.860000e+02 6.354196e+03
8.870000e+02 6.603821e+03
8.880000e+02 6.862614e+03
8.890000e+02 7.130888e+03
8.900000e+02 7.408965e+03
8.910000e+02 7.697177e+03
8.920000e+02 7.989148e+03
8.930000e+02 8.305388e+03
8.940000e+02 8.626104e+03
8.950000e+02 8.958390e+03
8.960000e+02 9.302640e+03
8.970000e+02 9.659243e+03
8.980000e+02 1.002861e+04
8.990000e+02 1.041118e+04
9.000000e+02 1.080737e+04
9.010000e+02 1.121764e+04
9.020000e+02 1.164246e+04
9.030000e+02 1.208229e+04
9.040000e+02 1.253758e+04
9.050000e+02 1.300900e+04
9.060000e+02 1.349692e+04
9.070000e+02 1.400178e+04
9.080000e+02 1.452452e+04
9.090000e+02 1.506534e+04
9.100000e+02 1.562495e+04
9.110000e+02 1.620399e+04
9.120000e+02 1.680325e+04
9.130000e+02 1.729192e+04
9.140000e+02 1.825857e+04
9.150000e+02 7.481349e+04
9.160000e+02 1.786274e+05
9.170000e+02 1.854647e+05
9.180000e+02 1.755508e+05
9.190000e+02 2.158293e+05
9.200000e+02 2.265678e+05
9.210000e+02 2.291608e+04
9.220000e+02 2.411775e+05
9.230000e+02 2.140549e+05
9.240000e+02 2.351730e+05
9.250000e+02 2.603524e+05
9.260000e+02 2.548838e+05
9.270000e+02 2.777502e+05
9.280000e+02 2.889145e+05
9.290000e+02 2.682718e+05
9.300000e+02 3.026070e+05
9.310000e+02 2.942578e+05
9.320000e+02 3.245653e+05
9.330000e+02 3.339228e+05
9.340000e+02 3.441068e+05
9.350000e+02 8.194450e+04
9.360000e+02 3.484092e+05
9.370000e+02 6.654038e+04
9.380000e+02 2.189620e+05
9.390000e+02 3.912710e+05
9.400000e+02 4.086796e+05
9.410000e+02 1.711490e+05
9.420000e+02 4.328738e+05
9.430000e+02 4.435060e+05
9.440000e+02 3.405339e+05
9.450000e+02 4.710669e+05
9.460000e+02 4.840212e+05
9.470000e+02 4.338211e+05
9.480000e+02 4.441343e+05
9.490000e+02 5.213038e+05
9.500000e+02 1.050991e+05
9.510000e+02 5.404887e+05
9.520000e+02 5.725729e+05
9.530000e+02 5.620072e+05
9.540000e+02 5.137066e+05
9.550000e+02 6.210938e+05
9.560000e+02 5.521491e+05
9.570000e+02 4.186956e+05
9.580000e+02 6.106929e+05
9.590000e+02 6.990366e+05
9.600000e+02 1.399118e+05
9.610000e+02 7.377256e+05
9.620000e+02 7.557090e+05
9.630000e+02 7.777587e+05
9.640000e+02 1.035693e+05
9.650000e+02 7.477689e+05
9.660000e+02 8.426919e+05
9.670000e+02 8.537176e+05
9.680000e+02 8.558947e+05
9.690000e+02 9.103056e+05
9.700000e+02 9.367819e+05
9.710000e+02 9.402387e+05
9.720000e+02 9.107559e+05
9.730000e+02 9.202644e+05
9.740000e+02 1.034132e+06
9.750000e+02 1.069737e+06
9.760000e+02 1.106709e+06
9.770000e+02 1.136525e+06
9.780000e+02 1.162166e+06
9.790000e+02 1.200668e+06
9.800000e+02 1.232688e+06
9.810000e+02 1.262588e+06
9.820000e+02 1.280816e+06
9.830000e+02 1.333472e+06
9.840000e+02 6.141241e+05
9.850000e+02 1.399328e+06
9.860000e+02 1.434171e+06
9.870000e+02 1.480112e+06
9.880000e+02 1.451288e+06
9.890000e+02 1.274456e+06
9.900000e+02 2.692746e+05
9.910000e+02 1.585908e+06
9.920000e+02 1.385541e+06
9.930000e+02 1.652774e+06
9.940000e+02 3.067798e+05
9.950000e+02 5.732869e+05
9.960000e+02 1.354045e+06
9.970000e+02 4.601911e+05
9.980000e+02 1.956674e+06
9.990000e+02 1.954433e+06
1.000000e+03 2.065248e+06
1.001000e+03 2.118981e+06
1.002000e+03 2.171896e+06
1.003000e+03 2.093120e+06
1.004000e+03 2.209725e+06
1.005000e+03 2.174624e+06
1.006000e+03 2.400794e+06
1.007000e+03 2.460619e+06
1.008000e+03 2.519768e+06
1.009000e+03 2.525091e+06
1.010000e+03 2.649482e+06
1.011000e+03 2.716378e+06
1.012000e+03 2.782209e+06
1.013000e+03 2.850436e+06
1.014000e+03 2.474496e+06
1.015000e+03 2.802741e+06
1.016000e+03 3.022924e+06
1.017000e+03 2.715665e+06
1.018000e+03 3.185432e+06
1.019000e+03 3.127527e+06
1.020000e+03 3.367888e+06
1.021000e+03 1.966904e+06
1.022000e+03 3.153461e+06
1.023000e+03 3.355100e+06
1.024000e+03 3.426840e+06
1.025000e+03 2.496383e+06
1.026000e+03 1.417329e+06
1.027000e+03 3.530932e+06
1.028000e+03 1.042968e+06
1.029000e+03 3.613432e+06
1.030000e+03 4.217250e+06
1.031000e+03 4.343510e+06
1.032000e+03 4.478839e+06
1.033000e+03 1.917394e+06
1.034000e+03 4.710993e+06
1.035000e+03 1.087740e+06
1.036000e+03 4.197466e+06
1.037000e+03 1.489670e+06
1.038000e+03 5.201072e+06
1.039000e+03 5.290736e+06
1.040000e+03 5.448240e+06
1.041000e+03 5.538345e+06
1.042000e+03 5.669714e+06
1.043000e+03 5.626770e+06
1.044000e+03 5.980079e+06
1.045000e+03 6.116712e+06
1.046000e+03 6.271189e+06
1.047000e+03 6.389084e+06
1.048000e+03 6.321550e+06
1.049000e+03 6.592689e+06
1.050000e+03 6.852494e+06
1.051000e+03 6.984470e+06
1.052000e+03 7.196006e+06
1.053000e+03 7.316786e+06
1.054000e+03 6.439934e+06
1.055000e+03 7.682892e+06
1.056000e+03 7.885327e+06
1.057000e+03 8.043110e+06
1.058000e+03 8.216386e+06
1.059000e+03 8.239386e+06
1.060000e+03 8.344359e+06
1.061000e+03 8.805726e+06
1.062000e+03 8.957774e+06
1.063000e+03 3.709997e+06
1.064000e+03 2.168183e+06
1.065000e+03 8.584644e+06
1.066000e+03 8.508550e+06
1.067000e+03 9.684062e+06
1.068000e+03 1.035210e+07
1.069000e+03 9.725379e+06
1.070000e+03 1.073852e+07
1.071000e+03 1.106292e+07
1.072000e+03 1.130624e+07
1.073000e+03 1.056855e+07
1.074000e+03 1.175791e+07
1.075000e+03 1.199003e+07
1.076000e+03 1.233744e+07
1.077000e+03 1.239638e+07
1.078000e+03 1.280518e+07
1.079000e+03 1.310258e+07
1.080000e+03 1.342078e+07
1.081000e+03 1.372808e+07
1.082000e+03 1.402076e+07
1.083000e+03 1.431431e+07
1.084000e+03 1.464957e+07
1.085000e+03 1.207951e+07
1.086000e+03 1.529350e+07
1.087000e+03 1.526598e+07
1.088000e+03 1.591577e+07
1.089000e+03 1.629190e+07
1.090000e+03 1.649974e+07
1.091000e+03 1.683370e+07
1.092000e+03 1.734783e+07
1.093000e+03 1.770401e+07
1.094000e+03 1.807108e+07
1.095000e+03 1.846115e+07
1.096000e+03 1.883321e+07
1.097000e+03 1.912405e+07
1.098000e+03 1.954048e+07
1.099000e+03 2.000979e+07
1.100000e+03 1.958332e+07
1.101000e+03 1.889881e+07
1.102000e+03 4.035892e+07
1.103000e+03 1.261139e+08
1.104000e+03 4.964624e+07
1.105000e+03 2.105021e+07
1.106000e+03 2.437011e+08
1.107000e+03 8.927409e+07
1.108000e+03 2.681904e+08
1.109000e+03 1.476775e+08
1.110000e+03 7.632497e+07
1.111000e+03 4.628118e+07
1.112000e+03 2.540941e+08
1.113000e+03 2.987678e+08
1.114000e+03 1.761374e+07
1.115000e+03 2.327761e+08
1.116000e+03 2.173636e+08
1.117000e+03 1.855189e+07
1.118000e+03 1.898706e+08
1.119000e+03 3.119657e+08
1.120000e+03 2.382129e+08
1.121000e+03 2.967987e+08
1.122000e+03 7.806080e+06
1.123000e+03 4.433592e+07
1.124000e+03 3.444465e+08
1.125000e+03 1.966197e+08
1.126000e+03 3.616678e+08
1.127000e+03 3.540436e+08
1.128000e+03 1.435782e+08
1.129000e+03 3.523386e+08
1.130000e+03 3.440182e+08
1.131000e+03 3.885341e+08
1.132000e+03 2.289210e+07
1.133000e+03 2.642200e+08
1.134000e+03 3.756610e+08
1.135000e+03 1.434278e+07
1.136000e+03 3.561958e+08
1.137000e+03 4.223284e+08
1.138000e+03 4.038324e+08
1.139000e+03 4.267857e+08
1.140000e+03 1.394752e+07
1.141000e+03 4.470534e+08
1.142000e+03 4.511099e+08
1.143000e+03 4.570222e+08
1.144000e+03 4.723254e+08
1.145000e+03 2.382838e+08
1.146000e+03 4.869727e+08
1.147000e+03 4.852707e+08
1.148000e+03 3.709641e+08
1.149000e+03 5.038260e+08
1.150000e+03 4.871781e+08
1.151000e+03 5.205819e+08
1.152000e+03 5.265244e+08
1.153000e+03 1.946527e+08
1.154000e+03 6.610784e+07
1.155000e+03 4.972297e+08
1.156000e+03 1.870821e+08
1.157000e+03 5.690053e+08
1.158000e+03 2.248566e+07
1.159000e+03 5.078076e+08
1.160000e+03 5.513679e+08
1.161000e+03 6.030656e+08
1.162000e+03 1.649246e+08
1.163000e+03 5.574557e+08
1.164000e+03 2.758870e+07
1.165000e+03 6.394804e+08
1.166000e+03 6.398384e+08
1.167000e+03 6.362783e+08
1.168000e+03 6.749967e+08
1.169000e+03 6.710378e+08
1.170000e+03 6.900559e+08
1.171000e+03 7.017179e+08
1.172000e+03 6.630858e+08
1.173000e+03 7.314563e+08
1.174000e+03 5.286431e+08
1.175000e+03 3.245715e+07
1.176000e+03 2.884179e+07
1.177000e+03 7.788426e+08
1.178000e+03 7.616488e+08
1.179000e+03 8.016908e+08
1.180000e+03 6.049627e+08
1.181000e+03 8.233820e+08
1.182000e+03 8.378581e+08
1.183000e+03 8.404035e+08
1.184000e+03 8.464742e+08
1.185000e+03 8.606435e+08
1.186000e+03 7.952572e+08
1.187000e+03 8.894643e+08
1.188000e+03 8.489213e+08
1.189000e+03 3.752710e+07
1.190000e+03 1.811798e+08
1.191000e+03 9.076486e+08
1.192000e+03 9.262505e+08
1.193000e+03 3.563462e+07
1.194000e+03 4.277190e+07
1.195000e+03 7.134508e+08
1.196000e+03 9.454916e+08
1.197000e+03 1.362823e+09
1.198000e+03 1.247875e+09
1.199000e+03 1.338981e+09
1.200000e+03 1.132482e+09
1.201000e+03 1.260665e+09
1.202000e+03 1.196870e+09
1.203000e+03 1.512366e+09
1.204000e+03 1.205853e+09
1.205000e+03 1.273106e+09
1.206000e+03 1.156742e+09
1.207000e+03 2.195508e+08
1.208000e+03 8.950381e+08
1.209000e+03 6.902279e+08
1.210000e+03 5.908317e+07
1.211000e+03 4.157948e+08
1.212000e+03 2.775200e+08
1.213000e+03 1.751006e+08
1.214000e+03 1.025535e+08
1.215000e+03 6.421226e+07
1.216000e+03 5.839910e+07
1.217000e+03 9.025129e+07
1.218000e+03 1.592099e+08
1.219000e+03 2.723958e+08
1.220000e+03 4.219780e+08
1.221000e+03 6.164570e+08
1.222000e+03 8.283506e+08
1.223000e+03 1.064150e+09
1.224000e+03 1.317372e+09
1.225000e+03 1.395053e+09
1.226000e+03 1.831761e+09
1.227000e+03 2.075142e+09
1.228000e+03 2.181996e+09
1.229000e+03 2.556106e+09
1.230000e+03 2.719830e+09
1.231000e+03 2.750890e+09
1.232000e+03 3.375750e+09
1.233000e+03 3.618304e+09
1.234000e+03 2.288890e+09
1.235000e+03 4.035420e+09
1.236000e+03 3.582665e+09
1.237000e+03 4.456546e+09
1.238000e+03 4.535126e+09
1.239000e+03 4.707565e+09
1.240000e+03 4.433150e+09
1.241000e+03 7.374628e+09
1.242000e+03 4.217135e+09
1.243000e+03 6.727389e+09
1.244000e+03 2.642843e+09
1.245000e+03 3.968831e+09
1.246000e+03 1.173336e+10
1.247000e+03 1.182470e+10
1.248000e+03 2.786410e+09
1.249000e+03 3.647986e+09
1.250000e+03 1.403398e+10
1.251000e+03 1.546503e+10
1.252000e+03 1.480090e+10
1.253000e+03 1.626263e+10
1.254000e+03 1.537121e+10
1.255000e+03 1.724977e+10
1.256000e+03 1.615329e+10
1.257000e+03 1.784102e+10
1.258000e+03 1.434606e+10
1.259000e+03 1.675818e+10
1.260000e+03 1.541066e+10
1.261000e+03 1.333739e+08
1.262000e+03 1.654657e+09
1.263000e+03 1.962729e+10
1.264000e+03 1.533730e+10
1.265000e+03 1.379415e+08
1.266000e+03 2.002043e+10
1.267000e+03 1.834380e+10
