# wavelength_A flux
5.000000e+02 1.985050e-08
5.010000e+02 2.252570e-08
5.020000e+02 2.554805e-08
5.030000e+02 2.896087e-08
5.040000e+02 3.281264e-08
5.050000e+02 3.864364e-08
5.060000e+02 4.372991e-08
5.070000e+02 4.946061e-08
5.080000e+02 5.591419e-08
5.090000e+02 6.318261e-08
5.100000e+02 7.135556e-08
5.110000e+02 8.054608e-08
5.120000e+02 9.087551e-08
5.130000e+02 1.024797e-07
5.140000e+02 1.155095e-07
5.150000e+02 1.301312e-07
5.160000e+02 1.465372e-07
5.170000e+02 1.649218e-07
5.180000e+02 1.855470e-07
5.190000e+02 2.086408e-07
5.200000e+02 2.344993e-07
5.210000e+02 2.634391e-07
5.220000e+02 2.957639e-07
5.230000e+02 3.320137e-07
5.240000e+02 3.724736e-07
5.250000e+02 4.176819e-07
5.260000e+02 4.681587e-07
5.270000e+02 5.244997e-07
5.280000e+02 5.873583e-07
5.290000e+02 6.572228e-07
5.300000e+02 7.355989e-07
5.310000e+02 8.226656e-07
5.320000e+02 9.196325e-07
5.330000e+02 1.027586e-06
5.340000e+02 1.147695e-06
5.350000e+02 1.281314e-06
5.360000e+02 1.429864e-06
5.370000e+02 1.562228e-06
5.380000e+02 1.778371e-06
5.390000e+02 1.982102e-06
5.400000e+02 2.208236e-06
5.410000e+02 2.458844e-06
5.420000e+02 2.737330e-06
5.430000e+02 3.045850e-06
5.440000e+02 3.387682e-06
5.450000e+02 3.766385e-06
5.460000e+02 4.184594e-06
5.470000e+02 4.649862e-06
5.480000e+02 5.163417e-06
5.490000e+02 5.731467e-06
5.500000e+02 6.359463e-06
5.510000e+02 7.053513e-06
5.520000e+02 7.820251e-06
5.530000e+02 8.666967e-06
5.540000e+02 9.601639e-06
5.550000e+02 1.063304e-05
5.560000e+02 1.177072e-05
5.570000e+02 1.302519e-05
5.580000e+02 1.440791e-05
5.590000e+02 1.593142e-05
5.600000e+02 1.760945e-05
5.610000e+02 1.945699e-05
5.620000e+02 2.149022e-05
5.630000e+02 2.372742e-05
5.640000e+02 2.618792e-05
5.650000e+02 2.889244e-05
5.660000e+02 3.186552e-05
5.670000e+02 3.513178e-05
5.680000e+02 3.871901e-05
5.690000e+02 4.265729e-05
5.700000e+02 4.697939e-05
5.710000e+02 5.172147e-05
5.720000e+02 5.692206e-05
5.730000e+02 6.262382e-05
5.740000e+02 6.887274e-05
5.750000e+02 7.572112e-05
5.760000e+02 8.320219e-05
5.770000e+02 9.142877e-05
5.780000e+02 1.004145e-04
5.790000e+02 1.102461e-04
5.800000e+02 1.209994e-04
5.810000e+02 1.327572e-04
5.820000e+02 1.456087e-04
5.830000e+02 1.596488e-04
5.840000e+02 1.749050e-04
5.850000e+02 1.917220e-04
5.860000e+02 2.100294e-04
5.870000e+02 2.299880e-04
5.880000e+02 2.517609e-04
5.890000e+02 2.754950e-04
5.900000e+02 3.013899e-04
5.910000e+02 3.296049e-04
5.920000e+02 3.603483e-04
5.930000e+02 3.938268e-04
5.940000e+02 4.302901e-04
5.950000e+02 4.699476e-04
5.960000e+02 5.131798e-04
5.970000e+02 5.601738e-04
5.980000e+02 6.112840e-04
5.990000e+02 6.668540e-04
6.000000e+02 7.272513e-04
6.010000e+02 7.927664e-04
6.020000e+02 8.641722e-04
6.030000e+02 9.415974e-04
6.040000e+02 1.025655e-03
6.050000e+02 1.116891e-03
6.060000e+02 1.215877e-03
6.070000e+02 1.323259e-03
6.080000e+02 1.439699e-03
6.090000e+02 1.565933e-03
6.100000e+02 1.702739e-03
6.110000e+02 1.850974e-03
6.120000e+02 2.011537e-03
6.130000e+02 2.185407e-03
6.140000e+02 2.373607e-03
6.150000e+02 2.577322e-03
6.160000e+02 2.797736e-03
6.170000e+02 3.036155e-03
6.180000e+02 3.293900e-03
6.190000e+02 3.572627e-03
6.200000e+02 3.873876e-03
6.210000e+02 4.199382e-03
6.220000e+02 4.551003e-03
6.230000e+02 4.930732e-03
6.240000e+02 5.340710e-03
6.250000e+02 5.783227e-03
6.260000e+02 6.260706e-03
6.270000e+02 6.775849e-03
6.280000e+02 7.331447e-03
6.290000e+02 7.930515e-03
6.300000e+02 8.576299e-03
6.310000e+02 9.272187e-03
6.320000e+02 1.002210e-02
6.330000e+02 1.082979e-02
6.340000e+02 1.169958e-02
6.350000e+02 1.263598e-02
6.360000e+02 1.360609e-02
6.370000e+02 1.472847e-02
6.380000e+02 1.589527e-02
6.390000e+02 1.715021e-02
6.400000e+02 1.849962e-02
6.410000e+02 1.995026e-02
6.420000e+02 2.150882e-02
6.430000e+02 2.318403e-02
6.440000e+02 2.498359e-02
6.450000e+02 2.691627e-02
6.460000e+02 2.899150e-02
6.470000e+02 3.121912e-02
6.480000e+02 3.360989e-02
6.490000e+02 3.617520e-02
6.500000e+02 3.892697e-02
6.510000e+02 4.187817e-02
6.520000e+02 4.504252e-02
6.530000e+02 4.843463e-02
6.540000e+02 5.206949e-02
6.550000e+02 5.596475e-02
6.560000e+02 6.013750e-02
6.570000e+02 6.460429e-02
6.580000e+02 6.939182e-02
6.590000e+02 7.451456e-02
6.600000e+02 7.999700e-02
6.610000e+02 8.586415e-02
6.620000e+02 9.214049e-02
6.630000e+02 9.885351e-02
6.640000e+02 1.060321e-01
6.650000e+02 1.137034e-01
6.660000e+02 1.219069e-01
6.670000e+02 1.306731e-01
6.680000e+02 1.400391e-01
6.690000e+02 1.500437e-01
6.700000e+02 1.607277e-01
6.710000e+02 1.721363e-01
6.720000e+02 1.843041e-01
6.730000e+02 1.973127e-01
6.740000e+02 2.111823e-01
6.750000e+02 2.259790e-01
6.760000e+02 2.417615e-01
6.770000e+02 2.585920e-01
6.780000e+02 2.765364e-01
6.790000e+02 2.956645e-01
6.800000e+02 3.160502e-01
6.810000e+02 3.377720e-01
6.820000e+02 3.609127e-01
6.830000e+02 3.855600e-01
6.840000e+02 4.118066e-01
6.850000e+02 4.397487e-01
6.860000e+02 4.694845e-01
6.870000e+02 5.011333e-01
6.880000e+02 5.348259e-01
6.890000e+02 5.706593e-01
6.900000e+02 6.087765e-01
6.910000e+02 6.493109e-01
6.920000e+02 6.924077e-01
6.930000e+02 7.382203e-01
6.940000e+02 7.869113e-01
6.950000e+02 8.386512e-01
6.960000e+02 8.936211e-01
6.970000e+02 9.519858e-01
6.980000e+02 1.014022e+00
6.990000e+02 1.079867e+00
7.000000e+02 1.149770e+00
7.010000e+02 1.223952e+00
7.020000e+02 1.302692e+00
7.030000e+02 1.386238e+00
7.040000e+02 1.474867e+00
7.050000e+02 1.568870e+00
7.060000e+02 1.668511e+00
7.070000e+02 1.774207e+00
7.080000e+02 1.886250e+00
7.090000e+02 2.004978e+00
7.100000e+02 2.130835e+00
7.110000e+02 2.264169e+00
7.120000e+02 2.405411e+00
7.130000e+02 2.555008e+00
7.140000e+02 2.713424e+00
7.150000e+02 2.881149e+00
7.160000e+02 3.058698e+00
7.170000e+02 3.246600e+00
7.180000e+02 3.445399e+00
7.190000e+02 3.655893e+00
7.200000e+02 3.878477e+00
7.210000e+02 4.113899e+00
7.220000e+02 4.362854e+00
7.230000e+02 4.626091e+00
7.240000e+02 4.904366e+00
7.250000e+02 5.198344e+00
7.260000e+02 5.509171e+00
7.270000e+02 5.837604e+00
7.280000e+02 6.184573e+00
7.290000e+02 6.551068e+00
7.300000e+02 6.938107e+00
7.310000e+02 7.346828e+00
7.320000e+02 7.778324e+00
7.330000e+02 8.233803e+00
7.340000e+02 8.714530e+00
7.350000e+02 9.221814e+00
7.360000e+02 9.757019e+00
7.370000e+02 1.032167e+01
7.380000e+02 1.091720e+01
7.390000e+02 1.154525e+01
7.400000e+02 1.220738e+01
7.410000e+02 1.290561e+01
7.420000e+02 1.364126e+01
7.430000e+02 1.441650e+01
7.440000e+02 1.523377e+01
7.450000e+02 1.609485e+01
7.460000e+02 1.700196e+01
7.470000e+02 1.795739e+01
7.480000e+02 1.896358e+01
7.490000e+02 2.002307e+01
7.500000e+02 2.113850e+01
7.510000e+02 2.231266e+01
7.520000e+02 2.354845e+01
7.530000e+02 2.484893e+01
7.540000e+02 2.621726e+01
7.550000e+02 2.765676e+01
7.560000e+02 2.917096e+01
7.570000e+02 3.076224e+01
7.580000e+02 3.243807e+01
7.590000e+02 3.419851e+01
7.600000e+02 3.604856e+01
7.610000e+02 3.799416e+01
7.620000e+02 4.003889e+01
7.630000e+02 4.218745e+01
7.640000e+02 4.444484e+01
7.650000e+02 4.681622e+01
7.660000e+02 4.930713e+01
7.670000e+02 5.192309e+01
7.680000e+02 5.466951e+01
7.690000e+02 5.755416e+01
7.700000e+02 6.058184e+01
7.710000e+02 6.375976e+01
7.720000e+02 6.709493e+01
7.730000e+02 7.059472e+01
7.740000e+02 7.426670e+01
7.750000e+02 7.811884e+01
7.760000e+02 8.214198e+01
7.770000e+02 8.639422e+01
7.780000e+02 9.083793e+01
7.790000e+02 9.549582e+01
7.800000e+02 1.003802e+02
7.810000e+02 1.055002e+02
7.820000e+02 1.108663e+02
7.830000e+02 1.164896e+02
7.840000e+02 1.223818e+02
7.850000e+02 1.285549e+02
7.860000e+02 1.350211e+02
7.870000e+02 1.417950e+02
7.880000e+02 1.488881e+02
7.890000e+02 1.563155e+02
7.900000e+02 1.640915e+02
7.910000e+02 1.722327e+02
7.920000e+02 1.807540e+02
7.930000e+02 1.896722e+02
7.940000e+02 1.989980e+02
7.950000e+02 2.087627e+02
7.960000e+02 2.189785e+02
7.970000e+02 2.296650e+02
7.980000e+02 2.408422e+02
7.990000e+02 2.525308e+02
8.000000e+02 2.647542e+02
8.010000e+02 2.775334e+02
8.020000e+02 2.908952e+02
8.030000e+02 3.048611e+02
8.040000e+02 3.194579e+02
8.050000e+02 3.347123e+02
8.060000e+02 3.506519e+02
8.070000e+02 3.673055e+02
8.080000e+02 3.847031e+02
8.090000e+02 4.028684e+02
8.100000e+02 4.218478e+02
8.110000e+02 4.416682e+02
8.120000e+02 4.623629e+02
8.130000e+02 4.839717e+02
8.140000e+02 5.065214e+02
8.150000e+02 5.300645e+02
8.160000e+02 5.546396e+02
8.170000e+02 5.802828e+02
8.180000e+02 6.070421e+02
8.190000e+02 6.349598e+02
8.200000e+02 6.640837e+02
8.210000e+02 6.944628e+02
8.220000e+02 7.261475e+02
8.230000e+02 7.591896e+02
8.240000e+02 7.936447e+02
8.250000e+02 8.295680e+02
8.260000e+02 8.670174e+02
8.270000e+02 9.060551e+02
8.280000e+02 9.467431e+02
8.290000e+02 9.891463e+02
8.300000e+02 1.033333e+03
8.310000e+02 1.079372e+03
8.320000e+02 1.127336e+03
8.330000e+02 1.177301e+03
8.340000e+02 1.229343e+03
8.350000e+02 1.283324e+03
8.360000e+02 1.339975e+03
8.370000e+02 1.398759e+03
8.380000e+02 1.459929e+03
8.390000e+02 1.523652e+03
8.400000e+02 1.589960e+03
8.410000e+02 1.658970e+03
8.420000e+02 1.730734e+03
8.430000e+02 1.805537e+03
8.440000e+02 1.883303e+03
8.450000e+02 1.964208e+03
8.460000e+02 2.048340e+03
8.470000e+02 2.135883e+03
8.480000e+02 2.226932e+03
8.490000e+02 2.321619e+03
8.500000e+02 2.420079e+03
8.510000e+02 2.522451e+03
8.520000e+02 2.628872e+03
8.530000e+02 2.739515e+03
8.540000e+02 2.854539e+03
8.550000e+02 2.974060e+03
8.560000e+02 3.098267e+03
8.570000e+02 3.227332e+03
8.580000e+02 3.361431e+03
8.590000e+02 3.500750e+03
8.600000e+02 3.645474e+03
8.610000e+02 3.795799e+03
8.620000e+02 3.951927e+03
8.630000e+02 4.114055e+03
8.640000e+02 4.282429e+03
8.650000e+02 4.457222e+03
8.660000e+02 4.638730e+03
8.670000e+02 4.827133e+03
8.680000e+02 5.022697e+03
8.690000e+02 5.225671e+03
8.700000e+02 5.436295e+03
8.710000e+02 5.654864e+03
8.720000e+02 5.881672e+03
8.730000e+02 6.116988e+03
8.740000e+02 6.361107e+03
8.750000e+02 6.614335e+03
8.760000e+02 6.876875e+03
8.770000e+02 7.149239e+03
8.780000e+02 7.431760e+03
8.790000e+02 7.724677e+03
8.800000e+02 8.028384e+03
8.810000e+02 8.343249e+03
8.820000e+02 8.669646e+03
8.830000e+02 9.007986e+03
8.840000e+02 9.358653e+03
8.850000e+02 9.722067e+03
8.860000e+02 1.009868e+04
8.870000e+02 1.048891e+04
8.880000e+02 1.089321e+04
8.890000e+02 1.131208e+04
8.900000e+02 1.174598e+04
8.910000e+02 1.219542e+04
8.920000e+02 1.262750e+04
8.930000e+02 1.314299e+04
8.940000e+02 1.364220e+04
8.950000e+02 1.415909e+04
8.960000e+02 1.469430e+04
8.970000e+02 1.524836e+04
8.980000e+02 1.582192e+04
8.990000e+02 1.641559e+04
9.000000e+02 1.703004e+04
9.010000e+02 1.766596e+04
9.020000e+02 1.832403e+04
9.030000e+02 1.900494e+04
9.040000e+02 1.970865e+04
9.050000e+02 2.043793e+04
9.060000e+02 2.119199e+04
9.070000e+02 2.197118e+04
9.080000e+02 2.277859e+04
9.090000e+02 2.361288e+04
9.100000e+02 2.447564e+04
9.110000e+02 2.536797e+04
9.120000e+02 2.629160e+04
9.130000e+02 2.647792e+04
9.140000e+02 2.907523e+04
9.150000e+02 1.479124e+05
9.160000e+02 6.103011e+05
9.170000e+02 6.517157e+05
9.180000e+02 6.501981e+05
9.190000e+02 7.055039e+05
9.200000e+02 7.290216e+05
9.210000e+02 3.374517e+04
9.220000e+02 7.708183e+05
9.230000e+02 7.589521e+05
9.240000e+02 7.030552e+05
9.250000e+02 8.222213e+05
9.260000e+02 8.457081e+05
9.270000e+02 8.844062e+05
9.280000e+02 9.075016e+05
9.290000e+02 7.884409e+05
9.300000e+02 9.472852e+05
9.310000e+02 9.669070e+05
9.320000e+02 1.017773e+06
9.330000e+02 1.042742e+06
9.340000e+02 1.074443e+06
9.350000e+02 3.783626e+05
9.360000e+02 1.129428e+06
9.370000e+02 2.500515e+05
9.380000e+02 5.947211e+05
9.390000e+02 1.227422e+06
9.400000e+02 1.264020e+06
9.410000e+02 7.399018e+05
9.420000e+02 1.333982e+06
9.430000e+02 1.370514e+06
9.440000e+02 8.309246e+05
9.450000e+02 1.444875e+06
9.460000e+02 1.482171e+06
9.470000e+02 9.245409e+05
9.480000e+02 1.436737e+06
9.490000e+02 1.583700e+06
9.500000e+02 3.344292e+05
9.510000e+02 1.610642e+06
9.520000e+02 1.736872e+06
9.530000e+02 1.766875e+06
9.540000e+02 1.435069e+06
9.550000e+02 1.880853e+06
9.560000e+02 1.729390e+06
9.570000e+02 1.613681e+06
9.580000e+02 2.021001e+06
9.590000e+02 2.096506e+06
9.600000e+02 5.002901e+05
9.610000e+02 2.205446e+06
9.620000e+02 2.265002e+06
9.630000e+02 2.326760e+06
9.640000e+02 1.662221e+05
9.650000e+02 2.168056e+06
9.660000e+02 2.511100e+06
9.670000e+02 2.555726e+06
9.680000e+02 2.621781e+06
9.690000e+02 2.683802e+06
9.700000e+02 2.765757e+06
9.710000e+02 2.807054e+06
9.720000e+02 2.568191e+06
9.730000e+02 2.539510e+06
9.740000e+02 3.006278e+06
9.750000e+02 3.135184e+06
9.760000e+02 3.225018e+06
9.770000e+02 3.310418e+06
9.780000e+02 3.386098e+06
9.790000e+02 3.483514e+06
9.800000e+02 3.569329e+06
9.810000e+02 3.661802e+06
9.820000e+02 3.733391e+06
9.830000e+02 3.843984e+06
9.840000e+02 1.238980e+06
9.850000e+02 4.039382e+06
9.860000e+02 4.138991e+06
9.870000e+02 4.239838e+06
9.880000e+02 4.324614e+06
9.890000e+02 3.203836e+06
9.900000e+02 4.530372e+05
9.910000e+02 4.626125e+06
9.920000e+02 4.047405e+06
9.930000e+02 4.514098e+06
9.940000e+02 7.521060e+05
9.950000e+02 1.045295e+06
9.960000e+02 1.485848e+06
9.970000e+02 1.026050e+06
9.980000e+02 5.508848e+06
9.990000e+02 5.502668e+06
1.000000e+03 5.799217e+06
1.001000e+03 5.938667e+06
1.002000e+03 6.077346e+06
1.003000e+03 5.658994e+06
1.004000e+03 6.368991e+06
1.005000e+03 5.756830e+06
1.006000e+03 6.678286e+06
1.007000e+03 6.818691e+06
1.008000e+03 6.981732e+06
1.009000e+03 6.957337e+06
1.010000e+03 7.326668e+06
1.011000e+03 7.496807e+06
1.012000e+03 7.669618e+06
1.013000e+03 7.847359e+06
1.014000e+03 7.998226e+06
1.015000e+03 8.072917e+06
1.016000e+03 8.382211e+06
1.017000e+03 8.554938e+06
1.018000e+03 8.765237e+06
1.019000e+03 8.947873e+06
1.020000e+03 9.135013e+06
1.021000e+03 6.750026e+06
1.022000e+03 9.060803e+06
1.023000e+03 9.445833e+06
1.024000e+03 8.901060e+06
1.025000e+03 6.234434e+06
1.026000e+03 2.491066e+06
1.027000e+03 8.850231e+06
1.028000e+03 3.296849e+06
1.029000e+03 1.095345e+07
1.030000e+03 1.120420e+07
1.031000e+03 1.170522e+07
1.032000e+03 1.194090e+07
1.033000e+03 7.272768e+06
1.034000e+03 1.260662e+07
1.035000e+03 2.913860e+06
1.036000e+03 1.274629e+07
1.037000e+03 1.505938e+06
1.038000e+03 1.380184e+07
1.039000e+03 1.396032e+07
1.040000e+03 1.443724e+07
1.041000e+03 1.467602e+07
1.042000e+03 1.486196e+07
1.043000e+03 1.517397e+07
1.044000e+03 1.572075e+07
1.045000e+03 1.607449e+07
1.046000e+03 1.647366e+07
1.047000e+03 1.682304e+07
1.048000e+03 1.709323e+07
1.049000e+03 1.684414e+07
1.050000e+03 1.796083e+07
1.051000e+03 1.835370e+07
1.052000e+03 1.875383e+07
1.053000e+03 1.890215e+07
1.054000e+03 1.947996e+07
1.055000e+03 1.991138e+07
1.056000e+03 2.042492e+07
1.057000e+03 2.085414e+07
1.058000e+03 2.129050e+07
1.059000e+03 2.175228e+07
1.060000e+03 2.221243e+07
1.061000e+03 2.269897e+07
1.062000e+03 2.317884e+07
1.063000e+03 1.124997e+07
1.064000e+03 4.963084e+06
1.065000e+03 2.481420e+07
1.066000e+03 2.281827e+07
1.067000e+03 2.509997e+07
1.068000e+03 2.648866e+07
1.069000e+03 2.670473e+07
1.070000e+03 2.725787e+07
1.071000e+03 2.820427e+07
1.072000e+03 2.878796e+07
1.073000e+03 2.933258e+07
1.074000e+03 2.999217e+07
1.075000e+03 3.060248e+07
1.076000e+03 3.124523e+07
1.077000e+03 3.185201e+07
1.078000e+03 3.253215e+07
1.079000e+03 3.308279e+07
1.080000e+03 3.387254e+07
1.081000e+03 3.457905e+07
1.082000e+03 3.526083e+07
1.083000e+03 3.595354e+07
1.084000e+03 3.566516e+07
1.085000e+03 2.480266e+07
1.086000e+03 3.823986e+07
1.087000e+03 3.898174e+07
1.088000e+03 3.962325e+07
1.089000e+03 4.058210e+07
1.090000e+03 4.134475e+07
1.091000e+03 4.217075e+07
1.092000e+03 4.306403e+07
1.093000e+03 4.387683e+07
1.094000e+03 4.480028e+07
1.095000e+03 4.564349e+07
1.096000e+03 4.658273e+07
1.097000e+03 4.683082e+07
1.098000e+03 4.781648e+07
1.099000e+03 4.934296e+07
1.100000e+03 4.908245e+07
1.101000e+03 4.663862e+07
1.102000e+03 1.077889e+08
1.103000e+03 3.660797e+08
1.104000e+03 1.350885e+08
1.105000e+03 5.066323e+07
1.106000e+03 1.003173e+09
1.107000e+03 9.105533e+08
1.108000e+03 1.018389e+09
1.109000e+03 5.165407e+08
1.110000e+03 1.382206e+08
1.111000e+03 1.205194e+08
1.112000e+03 8.892346e+08
1.113000e+03 1.119183e+09
1.114000e+03 3.945498e+07
1.115000e+03 1.066197e+09
1.116000e+03 1.134054e+09
1.117000e+03 4.349517e+07
1.118000e+03 7.060118e+08
1.119000e+03 1.200999e+09
1.120000e+03 1.206226e+09
1.121000e+03 9.770548e+08
1.122000e+03 1.279930e+07
1.123000e+03 9.735181e+07
1.124000e+03 1.283790e+09
1.125000e+03 4.333516e+08
1.126000e+03 1.330007e+09
1.127000e+03 1.263039e+09
1.128000e+03 6.725536e+08
1.129000e+03 1.345879e+09
1.130000e+03 1.067601e+09
1.131000e+03 1.436274e+09
1.132000e+03 3.523750e+07
1.133000e+03 1.100716e+09
1.134000e+03 1.397371e+09
1.135000e+03 2.093555e+07
1.136000e+03 1.502761e+09
1.137000e+03 1.558465e+09
1.138000e+03 1.584756e+09
1.139000e+03 1.553883e+09
1.140000e+03 2.557594e+07
1.141000e+03 1.656967e+09
1.142000e+03 1.596652e+09
1.143000e+03 1.694165e+09
1.144000e+03 1.725209e+09
1.145000e+03 1.264280e+09
1.146000e+03 1.769264e+09
1.147000e+03 1.750695e+09
1.148000e+03 1.764491e+09
1.149000e+03 1.842886e+09
1.150000e+03 1.799288e+09
1.151000e+03 1.873613e+09
1.152000e+03 1.905555e+09
1.153000e+03 3.534263e+08
1.154000e+03 6.070605e+07
1.155000e+03 1.141864e+09
1.156000e+03 4.059616e+08
1.157000e+03 2.041513e+09
1.158000e+03 3.968748e+07
1.159000e+03 1.640068e+09
1.160000e+03 2.029246e+09
1.161000e+03 2.176416e+09
1.162000e+03 3.052826e+08
1.163000e+03 2.183230e+09
1.164000e+03 8.158874e+07
1.165000e+03 2.291079e+09
1.166000e+03 2.288993e+09
1.167000e+03 2.231440e+09
1.168000e+03 2.387745e+09
1.169000e+03 2.310591e+09
1.170000e+03 2.453682e+09
1.171000e+03 2.485742e+09
1.172000e+03 2.438341e+09
1.173000e+03 2.540657e+09
1.174000e+03 2.448904e+09
1.175000e+03 8.849587e+07
1.176000e+03 6.278502e+07
1.177000e+03 2.648213e+09
1.178000e+03 2.413915e+09
1.179000e+03 2.722014e+09
1.180000e+03 2.168600e+09
1.181000e+03 2.736576e+09
1.182000e+03 2.807665e+09
1.183000e+03 2.830082e+09
1.184000e+03 2.852697e+09
1.185000e+03 2.771413e+09
1.186000e+03 2.879789e+09
1.187000e+03 2.901124e+09
1.188000e+03 2.851040e+09
1.189000e+03 6.544512e+07
1.190000e+03 3.496540e+08
1.191000e+03 2.830892e+09
1.192000e+03 2.835672e+09
1.193000e+03 5.533760e+07
1.194000e+03 7.585766e+07
1.195000e+03 1.691583e+09
1.196000e+03 2.767988e+09
1.197000e+03 3.122084e+09
1.198000e+03 3.131006e+09
1.199000e+03 3.005368e+09
1.200000e+03 2.605169e+09
1.201000e+03 2.728835e+09
1.202000e+03 2.670383e+09
1.203000e+03 2.715106e+09
1.204000e+03 2.438133e+09
1.205000e+03 2.234961e+09
1.206000e+03 1.879755e+09
1.207000e+03 8.046803e+08
1.208000e+03 1.442919e+09
1.209000e+03 1.089330e+09
1.210000e+03 1.309403e+08
1.211000e+03 6.408977e+08
1.212000e+03 4.178114e+08
1.213000e+03 2.625489e+08
1.214000e+03 1.547037e+08
1.215000e+03 9.746763e+07
1.216000e+03 8.691551e+07
1.217000e+03 1.367529e+08
1.218000e+03 2.383598e+08
1.219000e+03 4.096906e+08
1.220000e+03 6.523320e+08
1.221000e+03 9.571956e+08
1.222000e+03 1.311440e+09
1.223000e+03 1.703561e+09
1.224000e+03 2.124184e+09
1.225000e+03 2.560622e+09
1.226000e+03 3.001663e+09
1.227000e+03 3.440383e+09
1.228000e+03 3.944228e+09
1.229000e+03 4.398639e+09
1.230000e+03 4.862930e+09
1.231000e+03 5.321871e+09
1.232000e+03 5.784011e+09
1.233000e+03 6.226002e+09
1.234000e+03 3.774919e+09
1.235000e+03 7.067658e+09
1.236000e+03 7.469175e+09
1.237000e+03 7.879691e+09
1.238000e+03 8.273690e+09
1.239000e+03 8.654370e+09
1.240000e+03 8.212228e+09
1.241000e+03 1.470502e+10
1.242000e+03 8.053201e+09
1.243000e+03 1.203257e+10
1.244000e+03 4.892930e+09
1.245000e+03 7.534967e+09
1.246000e+03 2.413835e+10
1.247000e+03 2.556361e+10
1.248000e+03 5.483453e+09
1.249000e+03 6.891749e+09
1.250000e+03 3.093000e+10
1.251000e+03 3.195023e+10
1.252000e+03 3.263675e+10
1.253000e+03 3.590950e+10
1.254000e+03 3.674604e+10
1.255000e+03 3.858928e+10
1.256000e+03 3.968906e+10
1.257000e+03 4.213941e+10
1.258000e+03 4.225971e+10
1.259000e+03 4.064505e+10
1.260000e+03 3.000646e+10
1.261000e+03 2.104214e+08
1.262000e+03 3.346012e+09
1.263000e+03 4.787136e+10
1.264000e+03 3.985999e+10
1.265000e+03 1.957120e+08
1.266000e+03 5.108697e+10
1.267000e+03 5.665311e+10
