# wavelength_A flux
5.000000e+02 2.236522e-20
5.010000e+02 2.685042e-20
5.020000e+02 3.221089e-20
5.030000e+02 3.861269e-20
5.040000e+02 4.625241e-20
5.050000e+02 4.967007e-20
5.060000e+02 5.946039e-20
5.070000e+02 7.112803e-20
5.080000e+02 8.502287e-20
5.090000e+02 1.015580e-19
5.100000e+02 1.212225e-19
5.110000e+02 1.445875e-19
5.120000e+02 1.723346e-19
5.130000e+02 2.052604e-19
5.140000e+02 2.443044e-19
5.150000e+02 2.905884e-19
5.160000e+02 3.453585e-19
5.170000e+02 4.102688e-19
5.180000e+02 4.868589e-19
5.190000e+02 5.774601e-19
5.200000e+02 6.844557e-19
5.210000e+02 8.107335e-19
5.220000e+02 9.601500e-19
5.230000e+02 1.135184e-18
5.240000e+02 1.341872e-18
5.250000e+02 1.585155e-18
5.260000e+02 1.871336e-18
5.270000e+02 2.207740e-18
5.280000e+02 2.602921e-18
5.290000e+02 3.070498e-18
5.300000e+02 3.611170e-18
5.310000e+02 4.249344e-18
5.320000e+02 4.997108e-18
5.330000e+02 5.872769e-18
5.340000e+02 6.897543e-18
5.350000e+02 8.096107e-18
5.360000e+02 9.497321e-18
5.370000e+02 1.175069e-17
5.380000e+02 1.304484e-17
5.390000e+02 1.527350e-17
5.400000e+02 1.787087e-17
5.410000e+02 2.090726e-17
5.420000e+02 2.442648e-17
5.430000e+02 2.853015e-17
5.440000e+02 3.330472e-17
5.450000e+02 3.885535e-17
5.460000e+02 4.534269e-17
5.470000e+02 5.279301e-17
5.480000e+02 6.148402e-17
5.490000e+02 7.156362e-17
5.500000e+02 8.324837e-17
5.510000e+02 9.678532e-17
5.520000e+02 1.124597e-16
5.530000e+02 1.305988e-16
5.540000e+02 1.515782e-16
5.550000e+02 1.758295e-16
5.560000e+02 2.038474e-16
5.570000e+02 2.361992e-16
5.580000e+02 2.735350e-16
5.590000e+02 3.165991e-16
5.600000e+02 3.662436e-16
5.610000e+02 4.234435e-16
5.620000e+02 4.893136e-16
5.630000e+02 5.651277e-16
5.640000e+02 6.523410e-16
5.650000e+02 7.526225e-16
5.660000e+02 8.678452e-16
5.670000e+02 1.000196e-15
5.680000e+02 1.152126e-15
5.690000e+02 1.326449e-15
5.700000e+02 1.526365e-15
5.710000e+02 1.755503e-15
5.720000e+02 2.018014e-15
5.730000e+02 2.318604e-15
5.740000e+02 2.662625e-15
5.750000e+02 3.055950e-15
5.760000e+02 3.507755e-15
5.770000e+02 4.020026e-15
5.780000e+02 4.607317e-15
5.790000e+02 5.277815e-15
5.800000e+02 6.042942e-15
5.810000e+02 6.915646e-15
5.820000e+02 7.910622e-15
5.830000e+02 9.044764e-15
5.840000e+02 1.034829e-14
5.850000e+02 1.180874e-14
5.860000e+02 1.347816e-14
5.870000e+02 1.538003e-14
5.880000e+02 1.754228e-14
5.890000e+02 2.000067e-14
5.900000e+02 2.279012e-14
5.910000e+02 2.595855e-14
5.920000e+02 2.955339e-14
5.930000e+02 3.363100e-14
5.940000e+02 3.825385e-14
5.950000e+02 4.349254e-14
5.960000e+02 4.942631e-14
5.970000e+02 5.614457e-14
5.980000e+02 6.374765e-14
5.990000e+02 7.234828e-14
6.000000e+02 8.207312e-14
6.010000e+02 9.312671e-14
6.020000e+02 1.054816e-13
6.030000e+02 1.195040e-13
6.040000e+02 1.353313e-13
6.050000e+02 1.531896e-13
6.060000e+02 1.733307e-13
6.070000e+02 1.960356e-13
6.080000e+02 2.216215e-13
6.090000e+02 2.504413e-13
6.100000e+02 2.828921e-13
6.110000e+02 3.194108e-13
6.120000e+02 3.604964e-13
6.130000e+02 4.066991e-13
6.140000e+02 4.586350e-13
6.150000e+02 5.169919e-13
6.160000e+02 5.825376e-13
6.170000e+02 6.561279e-13
6.180000e+02 7.387175e-13
6.190000e+02 8.313703e-13
6.200000e+02 9.352708e-13
6.210000e+02 1.051740e-12
6.220000e+02 1.182246e-12
6.230000e+02 1.328425e-12
6.240000e+02 1.492095e-12
6.250000e+02 1.675279e-12
6.260000e+02 1.880226e-12
6.270000e+02 2.109434e-12
6.280000e+02 2.365675e-12
6.290000e+02 2.652034e-12
6.300000e+02 2.971935e-12
6.310000e+02 3.334034e-12
6.320000e+02 3.727913e-12
6.330000e+02 4.173269e-12
6.340000e+02 4.669215e-12
6.350000e+02 5.222831e-12
6.360000e+02 5.839774e-12
6.370000e+02 6.526907e-12
6.380000e+02 7.292516e-12
6.390000e+02 8.144973e-12
6.400000e+02 9.093793e-12
6.410000e+02 1.014949e-11
6.420000e+02 1.132369e-11
6.430000e+02 1.262924e-11
6.440000e+02 1.408031e-11
6.450000e+02 1.569258e-11
6.460000e+02 1.748331e-11
6.470000e+02 1.947159e-11
6.480000e+02 2.167844e-11
6.490000e+02 2.412705e-11
6.500000e+02 2.684322e-11
6.510000e+02 2.985446e-11
6.520000e+02 3.319237e-11
6.530000e+02 3.689099e-11
6.540000e+02 4.098788e-11
6.550000e+02 4.552442e-11
6.560000e+02 5.054615e-11
6.570000e+02 5.610701e-11
6.580000e+02 6.225032e-11
6.590000e+02 6.904827e-11
6.600000e+02 7.656431e-11
6.610000e+02 8.486873e-11
6.620000e+02 9.404436e-11
6.630000e+02 1.041782e-10
6.640000e+02 1.153668e-10
6.650000e+02 1.277169e-10
6.660000e+02 1.413420e-10
6.670000e+02 1.563718e-10
6.680000e+02 1.729451e-10
6.690000e+02 1.912146e-10
6.700000e+02 2.113477e-10
6.710000e+02 2.335277e-10
6.720000e+02 2.579551e-10
6.730000e+02 2.848495e-10
6.740000e+02 3.144509e-10
6.750000e+02 3.470221e-10
6.760000e+02 3.828501e-10
6.770000e+02 4.222487e-10
6.780000e+02 4.655609e-10
6.790000e+02 5.131612e-10
6.800000e+02 5.654587e-10
6.810000e+02 6.229000e-10
6.820000e+02 6.859726e-10
6.830000e+02 7.552078e-10
6.840000e+02 8.311867e-10
6.850000e+02 9.145506e-10
6.860000e+02 1.005961e-09
6.870000e+02 1.106203e-09
6.880000e+02 1.216071e-09
6.890000e+02 1.336472e-09
6.900000e+02 1.468373e-09
6.910000e+02 1.612831e-09
6.920000e+02 1.770998e-09
6.930000e+02 1.944126e-09
6.940000e+02 2.133576e-09
6.950000e+02 2.340832e-09
6.960000e+02 2.567504e-09
6.970000e+02 2.815432e-09
6.980000e+02 3.086252e-09
6.990000e+02 3.382297e-09
7.000000e+02 3.705723e-09
7.010000e+02 4.058969e-09
7.020000e+02 4.444677e-09
7.030000e+02 4.865722e-09
7.040000e+02 5.325215e-09
7.050000e+02 5.826537e-09
7.060000e+02 6.373372e-09
7.070000e+02 6.969630e-09
7.080000e+02 7.619676e-09
7.090000e+02 8.328259e-09
7.100000e+02 9.100118e-09
7.110000e+02 9.941037e-09
7.120000e+02 1.085684e-08
7.130000e+02 1.185393e-08
7.140000e+02 1.293926e-08
7.150000e+02 1.412035e-08
7.160000e+02 1.540526e-08
7.170000e+02 1.680297e-08
7.180000e+02 1.832307e-08
7.190000e+02 1.997468e-08
7.200000e+02 2.177029e-08
7.210000e+02 2.372137e-08
7.220000e+02 2.584086e-08
7.230000e+02 2.814274e-08
7.240000e+02 3.064209e-08
7.250000e+02 3.335520e-08
7.260000e+02 3.629975e-08
7.270000e+02 3.949433e-08
7.280000e+02 4.295976e-08
7.290000e+02 4.671795e-08
7.300000e+02 5.079266e-08
7.310000e+02 5.520952e-08
7.320000e+02 5.999612e-08
7.330000e+02 6.518220e-08
7.340000e+02 7.079977e-08
7.350000e+02 7.688334e-08
7.360000e+02 8.347018e-08
7.370000e+02 9.059977e-08
7.380000e+02 9.831560e-08
7.390000e+02 1.066638e-07
7.400000e+02 1.156950e-07
7.410000e+02 1.254600e-07
7.420000e+02 1.360203e-07
7.430000e+02 1.474333e-07
7.440000e+02 1.597689e-07
7.450000e+02 1.730974e-07
7.460000e+02 1.874956e-07
7.470000e+02 2.030458e-07
7.480000e+02 2.198365e-07
7.490000e+02 2.379627e-07
7.500000e+02 2.575264e-07
7.510000e+02 2.786368e-07
7.520000e+02 3.014115e-07
7.530000e+02 3.259762e-07
7.540000e+02 3.524660e-07
7.550000e+02 3.810257e-07
7.560000e+02 4.118103e-07
7.570000e+02 4.450102e-07
7.580000e+02 4.807318e-07
7.590000e+02 5.192418e-07
7.600000e+02 5.607088e-07
7.610000e+02 6.053621e-07
7.620000e+02 6.534335e-07
7.630000e+02 7.051752e-07
7.640000e+02 7.608544e-07
7.650000e+02 8.207597e-07
7.660000e+02 8.851955e-07
7.670000e+02 9.544937e-07
7.680000e+02 1.029017e-06
7.690000e+02 1.109104e-06
7.700000e+02 1.195193e-06
7.710000e+02 1.287703e-06
7.720000e+02 1.387092e-06
7.730000e+02 1.493850e-06
7.740000e+02 1.608502e-06
7.750000e+02 1.731605e-06
7.760000e+02 1.864273e-06
7.770000e+02 2.005597e-06
7.780000e+02 2.157802e-06
7.790000e+02 2.321101e-06
7.800000e+02 2.496267e-06
7.810000e+02 2.684127e-06
7.820000e+02 2.885561e-06
7.830000e+02 3.101511e-06
7.840000e+02 3.332975e-06
7.850000e+02 3.581024e-06
7.860000e+02 3.846804e-06
7.870000e+02 4.131479e-06
7.880000e+02 4.436409e-06
7.890000e+02 4.762941e-06
7.900000e+02 5.112539e-06
7.910000e+02 5.486765e-06
7.920000e+02 5.887279e-06
7.930000e+02 6.315849e-06
7.940000e+02 6.774357e-06
7.950000e+02 7.264803e-06
7.960000e+02 7.789318e-06
7.970000e+02 8.350167e-06
7.980000e+02 8.949758e-06
7.990000e+02 9.590652e-06
8.000000e+02 1.027557e-05
8.010000e+02 1.100745e-05
8.020000e+02 1.178924e-05
8.030000e+02 1.262434e-05
8.040000e+02 1.351617e-05
8.050000e+02 1.446842e-05
8.060000e+02 1.548501e-05
8.070000e+02 1.657009e-05
8.080000e+02 1.772808e-05
8.090000e+02 1.896366e-05
8.100000e+02 2.028181e-05
8.110000e+02 2.168780e-05
8.120000e+02 2.318723e-05
8.130000e+02 2.478603e-05
8.140000e+02 2.649051e-05
8.150000e+02 2.830735e-05
8.160000e+02 3.024360e-05
8.170000e+02 3.230682e-05
8.180000e+02 3.450488e-05
8.190000e+02 3.684628e-05
8.200000e+02 3.933994e-05
8.210000e+02 4.199530e-05
8.220000e+02 4.482240e-05
8.230000e+02 4.783184e-05
8.240000e+02 5.103487e-05
8.250000e+02 5.444338e-05
8.260000e+02 5.806996e-05
8.270000e+02 6.192796e-05
8.280000e+02 6.603146e-05
8.290000e+02 7.039541e-05
8.300000e+02 7.503556e-05
8.310000e+02 7.996865e-05
8.320000e+02 8.521231e-05
8.330000e+02 9.078524e-05
8.340000e+02 9.670715e-05
8.350000e+02 1.030118e-04
8.360000e+02 1.096834e-04
8.370000e+02 1.167816e-04
8.380000e+02 1.243232e-04
8.390000e+02 1.323251e-04
8.400000e+02 1.408232e-04
8.410000e+02 1.498436e-04
8.420000e+02 1.594209e-04
8.430000e+02 1.695759e-04
8.440000e+02 1.803544e-04
8.450000e+02 1.917884e-04
8.460000e+02 2.039161e-04
8.470000e+02 2.167777e-04
8.480000e+02 2.304154e-04
8.490000e+02 2.448740e-04
8.500000e+02 2.602006e-04
8.510000e+02 2.764450e-04
8.520000e+02 2.936602e-04
8.530000e+02 3.118994e-04
8.540000e+02 3.312210e-04
8.550000e+02 3.516895e-04
8.560000e+02 3.733677e-04
8.570000e+02 3.963239e-04
8.580000e+02 4.206299e-04
8.590000e+02 4.463613e-04
8.600000e+02 4.735978e-04
8.610000e+02 5.024234e-04
8.620000e+02 5.329264e-04
8.630000e+02 5.652009e-04
8.640000e+02 5.993419e-04
8.650000e+02 6.354581e-04
8.660000e+02 6.736490e-04
8.670000e+02 7.140368e-04
8.680000e+02 7.567389e-04
8.690000e+02 8.018818e-04
8.700000e+02 8.495982e-04
8.710000e+02 9.000280e-04
8.720000e+02 9.533182e-04
8.730000e+02 1.009623e-03
8.740000e+02 1.069106e-03
8.750000e+02 1.131937e-03
8.760000e+02 1.198295e-03
8.770000e+02 1.268374e-03
8.780000e+02 1.342359e-03
8.790000e+02 1.420472e-03
8.800000e+02 1.502925e-03
8.810000e+02 1.589950e-03
8.820000e+02 1.681788e-03
8.830000e+02 1.778691e-03
8.840000e+02 1.880927e-03
8.850000e+02 1.988773e-03
8.860000e+02 2.102524e-03
8.870000e+02 2.222487e-03
8.880000e+02 2.348985e-03
8.890000e+02 2.482356e-03
8.900000e+02 2.622956e-03
8.910000e+02 2.771158e-03
8.920000e+02 2.931313e-03
8.930000e+02 3.091951e-03
8.940000e+02 3.265382e-03
8.950000e+02 3.448098e-03
8.960000e+02 3.640569e-03
8.970000e+02 3.843293e-03
8.980000e+02 4.056788e-03
8.990000e+02 4.281600e-03
9.000000e+02 4.518298e-03
9.010000e+02 4.767479e-03
9.020000e+02 5.029771e-03
9.030000e+02 5.305829e-03
9.040000e+02 5.596339e-03
9.050000e+02 5.902033e-03
9.060000e+02 6.223627e-03
9.070000e+02 6.562032e-03
9.080000e+02 6.917808e-03
9.090000e+02 7.292071e-03
9.100000e+02 7.685643e-03
9.110000e+02 8.099436e-03
9.120000e+02 8.534298e-03
9.130000e+02 9.070159e-03
9.140000e+02 8.584194e-03
9.150000e+02 1.553676e-01
9.160000e+02 2.298917e-01
9.170000e+02 2.399360e-01
9.180000e+02 2.489394e-01
9.190000e+02 2.618813e-01
9.200000e+02 2.732825e-01
9.210000e+02 1.371259e-02
9.220000e+02 2.966227e-01
9.230000e+02 3.055083e-01
9.240000e+02 3.047999e-01
9.250000e+02 3.262544e-01
9.260000e+02 3.463116e-01
9.270000e+02 3.636444e-01
9.280000e+02 3.806978e-01
9.290000e+02 3.879180e-01
9.300000e+02 3.975030e-01
9.310000e+02 3.946431e-01
9.320000e+02 4.489957e-01
9.330000e+02 4.664757e-01
9.340000e+02 4.859283e-01
9.350000e+02 2.659172e-03
9.360000e+02 4.116561e-01
9.370000e+02 3.290978e-03
9.380000e+02 4.748333e-02
9.390000e+02 5.688595e-01
9.400000e+02 6.198565e-01
9.410000e+02 9.497195e-03
9.420000e+02 6.723848e-01
9.430000e+02 6.865061e-01
9.440000e+02 4.239857e-01
9.450000e+02 7.566247e-01
9.460000e+02 7.855974e-01
9.470000e+02 2.711895e-01
9.480000e+02 2.244713e-01
9.490000e+02 8.619655e-01
9.500000e+02 6.811142e-03
9.510000e+02 9.220783e-01
9.520000e+02 1.000968e+00
9.530000e+02 8.606355e-01
9.540000e+02 4.510299e-01
9.550000e+02 1.110234e+00
9.560000e+02 1.959275e-01
9.570000e+02 1.385009e-01
9.580000e+02 5.045995e-01
9.590000e+02 1.354733e+00
9.600000e+02 1.023698e-02
9.610000e+02 1.456770e+00
9.620000e+02 1.511097e+00
9.630000e+02 1.534448e+00
9.640000e+02 8.645761e-02
9.650000e+02 9.772001e-01
9.660000e+02 1.742648e+00
9.670000e+02 1.639581e+00
9.680000e+02 1.593889e+00
9.690000e+02 1.945501e+00
9.700000e+02 2.047393e+00
9.710000e+02 1.882779e+00
9.720000e+02 1.458920e+00
9.730000e+02 1.526465e+00
9.740000e+02 2.295749e+00
9.750000e+02 2.413431e+00
9.760000e+02 2.625672e+00
9.770000e+02 2.740368e+00
9.780000e+02 2.810321e+00
9.790000e+02 2.977387e+00
9.800000e+02 3.087878e+00
9.810000e+02 3.187725e+00
9.820000e+02 3.188898e+00
9.830000e+02 3.467895e+00
9.840000e+02 1.768032e-01
9.850000e+02 3.594887e+00
9.860000e+02 3.791993e+00
9.870000e+02 4.042202e+00
9.880000e+02 2.824642e+00
9.890000e+02 3.202007e+00
9.900000e+02 6.823661e-02
9.910000e+02 3.802612e+00
9.920000e+02 1.070647e+00
9.930000e+02 3.942376e+00
9.940000e+02 1.407380e-01
9.950000e+02 1.105003e-01
9.960000e+02 4.440619e+00
9.970000e+02 5.770063e-02
9.980000e+02 5.990446e+00
9.990000e+02 4.027273e+00
1.000000e+03 6.366601e+00
1.001000e+03 6.840258e+00
1.002000e+03 7.091895e+00
1.003000e+03 6.562033e+00
1.004000e+03 5.237019e+00
1.005000e+03 6.993391e+00
1.006000e+03 8.206844e+00
1.007000e+03 8.491360e+00
1.008000e+03 8.752062e+00
1.009000e+03 8.486650e+00
1.010000e+03 9.474099e+00
1.011000e+03 9.824284e+00
1.012000e+03 1.017007e+01
1.013000e+03 1.053070e+01
1.014000e+03 2.557999e+00
1.015000e+03 6.582876e+00
1.016000e+03 1.105709e+01
1.017000e+03 2.714035e+00
1.018000e+03 1.172764e+01
1.019000e+03 7.660304e+00
1.020000e+03 1.320003e+01
1.021000e+03 4.853630e-01
1.022000e+03 6.987421e+00
1.023000e+03 9.038038e+00
1.024000e+03 7.169751e+00
1.025000e+03 1.119550e+00
1.026000e+03 2.758322e-01
1.027000e+03 7.831337e+00
1.028000e+03 2.209778e-01
1.029000e+03 4.256271e+00
1.030000e+03 1.717090e+01
1.031000e+03 1.896553e+01
1.032000e+03 1.887457e+01
1.033000e+03 3.889694e-01
1.034000e+03 2.158510e+01
1.035000e+03 5.014057e-01
1.036000e+03 5.224630e+00
1.037000e+03 2.426964e+01
1.038000e+03 2.533027e+01
1.039000e+03 2.548809e+01
1.040000e+03 2.716532e+01
1.041000e+03 2.603217e+01
1.042000e+03 2.910476e+01
1.043000e+03 2.338810e+01
1.044000e+03 3.124865e+01
1.045000e+03 3.217195e+01
1.046000e+03 3.348712e+01
1.047000e+03 3.430369e+01
1.048000e+03 2.821882e+01
1.049000e+03 3.126801e+01
1.050000e+03 3.753065e+01
1.051000e+03 3.810783e+01
1.052000e+03 4.107783e+01
1.053000e+03 4.237489e+01
1.054000e+03 1.000096e+01
1.055000e+03 3.936763e+01
1.056000e+03 4.706715e+01
1.057000e+03 4.835544e+01
1.058000e+03 4.875813e+01
1.059000e+03 4.766789e+01
1.060000e+03 4.245399e+01
1.061000e+03 5.545657e+01
1.062000e+03 5.405088e+01
1.063000e+03 7.800629e-01
1.064000e+03 2.603840e+00
1.065000e+03 1.756248e+01
1.066000e+03 1.011729e+01
1.067000e+03 5.528779e+01
1.068000e+03 7.011304e+01
1.069000e+03 4.411543e+01
1.070000e+03 7.411857e+01
1.071000e+03 7.741904e+01
1.072000e+03 7.997181e+01
1.073000e+03 3.306247e+01
1.074000e+03 8.456618e+01
1.075000e+03 8.681783e+01
1.076000e+03 9.062586e+01
1.077000e+03 1.084881e+01
1.078000e+03 9.214916e+01
1.079000e+03 9.832016e+01
1.080000e+03 1.013437e+02
1.081000e+03 1.065825e+02
1.082000e+03 1.095451e+02
1.083000e+03 1.130649e+02
1.084000e+03 1.162584e+02
1.085000e+03 2.506248e+01
1.086000e+03 1.246359e+02
1.087000e+03 1.143439e+02
1.088000e+03 1.306867e+02
1.089000e+03 1.365333e+02
1.090000e+03 1.360477e+02
1.091000e+03 1.395640e+02
1.092000e+03 1.455100e+02
1.093000e+03 1.531055e+02
1.094000e+03 1.577797e+02
1.095000e+03 1.630635e+02
1.096000e+03 1.030961e+02
1.097000e+03 1.577881e+02
1.098000e+03 1.675038e+02
1.099000e+03 1.808830e+02
1.100000e+03 1.167309e+02
1.101000e+03 1.481729e+02
1.102000e+03 4.246407e+02
1.103000e+03 1.467281e+03
1.104000e+03 5.635215e+02
1.105000e+03 1.967893e+02
1.106000e+03 3.103250e+03
1.107000e+03 7.542734e+02
1.108000e+03 3.203411e+03
1.109000e+03 1.730691e+03
1.110000e+03 9.649824e+02
1.111000e+03 5.321587e+02
1.112000e+03 3.153029e+03
1.113000e+03 3.557037e+03
1.114000e+03 1.423721e+02
1.115000e+03 2.911038e+03
1.116000e+03 2.809412e+03
1.117000e+03 1.588938e+02
1.118000e+03 1.976545e+03
1.119000e+03 3.983468e+03
1.120000e+03 3.020423e+03
1.121000e+03 4.017913e+03
1.122000e+03 4.442969e+01
1.123000e+03 4.833242e+02
1.124000e+03 4.370911e+03
1.125000e+03 2.777318e+03
1.126000e+03 4.550235e+03
1.127000e+03 4.383714e+03
1.128000e+03 2.064124e+03
1.129000e+03 4.645645e+03
1.130000e+03 3.874151e+03
1.131000e+03 4.885515e+03
1.132000e+03 1.767578e+01
1.133000e+03 3.990358e+03
1.134000e+03 4.752205e+03
1.135000e+03 1.255518e+01
1.136000e+03 5.080133e+03
1.137000e+03 5.503384e+03
1.138000e+03 5.529578e+03
1.139000e+03 5.592981e+03
1.140000e+03 3.973096e+01
1.141000e+03 5.912838e+03
1.142000e+03 6.014605e+03
1.143000e+03 5.939476e+03
1.144000e+03 6.168988e+03
1.145000e+03 2.406158e+03
1.146000e+03 6.453944e+03
1.147000e+03 6.410438e+03
1.148000e+03 5.513744e+03
1.149000e+03 6.759824e+03
1.150000e+03 6.844558e+03
1.151000e+03 6.951614e+03
1.152000e+03 7.159872e+03
1.153000e+03 2.550040e+03
1.154000e+03 6.513795e+03
1.155000e+03 7.485894e+03
1.156000e+03 2.301104e+03
1.157000e+03 7.691359e+03
1.158000e+03 8.851163e+01
1.159000e+03 7.051478e+03
1.160000e+03 8.084275e+03
1.161000e+03 8.337021e+03
1.162000e+03 2.126757e+03
1.163000e+03 8.335947e+03
1.164000e+03 3.067969e+01
1.165000e+03 8.936185e+03
1.166000e+03 9.125104e+03
1.167000e+03 9.324869e+03
1.168000e+03 9.590875e+03
1.169000e+03 9.374098e+03
1.170000e+03 9.979887e+03
1.171000e+03 1.024297e+04
1.172000e+03 1.039294e+04
1.173000e+03 1.071928e+04
1.174000e+03 7.763360e+03
1.175000e+03 5.038672e+01
1.176000e+03 1.078311e+02
1.177000e+03 1.167631e+04
1.178000e+03 1.182821e+04
1.179000e+03 1.214532e+04
1.180000e+03 1.020353e+04
1.181000e+03 1.259092e+04
1.182000e+03 1.295891e+04
1.183000e+03 1.318481e+04
1.184000e+03 1.339848e+04
1.185000e+03 1.364600e+04
1.186000e+03 1.269133e+04
1.187000e+03 1.405177e+04
1.188000e+03 1.401825e+04
1.189000e+03 1.718418e+02
1.190000e+03 2.850687e+03
1.191000e+03 1.451046e+04
1.192000e+03 1.462677e+04
1.193000e+03 4.957803e+02
1.194000e+03 2.053242e+02
1.195000e+03 1.299593e+04
1.196000e+03 1.480906e+04
1.197000e+03 3.403354e+04
1.198000e+03 3.149621e+04
1.199000e+03 3.172301e+04
1.200000e+03 2.542952e+04
1.201000e+03 2.792291e+04
1.202000e+03 2.693015e+04
1.203000e+03 4.287137e+04
1.204000e+03 3.452291e+04
1.205000e+03 3.050567e+04
1.206000e+03 2.810542e+04
1.207000e+03 4.482891e+02
1.208000e+03 1.471930e+04
1.209000e+03 8.510489e+03
1.210000e+03 2.367661e+02
1.211000e+03 2.763719e+03
1.212000e+03 1.137180e+03
1.213000e+03 4.375892e+02
1.214000e+03 1.575476e+02
1.215000e+03 2.102554e+02
1.216000e+03 5.368708e+02
1.217000e+03 1.387501e+02
1.218000e+03 3.468247e+02
1.219000e+03 1.016085e+03
1.220000e+03 2.604448e+03
1.221000e+03 5.602908e+03
1.222000e+03 1.064534e+04
1.223000e+03 1.755222e+04
1.224000e+03 2.610394e+04
1.225000e+03 3.483011e+04
1.226000e+03 5.091170e+04
1.227000e+03 6.380298e+04
1.228000e+03 7.931486e+04
1.229000e+03 9.767284e+04
1.230000e+03 6.511483e+04
1.231000e+03 1.200497e+05
1.232000e+03 1.505353e+05
1.233000e+03 1.692766e+05
1.234000e+03 7.178992e+04
1.235000e+03 2.055725e+05
1.236000e+03 2.134155e+05
1.237000e+03 2.408755e+05
1.238000e+03 2.582949e+05
1.239000e+03 2.735331e+05
1.240000e+03 1.419504e+05
1.241000e+03 3.572631e+05
1.242000e+03 2.907780e+05
1.243000e+03 3.685862e+05
1.244000e+03 2.252538e+05
1.245000e+03 3.039108e+05
1.246000e+03 5.014160e+05
1.247000e+03 5.140300e+05
1.248000e+03 1.992187e+05
1.249000e+03 3.144158e+05
1.250000e+03 5.375939e+05
1.251000e+03 6.157604e+05
1.252000e+03 6.212182e+05
1.253000e+03 6.588412e+05
1.254000e+03 6.738389e+05
1.255000e+03 5.929554e+05
1.256000e+03 7.047603e+05
1.257000e+03 6.770674e+05
1.258000e+03 7.193284e+05
1.259000e+03 7.588976e+05
1.260000e+03 6.560676e+05
1.261000e+03 2.351724e+03
1.262000e+03 2.002821e+05
1.263000e+03 7.792463e+05
1.264000e+03 7.822821e+05
1.265000e+03 3.587391e+03
1.266000e+03 8.918594e+05
1.267000e+03 9.241527e+05
