# wavelength_A flux
5.000000e+02 7.129610e-22
5.010000e+02 8.610543e-22
5.020000e+02 1.039106e-21
5.030000e+02 1.253012e-21
5.040000e+02 1.509798e-21
5.050000e+02 1.801239e-21
5.060000e+02 2.167514e-21
5.070000e+02 2.606305e-21
5.080000e+02 3.131580e-21
5.090000e+02 3.759919e-21
5.100000e+02 4.510995e-21
5.110000e+02 5.408127e-21
5.120000e+02 6.478943e-21
5.130000e+02 7.756142e-21
5.140000e+02 9.278415e-21
5.150000e+02 1.109153e-20
5.160000e+02 1.324940e-20
5.170000e+02 1.581638e-20
5.180000e+02 1.886628e-20
5.190000e+02 2.248918e-20
5.200000e+02 2.678913e-20
5.210000e+02 3.188914e-20
5.220000e+02 3.793595e-20
5.230000e+02 4.509366e-20
5.240000e+02 5.356810e-20
5.250000e+02 6.359205e-20
5.260000e+02 7.544109e-20
5.270000e+02 8.943810e-20
5.280000e+02 1.059616e-19
5.290000e+02 1.254727e-19
5.300000e+02 1.484362e-19
5.310000e+02 1.755128e-19
5.320000e+02 2.073937e-19
5.330000e+02 2.449073e-19
5.340000e+02 2.890206e-19
5.350000e+02 3.408619e-19
5.360000e+02 4.017478e-19
5.370000e+02 4.748298e-19
5.380000e+02 5.570356e-19
5.390000e+02 6.552892e-19
5.400000e+02 7.704035e-19
5.410000e+02 9.052131e-19
5.420000e+02 1.062890e-18
5.430000e+02 1.247302e-18
5.440000e+02 1.462828e-18
5.450000e+02 1.714561e-18
5.460000e+02 2.008526e-18
5.470000e+02 2.351209e-18
5.480000e+02 2.750888e-18
5.490000e+02 3.216608e-18
5.500000e+02 3.758966e-18
5.510000e+02 4.390209e-18
5.520000e+02 5.124478e-18
5.530000e+02 5.978103e-18
5.540000e+02 6.969919e-18
5.550000e+02 8.121645e-18
5.560000e+02 9.458312e-18
5.570000e+02 1.100875e-17
5.580000e+02 1.280614e-17
5.590000e+02 1.488867e-17
5.600000e+02 1.730024e-17
5.610000e+02 2.009132e-17
5.620000e+02 2.331987e-17
5.630000e+02 2.705244e-17
5.640000e+02 3.136537e-17
5.650000e+02 3.634625e-17
5.660000e+02 4.209546e-17
5.670000e+02 4.872799e-17
5.680000e+02 5.637554e-17
5.690000e+02 6.518880e-17
5.700000e+02 7.534019e-17
5.710000e+02 8.702679e-17
5.720000e+02 1.004739e-16
5.730000e+02 1.159386e-16
5.740000e+02 1.337148e-16
5.750000e+02 1.541370e-16
5.760000e+02 1.775894e-16
5.770000e+02 2.045037e-16
5.780000e+02 2.353798e-16
5.790000e+02 2.707817e-16
5.800000e+02 3.113527e-16
5.810000e+02 3.578247e-16
5.820000e+02 4.110301e-16
5.830000e+02 4.719155e-16
5.840000e+02 5.415787e-16
5.850000e+02 6.211716e-16
5.860000e+02 7.121364e-16
5.870000e+02 8.160369e-16
5.880000e+02 9.346496e-16
5.890000e+02 1.069994e-15
5.900000e+02 1.224356e-15
5.910000e+02 1.400327e-15
5.920000e+02 1.600839e-15
5.930000e+02 1.829209e-15
5.940000e+02 2.089187e-15
5.950000e+02 2.385013e-15
5.960000e+02 2.721478e-15
5.970000e+02 3.103990e-15
5.980000e+02 3.538655e-15
5.990000e+02 4.032365e-15
6.000000e+02 4.592888e-15
6.010000e+02 5.228986e-15
6.020000e+02 5.950529e-15
6.030000e+02 6.768636e-15
6.040000e+02 7.695824e-15
6.050000e+02 8.746183e-15
6.060000e+02 9.935561e-15
6.070000e+02 1.128178e-14
6.080000e+02 1.280486e-14
6.090000e+02 1.452732e-14
6.100000e+02 1.647442e-14
6.110000e+02 1.867454e-14
6.120000e+02 2.115952e-14
6.130000e+02 2.396506e-14
6.140000e+02 2.713120e-14
6.150000e+02 3.070281e-14
6.160000e+02 3.473018e-14
6.170000e+02 3.926959e-14
6.180000e+02 4.438406e-14
6.190000e+02 5.014412e-14
6.200000e+02 5.662864e-14
6.210000e+02 6.392581e-14
6.220000e+02 7.213420e-14
6.230000e+02 8.136393e-14
6.240000e+02 9.173799e-14
6.250000e+02 1.033937e-13
6.260000e+02 1.164842e-13
6.270000e+02 1.311804e-13
6.280000e+02 1.476729e-13
6.290000e+02 1.661742e-13
6.300000e+02 1.869209e-13
6.310000e+02 2.101819e-13
6.320000e+02 2.362351e-13
6.330000e+02 2.654229e-13
6.340000e+02 2.981034e-13
6.350000e+02 3.346812e-13
6.360000e+02 3.756043e-13
6.370000e+02 4.213756e-13
6.380000e+02 4.725470e-13
6.390000e+02 5.297359e-13
6.400000e+02 5.936263e-13
6.410000e+02 6.649778e-13
6.420000e+02 7.446329e-13
6.430000e+02 8.335256e-13
6.440000e+02 9.326919e-13
6.450000e+02 1.043279e-12
6.460000e+02 1.166560e-12
6.470000e+02 1.303942e-12
6.480000e+02 1.456984e-12
6.490000e+02 1.627412e-12
6.500000e+02 1.817134e-12
6.510000e+02 2.028263e-12
6.520000e+02 2.263131e-12
6.530000e+02 2.524319e-12
6.540000e+02 2.814677e-12
6.550000e+02 3.137351e-12
6.560000e+02 3.495819e-12
6.570000e+02 3.893913e-12
6.580000e+02 4.335872e-12
6.590000e+02 4.826359e-12
6.600000e+02 5.370525e-12
6.610000e+02 5.974042e-12
6.620000e+02 6.643165e-12
6.630000e+02 7.384780e-12
6.640000e+02 8.206476e-12
6.650000e+02 9.116602e-12
6.660000e+02 1.012435e-11
6.670000e+02 1.123983e-11
6.680000e+02 1.247416e-11
6.690000e+02 1.383958e-11
6.700000e+02 1.534951e-11
6.710000e+02 1.701874e-11
6.720000e+02 1.886349e-11
6.730000e+02 2.090156e-11
6.740000e+02 2.315253e-11
6.750000e+02 2.563785e-11
6.760000e+02 2.838109e-11
6.770000e+02 3.140806e-11
6.780000e+02 3.474710e-11
6.790000e+02 3.842926e-11
6.800000e+02 4.248856e-11
6.810000e+02 4.696228e-11
6.820000e+02 5.189124e-11
6.830000e+02 5.732014e-11
6.840000e+02 6.329791e-11
6.850000e+02 6.987809e-11
6.860000e+02 7.711924e-11
6.870000e+02 8.508542e-11
6.880000e+02 9.384665e-11
6.890000e+02 1.034794e-10
6.900000e+02 1.140675e-10
6.910000e+02 1.257021e-10
6.920000e+02 1.384831e-10
6.930000e+02 1.525194e-10
6.940000e+02 1.679299e-10
6.950000e+02 1.848443e-10
6.960000e+02 2.034041e-10
6.970000e+02 2.237631e-10
6.980000e+02 2.460913e-10
6.990000e+02 2.705703e-10
7.000000e+02 2.974007e-10
7.010000e+02 3.268001e-10
7.020000e+02 3.590057e-10
7.030000e+02 3.942755e-10
7.040000e+02 4.328908e-10
7.050000e+02 4.751571e-10
7.060000e+02 5.214074e-10
7.070000e+02 5.720033e-10
7.080000e+02 6.273386e-10
7.090000e+02 6.878407e-10
7.100000e+02 7.539748e-10
7.110000e+02 8.262458e-10
7.120000e+02 9.052024e-10
7.130000e+02 9.914405e-10
7.140000e+02 1.085607e-09
7.150000e+02 1.188404e-09
7.160000e+02 1.300593e-09
7.170000e+02 1.423001e-09
7.180000e+02 1.556523e-09
7.190000e+02 1.702136e-09
7.200000e+02 1.860889e-09
7.210000e+02 2.033925e-09
7.220000e+02 2.222482e-09
7.230000e+02 2.427901e-09
7.240000e+02 2.651632e-09
7.250000e+02 2.895249e-09
7.260000e+02 3.160453e-09
7.270000e+02 3.449084e-09
7.280000e+02 3.763136e-09
7.290000e+02 4.104762e-09
7.300000e+02 4.476294e-09
7.310000e+02 4.880252e-09
7.320000e+02 5.319359e-09
7.330000e+02 5.796557e-09
7.340000e+02 6.315028e-09
7.350000e+02 6.878205e-09
7.360000e+02 7.489796e-09
7.370000e+02 8.153812e-09
7.380000e+02 8.874570e-09
7.390000e+02 9.656737e-09
7.400000e+02 1.050535e-08
7.410000e+02 1.142582e-08
7.420000e+02 1.242403e-08
7.430000e+02 1.350628e-08
7.440000e+02 1.467936e-08
7.450000e+02 1.595063e-08
7.460000e+02 1.732798e-08
7.470000e+02 1.881991e-08
7.480000e+02 2.043561e-08
7.490000e+02 2.218493e-08
7.500000e+02 2.407852e-08
7.510000e+02 2.612780e-08
7.520000e+02 2.834507e-08
7.530000e+02 3.074359e-08
7.540000e+02 3.333759e-08
7.550000e+02 3.614238e-08
7.560000e+02 3.917443e-08
7.570000e+02 4.245144e-08
7.580000e+02 4.599243e-08
7.590000e+02 4.981783e-08
7.600000e+02 5.394960e-08
7.610000e+02 5.841131e-08
7.620000e+02 6.322827e-08
7.630000e+02 6.842767e-08
7.640000e+02 7.403866e-08
7.650000e+02 8.009257e-08
7.660000e+02 8.662296e-08
7.670000e+02 9.366588e-08
7.680000e+02 1.012599e-07
7.690000e+02 1.094466e-07
7.700000e+02 1.182702e-07
7.710000e+02 1.277784e-07
7.720000e+02 1.380223e-07
7.730000e+02 1.490563e-07
7.740000e+02 1.609392e-07
7.750000e+02 1.737334e-07
7.760000e+02 1.875062e-07
7.770000e+02 2.023297e-07
7.780000e+02 2.182804e-07
7.790000e+02 2.354407e-07
7.800000e+02 2.538988e-07
7.810000e+02 2.737488e-07
7.820000e+02 2.950915e-07
7.830000e+02 3.180345e-07
7.840000e+02 3.426931e-07
7.850000e+02 3.691903e-07
7.860000e+02 3.976578e-07
7.870000e+02 4.282361e-07
7.880000e+02 4.610753e-07
7.890000e+02 4.963358e-07
7.900000e+02 5.341886e-07
7.910000e+02 5.748172e-07
7.920000e+02 6.184164e-07
7.930000e+02 6.651945e-07
7.940000e+02 7.153739e-07
7.950000e+02 7.691918e-07
7.960000e+02 8.269012e-07
7.970000e+02 8.887720e-07
7.980000e+02 9.550919e-07
7.990000e+02 1.026168e-06
8.000000e+02 1.102326e-06
8.010000e+02 1.183916e-06
8.020000e+02 1.271309e-06
8.030000e+02 1.364900e-06
8.040000e+02 1.465111e-06
8.050000e+02 1.572391e-06
8.060000e+02 1.687217e-06
8.070000e+02 1.810098e-06
8.080000e+02 1.941576e-06
8.090000e+02 2.082227e-06
8.100000e+02 2.232665e-06
8.110000e+02 2.393541e-06
8.120000e+02 2.565550e-06
8.130000e+02 2.749432e-06
8.140000e+02 2.945968e-06
8.150000e+02 3.155996e-06
8.160000e+02 3.380400e-06
8.170000e+02 3.620126e-06
8.180000e+02 3.876173e-06
8.190000e+02 4.149607e-06
8.200000e+02 4.441558e-06
8.210000e+02 4.753227e-06
8.220000e+02 5.085890e-06
8.230000e+02 5.440900e-06
8.240000e+02 5.819695e-06
8.250000e+02 6.223801e-06
8.260000e+02 6.654836e-06
8.270000e+02 7.114519e-06
8.280000e+02 7.604673e-06
8.290000e+02 8.127229e-06
8.300000e+02 8.684241e-06
8.310000e+02 9.277880e-06
8.320000e+02 9.910453e-06
8.330000e+02 1.058440e-05
8.340000e+02 1.130232e-05
8.350000e+02 1.206670e-05
8.360000e+02 1.288117e-05
8.370000e+02 1.374815e-05
8.380000e+02 1.467106e-05
8.390000e+02 1.565339e-05
8.400000e+02 1.669880e-05
8.410000e+02 1.781117e-05
8.420000e+02 1.899449e-05
8.430000e+02 2.025341e-05
8.440000e+02 2.159222e-05
8.450000e+02 2.301588e-05
8.460000e+02 2.452953e-05
8.470000e+02 2.613862e-05
8.480000e+02 2.784889e-05
8.490000e+02 2.966644e-05
8.500000e+02 3.159768e-05
8.510000e+02 3.364943e-05
8.520000e+02 3.582887e-05
8.530000e+02 3.814360e-05
8.540000e+02 4.060167e-05
8.550000e+02 4.321150e-05
8.560000e+02 4.598209e-05
8.570000e+02 4.892288e-05
8.580000e+02 5.204389e-05
8.590000e+02 5.535566e-05
8.600000e+02 5.886932e-05
8.610000e+02 6.259664e-05
8.620000e+02 6.655004e-05
8.630000e+02 7.074260e-05
8.640000e+02 7.518815e-05
8.650000e+02 7.990128e-05
8.660000e+02 8.489737e-05
8.670000e+02 9.019263e-05
8.680000e+02 9.580417e-05
8.690000e+02 1.017501e-04
8.700000e+02 1.080492e-04
8.710000e+02 1.147219e-04
8.720000e+02 1.217891e-04
8.730000e+02 1.292731e-04
8.740000e+02 1.371973e-04
8.750000e+02 1.455866e-04
8.760000e+02 1.544669e-04
8.770000e+02 1.638656e-04
8.780000e+02 1.738118e-04
8.790000e+02 1.843357e-04
8.800000e+02 1.954695e-04
8.810000e+02 2.072469e-04
8.820000e+02 2.197033e-04
8.830000e+02 2.328761e-04
8.840000e+02 2.468046e-04
8.850000e+02 2.615302e-04
8.860000e+02 2.770963e-04
8.870000e+02 2.935489e-04
8.880000e+02 3.109360e-04
8.890000e+02 3.293082e-04
8.900000e+02 3.487188e-04
8.910000e+02 3.692237e-04
8.920000e+02 3.907640e-04
8.930000e+02 4.137550e-04
8.940000e+02 4.379082e-04
8.950000e+02 4.634097e-04
8.960000e+02 4.903313e-04
8.970000e+02 5.187483e-04
8.980000e+02 5.487400e-04
8.990000e+02 5.803896e-04
9.000000e+02 6.137844e-04
9.010000e+02 6.490161e-04
9.020000e+02 6.861809e-04
9.030000e+02 7.253801e-04
9.040000e+02 7.667196e-04
9.050000e+02 8.103110e-04
9.060000e+02 8.562710e-04
9.070000e+02 9.047219e-04
9.080000e+02 9.557934e-04
9.090000e+02 1.009620e-03
9.100000e+02 1.066342e-03
9.110000e+02 1.126110e-03
9.120000e+02 1.189082e-03
9.130000e+02 1.253371e-03
9.140000e+02 1.323123e-03
9.150000e+02 1.757050e-02
9.160000e+02 1.931773e-02
9.170000e+02 2.020541e-02
9.180000e+02 2.112200e-02
9.190000e+02 2.210315e-02
9.200000e+02 2.311285e-02
9.210000e+02 1.926510e-03
9.220000e+02 2.523184e-02
9.230000e+02 2.628131e-02
9.240000e+02 2.614494e-02
9.250000e+02 2.819096e-02
9.260000e+02 2.995284e-02
9.270000e+02 3.139856e-02
9.280000e+02 3.290597e-02
9.290000e+02 3.011771e-02
9.300000e+02 3.511262e-02
9.310000e+02 3.698716e-02
9.320000e+02 3.921001e-02
9.330000e+02 4.095098e-02
9.340000e+02 4.273742e-02
9.350000e+02 8.159839e-04
9.360000e+02 4.612634e-02
9.370000e+02 1.147624e-03
9.380000e+02 1.374681e-02
9.390000e+02 5.297855e-02
9.400000e+02 5.534245e-02
9.410000e+02 1.843753e-02
9.420000e+02 6.032400e-02
9.430000e+02 6.295075e-02
9.440000e+02 5.990772e-02
9.450000e+02 6.847183e-02
9.460000e+02 7.143138e-02
9.470000e+02 7.381146e-02
9.480000e+02 7.711645e-02
9.490000e+02 7.967693e-02
9.500000e+02 2.153415e-03
9.510000e+02 8.551031e-02
9.520000e+02 9.220558e-02
9.530000e+02 9.588671e-02
9.540000e+02 7.085271e-02
9.550000e+02 1.048763e-01
9.560000e+02 1.104059e-01
9.570000e+02 1.574153e-02
9.580000e+02 1.141350e-01
9.590000e+02 1.251622e-01
9.600000e+02 3.780007e-03
9.610000e+02 1.364000e-01
9.620000e+02 1.421485e-01
9.630000e+02 1.479734e-01
9.640000e+02 1.472151e-02
9.650000e+02 1.341971e-01
9.660000e+02 1.675367e-01
9.670000e+02 1.743087e-01
9.680000e+02 1.795949e-01
9.690000e+02 1.875273e-01
9.700000e+02 1.962785e-01
9.710000e+02 2.008572e-01
9.720000e+02 1.760084e-01
9.730000e+02 1.730847e-01
9.740000e+02 2.257440e-01
9.750000e+02 2.404386e-01
9.760000e+02 2.517018e-01
9.770000e+02 2.625565e-01
9.780000e+02 2.730975e-01
9.790000e+02 2.850013e-01
9.800000e+02 2.966548e-01
9.810000e+02 3.088849e-01
9.820000e+02 3.206953e-01
9.830000e+02 3.344226e-01
9.840000e+02 2.592772e-02
9.850000e+02 3.621202e-01
9.860000e+02 3.768338e-01
9.870000e+02 3.920334e-01
9.880000e+02 4.032143e-01
9.890000e+02 3.177309e-01
9.900000e+02 2.632008e-02
9.910000e+02 4.469928e-01
9.920000e+02 4.562451e-01
9.930000e+02 4.774421e-01
9.940000e+02 4.761940e-02
9.950000e+02 1.658611e-02
9.960000e+02 5.549456e-01
9.970000e+02 5.932629e-02
9.980000e+02 5.949988e-01
9.990000e+02 5.936117e-01
1.000000e+03 6.507882e-01
1.001000e+03 6.762612e-01
1.002000e+03 7.025539e-01
1.003000e+03 7.067177e-01
1.004000e+03 7.511606e-01
1.005000e+03 7.706218e-01
1.006000e+03 8.178790e-01
1.007000e+03 8.493355e-01
1.008000e+03 8.816047e-01
1.009000e+03 9.046480e-01
1.010000e+03 9.504026e-01
1.011000e+03 9.864154e-01
1.012000e+03 1.023712e+00
1.013000e+03 1.062218e+00
1.014000e+03 1.057939e+00
1.015000e+03 1.114300e+00
1.016000e+03 1.183120e+00
1.017000e+03 1.166441e+00
1.018000e+03 1.269665e+00
1.019000e+03 1.297327e+00
1.020000e+03 1.358022e+00
1.021000e+03 8.195909e-01
1.022000e+03 1.146508e+00
1.023000e+03 1.417126e+00
1.024000e+03 1.327782e+00
1.025000e+03 6.293327e-01
1.026000e+03 7.131976e-02
1.027000e+03 1.284656e+00
1.028000e+03 9.731686e-02
1.029000e+03 1.745421e+00
1.030000e+03 1.919039e+00
1.031000e+03 2.020913e+00
1.032000e+03 2.102948e+00
1.033000e+03 6.730175e-02
1.034000e+03 2.278867e+00
1.035000e+03 1.876304e-01
1.036000e+03 2.359055e+00
1.037000e+03 2.542585e+00
1.038000e+03 2.645570e+00
1.039000e+03 2.739922e+00
1.040000e+03 2.845019e+00
1.041000e+03 2.946034e+00
1.042000e+03 3.054058e+00
1.043000e+03 2.913057e+00
1.044000e+03 3.284193e+00
1.045000e+03 3.403096e+00
1.046000e+03 3.528619e+00
1.047000e+03 3.655511e+00
1.048000e+03 3.737632e+00
1.049000e+03 3.913802e+00
1.050000e+03 4.062624e+00
1.051000e+03 4.206461e+00
1.052000e+03 4.358943e+00
1.053000e+03 4.508101e+00
1.054000e+03 4.464171e+00
1.055000e+03 4.838749e+00
1.056000e+03 5.010898e+00
1.057000e+03 5.187312e+00
1.058000e+03 5.366208e+00
1.059000e+03 5.551482e+00
1.060000e+03 5.729361e+00
1.061000e+03 5.953737e+00
1.062000e+03 6.152707e+00
1.063000e+03 4.434187e+00
1.064000e+03 9.168291e-01
1.065000e+03 6.561029e+00
1.066000e+03 7.050154e+00
1.067000e+03 7.279010e+00
1.068000e+03 7.552844e+00
1.069000e+03 7.736468e+00
1.070000e+03 8.086015e+00
1.071000e+03 8.369297e+00
1.072000e+03 8.654513e+00
1.073000e+03 8.725399e+00
1.074000e+03 9.252922e+00
1.075000e+03 9.565354e+00
1.076000e+03 9.891589e+00
1.077000e+03 7.962331e+00
1.078000e+03 1.056015e+01
1.079000e+03 1.086703e+01
1.080000e+03 1.129297e+01
1.081000e+03 1.167313e+01
1.082000e+03 1.204016e+01
1.083000e+03 1.246221e+01
1.084000e+03 1.287122e+01
1.085000e+03 1.257847e+01
1.086000e+03 1.372391e+01
1.087000e+03 1.414089e+01
1.088000e+03 1.451061e+01
1.089000e+03 1.510181e+01
1.090000e+03 1.557802e+01
1.091000e+03 1.608314e+01
1.092000e+03 1.659952e+01
1.093000e+03 1.710325e+01
1.094000e+03 1.768896e+01
1.095000e+03 1.824241e+01
1.096000e+03 1.834438e+01
1.097000e+03 1.913363e+01
1.098000e+03 2.004686e+01
1.099000e+03 2.067109e+01
1.100000e+03 2.062365e+01
1.101000e+03 1.869653e+01
1.102000e+03 8.007790e+01
1.103000e+03 4.246530e+02
1.104000e+03 7.108984e+01
1.105000e+03 2.488220e+01
1.106000e+03 1.044897e+03
1.107000e+03 9.759362e+02
1.108000e+03 1.097210e+03
1.109000e+03 1.062757e+03
1.110000e+03 5.461690e+02
1.111000e+03 8.416528e+01
1.112000e+03 1.158178e+03
1.113000e+03 1.218013e+03
1.114000e+03 2.085803e+01
1.115000e+03 1.246085e+03
1.116000e+03 1.276738e+03
1.117000e+03 1.011938e+01
1.118000e+03 1.321665e+03
1.119000e+03 1.381285e+03
1.120000e+03 1.391386e+03
1.121000e+03 1.368301e+03
1.122000e+03 1.142236e+01
1.123000e+03 3.337548e+02
1.124000e+03 1.535143e+03
1.125000e+03 1.344592e+03
1.126000e+03 1.609805e+03
1.127000e+03 1.562733e+03
1.128000e+03 6.083263e+02
1.129000e+03 1.677546e+03
1.130000e+03 1.704069e+03
1.131000e+03 1.797892e+03
1.132000e+03 7.058716e+00
1.133000e+03 1.860633e+03
1.134000e+03 1.844290e+03
1.135000e+03 3.554395e+01
1.136000e+03 1.997172e+03
1.137000e+03 2.046508e+03
1.138000e+03 2.093349e+03
1.139000e+03 2.072955e+03
1.140000e+03 9.688599e+00
1.141000e+03 2.235849e+03
1.142000e+03 2.285637e+03
1.143000e+03 2.327036e+03
1.144000e+03 2.385814e+03
1.145000e+03 1.787601e+03
1.146000e+03 2.496191e+03
1.147000e+03 2.489679e+03
1.148000e+03 2.538467e+03
1.149000e+03 2.651629e+03
1.150000e+03 2.701147e+03
1.151000e+03 2.743888e+03
1.152000e+03 2.840299e+03
1.153000e+03 2.109088e+03
1.154000e+03 1.869005e+03
1.155000e+03 3.027871e+03
1.156000e+03 2.290073e+03
1.157000e+03 3.137188e+03
1.158000e+03 7.755886e+01
1.159000e+03 2.826554e+03
1.160000e+03 3.364289e+03
1.161000e+03 3.438521e+03
1.162000e+03 9.545977e+02
1.163000e+03 3.579599e+03
1.164000e+03 1.403320e+01
1.165000e+03 3.751426e+03
1.166000e+03 3.851870e+03
1.167000e+03 3.948004e+03
1.168000e+03 4.068497e+03
1.169000e+03 4.026439e+03
1.170000e+03 4.289721e+03
1.171000e+03 4.404049e+03
1.172000e+03 4.513894e+03
1.173000e+03 4.638637e+03
1.174000e+03 4.683586e+03
1.175000e+03 3.167188e+01
1.176000e+03 5.515186e+01
1.177000e+03 5.126369e+03
1.178000e+03 5.244304e+03
1.179000e+03 5.378378e+03
1.180000e+03 4.748566e+03
1.181000e+03 5.622845e+03
1.182000e+03 5.821854e+03
1.183000e+03 5.950233e+03
1.184000e+03 6.075685e+03
1.185000e+03 6.198954e+03
1.186000e+03 6.296678e+03
1.187000e+03 6.437901e+03
1.188000e+03 6.530627e+03
1.189000e+03 5.370312e+01
1.190000e+03 3.498622e+03
1.191000e+03 6.694711e+03
1.192000e+03 6.780071e+03
1.193000e+03 1.186841e+02
1.194000e+03 6.276367e+01
1.195000e+03 5.797258e+03
1.196000e+03 7.002980e+03
1.197000e+03 1.563716e+04
1.198000e+03 1.561219e+04
1.199000e+03 1.487146e+04
1.200000e+03 1.238456e+04
1.201000e+03 1.321763e+04
1.202000e+03 1.290285e+04
1.203000e+03 2.043447e+04
1.204000e+03 1.742564e+04
1.205000e+03 1.459949e+04
1.206000e+03 1.350375e+04
1.207000e+03 2.490166e+02
1.208000e+03 7.352790e+03
1.209000e+03 4.715693e+03
1.210000e+03 1.356987e+02
1.211000e+03 1.525100e+03
1.212000e+03 6.336801e+02
1.213000e+03 1.926240e+02
1.214000e+03 4.957344e+01
1.215000e+03 9.786715e+01
1.216000e+03 1.994284e+02
1.217000e+03 4.802585e+01
1.218000e+03 1.348471e+02
1.219000e+03 5.267756e+02
1.220000e+03 1.465057e+03
1.221000e+03 3.163865e+03
1.222000e+03 5.765126e+03
1.223000e+03 9.343497e+03
1.224000e+03 1.386655e+04
1.225000e+03 1.953609e+04
1.226000e+03 2.633347e+04
1.227000e+03 3.332785e+04
1.228000e+03 4.287837e+04
1.229000e+03 5.272692e+04
1.230000e+03 6.327143e+04
1.231000e+03 7.456764e+04
1.232000e+03 8.746255e+04
1.233000e+03 1.005284e+05
1.234000e+03 4.375925e+04
1.235000e+03 1.288148e+05
1.236000e+03 1.431950e+05
1.237000e+03 1.589008e+05
1.238000e+03 1.748444e+05
1.239000e+03 1.907776e+05
1.240000e+03 1.830426e+05
1.241000e+03 2.988255e+05
1.242000e+03 1.875553e+05
1.243000e+03 3.168383e+05
1.244000e+03 1.348353e+05
1.245000e+03 2.014363e+05
1.246000e+03 5.413717e+05
1.247000e+03 5.703044e+05
1.248000e+03 1.431716e+05
1.249000e+03 2.348505e+05
1.250000e+03 6.995575e+05
1.251000e+03 7.720633e+05
1.252000e+03 8.190069e+05
1.253000e+03 8.701796e+05
1.254000e+03 9.220644e+05
1.255000e+03 9.755529e+05
1.256000e+03 1.008707e+06
1.257000e+03 1.052111e+06
1.258000e+03 1.110827e+06
1.259000e+03 1.091663e+06
1.260000e+03 7.071006e+05
1.261000e+03 8.233828e+02
1.262000e+03 9.326950e+04
1.263000e+03 1.270076e+06
1.264000e+03 1.054881e+06
1.265000e+03 9.539062e+02
1.266000e+03 1.409894e+06
1.267000e+03 1.599093e+06
