# wavelength_A flux
5.000000e+02 5.640403e-28
5.010000e+02 7.001269e-28
5.020000e+02 8.682913e-28
5.030000e+02 1.075916e-27
5.040000e+02 1.332042e-27
5.050000e+02 1.804266e-27
5.060000e+02 2.226457e-27
5.070000e+02 2.742728e-27
5.080000e+02 3.379977e-27
5.090000e+02 4.159301e-27
5.100000e+02 4.607190e-27
5.110000e+02 6.283596e-27
5.120000e+02 7.707666e-27
5.130000e+02 9.462924e-27
5.140000e+02 1.159926e-26
5.150000e+02 1.420644e-26
5.160000e+02 1.738585e-26
5.170000e+02 2.126359e-26
5.180000e+02 2.598435e-26
5.190000e+02 3.172906e-26
5.200000e+02 3.871460e-26
5.210000e+02 4.720232e-26
5.220000e+02 5.747951e-26
5.230000e+02 7.001197e-26
5.240000e+02 8.517520e-26
5.250000e+02 1.035438e-25
5.260000e+02 1.257813e-25
5.270000e+02 1.526836e-25
5.280000e+02 1.852057e-25
5.290000e+02 2.244929e-25
5.300000e+02 2.719206e-25
5.310000e+02 3.291326e-25
5.320000e+02 3.980994e-25
5.330000e+02 4.811778e-25
5.340000e+02 5.811848e-25
5.350000e+02 7.014840e-25
5.360000e+02 8.460749e-25
5.370000e+02 9.865483e-25
5.380000e+02 1.228333e-24
5.390000e+02 1.478556e-24
5.400000e+02 1.778491e-24
5.410000e+02 2.137611e-24
5.420000e+02 2.567990e-24
5.430000e+02 3.082660e-24
5.440000e+02 3.698005e-24
5.450000e+02 4.433233e-24
5.460000e+02 5.311118e-24
5.470000e+02 6.358669e-24
5.480000e+02 7.607842e-24
5.490000e+02 9.096488e-24
5.500000e+02 1.086937e-23
5.510000e+02 1.297940e-23
5.520000e+02 1.548909e-23
5.530000e+02 1.847224e-23
5.540000e+02 2.201594e-23
5.550000e+02 2.622286e-23
5.560000e+02 3.121400e-23
5.570000e+02 3.713187e-23
5.580000e+02 4.414418e-23
5.590000e+02 5.244820e-23
5.600000e+02 6.227585e-23
5.610000e+02 7.389960e-23
5.620000e+02 8.763932e-23
5.630000e+02 1.038704e-22
5.640000e+02 1.230331e-22
5.650000e+02 1.456432e-22
5.660000e+02 1.723053e-22
5.670000e+02 2.037266e-22
5.680000e+02 2.407351e-22
5.690000e+02 2.842986e-22
5.700000e+02 3.355480e-22
5.710000e+02 3.958046e-22
5.720000e+02 4.666103e-22
5.730000e+02 5.497642e-22
5.740000e+02 6.473636e-22
5.750000e+02 7.618531e-22
5.760000e+02 8.960744e-22
5.770000e+02 1.053399e-21
5.780000e+02 1.237587e-21
5.790000e+02 1.453163e-21
5.800000e+02 1.705336e-21
5.810000e+02 2.000154e-21
5.820000e+02 2.344632e-21
5.830000e+02 2.746876e-21
5.840000e+02 3.214838e-21
5.850000e+02 3.763850e-21
5.860000e+02 4.402952e-21
5.870000e+02 5.147284e-21
5.880000e+02 6.014158e-21
5.890000e+02 7.023249e-21
5.900000e+02 8.197277e-21
5.910000e+02 9.562486e-21
5.920000e+02 1.114918e-20
5.930000e+02 1.299232e-20
5.940000e+02 1.513226e-20
5.950000e+02 1.761551e-20
5.960000e+02 2.049565e-20
5.970000e+02 2.383442e-20
5.980000e+02 2.770288e-20
5.990000e+02 3.218280e-20
6.000000e+02 3.736821e-20
6.010000e+02 4.336721e-20
6.020000e+02 5.030398e-20
6.030000e+02 5.832113e-20
6.040000e+02 6.758236e-20
6.050000e+02 7.827545e-20
6.060000e+02 9.061574e-20
6.070000e+02 1.048500e-19
6.080000e+02 1.212611e-19
6.090000e+02 1.401726e-19
6.100000e+02 1.619552e-19
6.110000e+02 1.870327e-19
6.120000e+02 2.158898e-19
6.130000e+02 2.490803e-19
6.140000e+02 2.872372e-19
6.150000e+02 3.310830e-19
6.160000e+02 3.814423e-19
6.170000e+02 4.392559e-19
6.180000e+02 5.055966e-19
6.190000e+02 5.816870e-19
6.200000e+02 6.689200e-19
6.210000e+02 7.688820e-19
6.220000e+02 8.833782e-19
6.230000e+02 1.014463e-18
6.240000e+02 1.164472e-18
6.250000e+02 1.336061e-18
6.260000e+02 1.532247e-18
6.270000e+02 1.756457e-18
6.280000e+02 2.012580e-18
6.290000e+02 2.305031e-18
6.300000e+02 2.638815e-18
6.310000e+02 3.018006e-18
6.320000e+02 3.453857e-18
6.330000e+02 3.948830e-18
6.340000e+02 4.512793e-18
6.350000e+02 5.155007e-18
6.360000e+02 5.886261e-18
6.370000e+02 6.718287e-18
6.380000e+02 7.664670e-18
6.390000e+02 8.740677e-18
6.400000e+02 9.963552e-18
6.410000e+02 1.135277e-17
6.420000e+02 1.293029e-17
6.430000e+02 1.472092e-17
6.440000e+02 1.675262e-17
6.450000e+02 1.905688e-17
6.460000e+02 2.166924e-17
6.470000e+02 2.462967e-17
6.480000e+02 2.798323e-17
6.490000e+02 3.178058e-17
6.500000e+02 3.607876e-17
6.510000e+02 4.094190e-17
6.520000e+02 4.644207e-17
6.530000e+02 5.266030e-17
6.540000e+02 5.968757e-17
6.550000e+02 6.762606e-17
6.560000e+02 7.659046e-17
6.570000e+02 8.670945e-17
6.580000e+02 9.812737e-17
6.590000e+02 1.110060e-16
6.600000e+02 1.255268e-16
6.610000e+02 1.418928e-16
6.620000e+02 1.603317e-16
6.630000e+02 1.810982e-16
6.640000e+02 2.044773e-16
6.650000e+02 2.307881e-16
6.660000e+02 2.603879e-16
6.670000e+02 2.936740e-16
6.680000e+02 3.310926e-16
6.690000e+02 3.731414e-16
6.700000e+02 4.203762e-16
6.710000e+02 4.734176e-16
6.720000e+02 5.329577e-16
6.730000e+02 5.997689e-16
6.740000e+02 6.747125e-16
6.750000e+02 7.587483e-16
6.760000e+02 8.529463e-16
6.770000e+02 9.584981e-16
6.780000e+02 1.076731e-15
6.790000e+02 1.209122e-15
6.800000e+02 1.357314e-15
6.810000e+02 1.523138e-15
6.820000e+02 1.708626e-15
6.830000e+02 1.916040e-15
6.840000e+02 2.147891e-15
6.850000e+02 2.406971e-15
6.860000e+02 2.696381e-15
6.870000e+02 3.019560e-15
6.880000e+02 3.380330e-15
6.890000e+02 3.782928e-15
6.900000e+02 4.232054e-15
6.910000e+02 4.732919e-15
6.920000e+02 5.291300e-15
6.930000e+02 5.913598e-15
6.940000e+02 6.606902e-15
6.950000e+02 7.379063e-15
6.960000e+02 8.238773e-15
6.970000e+02 9.195646e-15
6.980000e+02 1.026033e-14
6.990000e+02 1.144458e-14
7.000000e+02 1.276141e-14
7.010000e+02 1.422521e-14
7.020000e+02 1.585185e-14
7.030000e+02 1.765890e-14
7.040000e+02 1.966572e-14
7.050000e+02 2.189371e-14
7.060000e+02 2.436625e-14
7.070000e+02 2.711006e-14
7.080000e+02 3.015320e-14
7.090000e+02 3.352755e-14
7.100000e+02 3.726803e-14
7.110000e+02 4.141310e-14
7.120000e+02 4.600514e-14
7.130000e+02 5.109081e-14
7.140000e+02 5.672150e-14
7.150000e+02 6.295374e-14
7.160000e+02 6.984975e-14
7.170000e+02 7.747797e-14
7.180000e+02 8.591367e-14
7.190000e+02 9.523957e-14
7.200000e+02 1.055466e-13
7.210000e+02 1.169347e-13
7.220000e+02 1.295135e-13
7.230000e+02 1.434037e-13
7.240000e+02 1.587373e-13
7.250000e+02 1.756598e-13
7.260000e+02 1.943302e-13
7.270000e+02 2.149235e-13
7.280000e+02 2.376310e-13
7.290000e+02 2.626630e-13
7.300000e+02 2.902495e-13
7.310000e+02 3.206429e-13
7.320000e+02 3.541193e-13
7.330000e+02 3.909815e-13
7.340000e+02 4.315604e-13
7.350000e+02 4.762186e-13
7.360000e+02 5.253527e-13
7.370000e+02 5.793968e-13
7.380000e+02 6.388252e-13
7.390000e+02 7.041568e-13
7.400000e+02 7.759587e-13
7.410000e+02 8.548504e-13
7.420000e+02 9.415090e-13
7.430000e+02 1.036674e-12
7.440000e+02 1.141152e-12
7.450000e+02 1.255826e-12
7.460000e+02 1.381655e-12
7.470000e+02 1.519691e-12
7.480000e+02 1.671077e-12
7.490000e+02 1.837062e-12
7.500000e+02 2.019007e-12
7.510000e+02 2.218394e-12
7.520000e+02 2.436840e-12
7.530000e+02 2.676106e-12
7.540000e+02 2.938110e-12
7.550000e+02 3.224939e-12
7.560000e+02 3.538867e-12
7.570000e+02 3.882368e-12
7.580000e+02 4.258134e-12
7.590000e+02 4.669093e-12
7.600000e+02 5.118430e-12
7.610000e+02 5.609606e-12
7.620000e+02 6.146387e-12
7.630000e+02 6.732863e-12
7.640000e+02 7.373477e-12
7.650000e+02 8.073054e-12
7.660000e+02 8.836847e-12
7.670000e+02 9.670539e-12
7.680000e+02 1.058031e-11
7.690000e+02 1.157285e-11
7.700000e+02 1.265548e-11
7.710000e+02 1.383605e-11
7.720000e+02 1.512313e-11
7.730000e+02 1.652600e-11
7.740000e+02 1.805472e-11
7.750000e+02 1.972018e-11
7.760000e+02 2.153420e-11
7.770000e+02 2.350956e-11
7.780000e+02 2.566014e-11
7.790000e+02 2.800092e-11
7.800000e+02 3.054814e-11
7.810000e+02 3.331939e-11
7.820000e+02 3.633366e-11
7.830000e+02 3.961155e-11
7.840000e+02 4.317529e-11
7.850000e+02 4.704895e-11
7.860000e+02 5.125854e-11
7.870000e+02 5.583216e-11
7.880000e+02 6.080019e-11
7.890000e+02 6.619545e-11
7.900000e+02 7.205340e-11
7.910000e+02 7.841230e-11
7.920000e+02 8.531341e-11
7.930000e+02 9.280159e-11
7.940000e+02 1.009248e-10
7.950000e+02 1.097350e-10
7.960000e+02 1.192882e-10
7.970000e+02 1.296450e-10
7.980000e+02 1.408704e-10
7.990000e+02 1.530348e-10
8.000000e+02 1.662140e-10
8.010000e+02 1.804894e-10
8.020000e+02 1.959492e-10
8.030000e+02 2.126879e-10
8.040000e+02 2.308077e-10
8.050000e+02 2.504056e-10
8.060000e+02 2.716383e-10
8.070000e+02 2.945948e-10
8.080000e+02 3.194247e-10
8.090000e+02 3.462755e-10
8.100000e+02 3.753056e-10
8.110000e+02 4.066858e-10
8.120000e+02 4.405992e-10
8.130000e+02 4.772430e-10
8.140000e+02 5.168291e-10
8.150000e+02 5.595851e-10
8.160000e+02 6.057557e-10
8.170000e+02 6.556035e-10
8.180000e+02 7.094110e-10
8.190000e+02 7.674810e-10
8.200000e+02 8.301390e-10
8.210000e+02 8.977342e-10
8.220000e+02 9.706413e-10
8.230000e+02 1.049263e-09
8.240000e+02 1.134030e-09
8.250000e+02 1.225405e-09
8.260000e+02 1.323884e-09
8.270000e+02 1.430001e-09
8.280000e+02 1.544324e-09
8.290000e+02 1.667465e-09
8.300000e+02 1.800080e-09
8.310000e+02 1.942869e-09
8.320000e+02 2.096585e-09
8.330000e+02 2.262034e-09
8.340000e+02 2.440076e-09
8.350000e+02 2.631631e-09
8.360000e+02 2.837700e-09
8.370000e+02 3.059327e-09
8.380000e+02 3.297648e-09
8.390000e+02 3.553873e-09
8.400000e+02 3.829298e-09
8.410000e+02 4.125306e-09
8.420000e+02 4.443379e-09
8.430000e+02 4.785100e-09
8.440000e+02 5.152160e-09
8.450000e+02 5.546367e-09
8.460000e+02 5.969655e-09
8.470000e+02 6.424084e-09
8.480000e+02 6.911866e-09
8.490000e+02 7.435351e-09
8.500000e+02 7.997048e-09
8.510000e+02 8.599657e-09
8.520000e+02 9.246022e-09
8.530000e+02 9.939227e-09
8.540000e+02 1.068251e-08
8.550000e+02 1.147937e-08
8.560000e+02 1.233351e-08
8.570000e+02 1.324890e-08
8.580000e+02 1.422973e-08
8.590000e+02 1.528057e-08
8.600000e+02 1.640617e-08
8.610000e+02 1.761165e-08
8.620000e+02 1.890247e-08
8.630000e+02 2.028443e-08
8.640000e+02 2.176371e-08
8.650000e+02 2.334696e-08
8.660000e+02 2.504114e-08
8.670000e+02 2.685373e-08
8.680000e+02 2.879270e-08
8.690000e+02 3.086651e-08
8.700000e+02 3.308412e-08
8.710000e+02 3.545532e-08
8.720000e+02 3.799008e-08
8.730000e+02 4.069939e-08
8.740000e+02 4.359474e-08
8.750000e+02 4.668842e-08
8.760000e+02 4.999350e-08
8.770000e+02 5.352385e-08
8.780000e+02 5.729409e-08
8.790000e+02 6.132027e-08
8.800000e+02 6.561867e-08
8.810000e+02 7.020716e-08
8.820000e+02 7.510455e-08
8.830000e+02 8.033071e-08
8.840000e+02 8.590688e-08
8.850000e+02 9.185574e-08
8.860000e+02 9.820099e-08
8.870000e+02 1.049681e-07
8.880000e+02 1.121839e-07
8.890000e+02 1.198771e-07
8.900000e+02 1.280781e-07
8.910000e+02 1.368188e-07
8.920000e+02 1.461335e-07
8.930000e+02 1.560583e-07
8.940000e+02 1.666317e-07
8.950000e+02 1.778943e-07
8.960000e+02 1.898892e-07
8.970000e+02 2.026621e-07
8.980000e+02 2.162615e-07
8.990000e+02 2.307387e-07
9.000000e+02 2.461481e-07
9.010000e+02 2.625473e-07
9.020000e+02 2.799971e-07
9.030000e+02 2.985612e-07
9.040000e+02 3.183115e-07
9.050000e+02 3.393174e-07
9.060000e+02 3.616558e-07
9.070000e+02 3.854083e-07
9.080000e+02 4.106607e-07
9.090000e+02 4.375040e-07
9.100000e+02 4.660342e-07
9.110000e+02 4.963529e-07
9.120000e+02 5.285683e-07
9.130000e+02 5.627909e-07
9.140000e+02 6.718183e-07
9.150000e+02 2.268938e-04
9.160000e+02 7.303785e-04
9.170000e+02 8.477654e-06
9.180000e+02 3.050546e-04
9.190000e+02 2.106765e-03
9.200000e+02 5.053192e-03
9.210000e+02 9.249279e-07
9.220000e+02 5.891714e-04
9.230000e+02 1.290928e-05
9.240000e+02 1.400104e-05
9.250000e+02 9.916537e-05
9.260000e+02 3.692808e-04
9.270000e+02 1.135418e-05
9.280000e+02 1.431930e-02
9.290000e+02 2.307667e-02
9.300000e+02 6.096767e-03
9.310000e+02 1.636995e-05
9.320000e+02 1.955123e-02
9.330000e+02 4.599635e-04
9.340000e+02 1.505800e-04
9.350000e+02 1.544739e-04
9.360000e+02 2.879645e-05
9.370000e+02 1.147238e-05
9.380000e+02 7.503157e-05
9.390000e+02 7.576641e-05
9.400000e+02 4.221116e-03
9.410000e+02 8.609819e-04
9.420000e+02 6.258757e-02
9.430000e+02 1.079785e-04
9.440000e+02 7.684210e-02
9.450000e+02 4.337410e-02
9.460000e+02 1.386712e-03
9.470000e+02 7.007679e-06
9.480000e+02 1.348826e-02
9.490000e+02 3.929123e-03
9.500000e+02 1.870214e-04
9.510000e+02 1.396225e-03
9.520000e+02 2.491927e-03
9.530000e+02 2.786904e-05
9.540000e+02 8.905066e-06
9.550000e+02 2.786852e-04
9.560000e+02 3.605114e-02
9.570000e+02 1.595470e-04
9.580000e+02 8.387025e-06
9.590000e+02 1.006574e-02
9.600000e+02 3.431544e-04
9.610000e+02 1.830366e-03
9.620000e+02 7.369412e-04
9.630000e+02 1.957752e-04
9.640000e+02 4.538504e-05
9.650000e+02 2.058782e-05
9.660000e+02 3.006384e-04
9.670000e+02 6.485824e-05
9.680000e+02 4.575308e-05
9.690000e+02 1.692277e-03
9.700000e+02 1.805795e-03
9.710000e+02 9.284284e-05
9.720000e+02 6.270991e-05
9.730000e+02 1.444990e-03
9.740000e+02 2.382602e-03
9.750000e+02 6.020588e-04
9.760000e+02 1.583374e-02
9.770000e+02 7.259206e-03
9.780000e+02 2.836161e-03
9.790000e+02 1.787236e-01
9.800000e+02 1.247269e-01
9.810000e+02 2.056405e-03
9.820000e+02 4.238337e-04
9.830000e+02 5.025732e-02
9.840000e+02 1.668404e-02
9.850000e+02 1.048870e-03
9.860000e+02 1.665158e-03
9.870000e+02 5.804078e-02
9.880000e+02 6.251782e-05
9.890000e+02 8.785943e-03
9.900000e+02 2.795219e-02
9.910000e+02 4.151544e-04
9.920000e+02 5.317491e-05
9.930000e+02 3.455776e-01
9.940000e+02 2.268741e-04
9.950000e+02 1.820564e-02
9.960000e+02 1.667291e-04
9.970000e+02 2.383896e-02
9.980000e+02 2.921428e-02
9.990000e+02 7.885767e-04
1.000000e+03 6.898313e-01
1.001000e+03 4.471735e-01
1.002000e+03 1.755732e-01
1.003000e+03 8.257329e-04
1.004000e+03 1.237988e-04
1.005000e+03 2.528548e-03
1.006000e+03 1.005963e-01
1.007000e+03 2.234695e-01
1.008000e+03 4.859236e-02
1.009000e+03 1.316717e-03
1.010000e+03 5.260734e-02
1.011000e+03 9.068519e-02
1.012000e+03 6.868910e-02
1.013000e+03 6.110851e-02
1.014000e+03 1.645479e-04
1.015000e+03 2.106354e-04
1.016000e+03 3.198728e-03
1.017000e+03 1.903623e-04
1.018000e+03 1.295693e-03
1.019000e+03 2.350211e-04
1.020000e+03 1.937129e-01
1.021000e+03 2.111420e-03
1.022000e+03 3.122956e-03
1.023000e+03 3.612787e-04
1.024000e+03 1.089057e-01
1.025000e+03 2.828711e-04
1.026000e+03 7.998886e-04
1.027000e+03 1.498729e-02
1.028000e+03 6.248973e-03
1.029000e+03 3.447607e-04
1.030000e+03 1.306313e-02
1.031000e+03 1.962155e-02
1.032000e+03 2.210573e-01
1.033000e+03 4.140314e-02
1.034000e+03 2.794841e-02
1.035000e+03 4.543006e-03
1.036000e+03 4.870668e-04
1.037000e+03 1.586875e-01
1.038000e+03 1.015589e+00
1.039000e+03 1.635358e-01
1.040000e+03 1.798409e-01
1.041000e+03 1.325286e+00
1.042000e+03 5.365279e-01
1.043000e+03 5.999365e-01
1.044000e+03 4.859135e+00
1.045000e+03 2.986217e-03
1.046000e+03 1.838912e-01
1.047000e+03 6.131065e-02
1.048000e+03 2.215907e-03
1.049000e+03 6.639496e-02
1.050000e+03 2.378973e-02
1.051000e+03 1.355112e-02
1.052000e+03 6.581373e-01
1.053000e+03 1.425443e+00
1.054000e+03 1.132250e-03
1.055000e+03 1.944025e+00
1.056000e+03 2.042292e+00
1.057000e+03 1.665235e-01
1.058000e+03 1.414647e-02
1.059000e+03 1.127923e-02
1.060000e+03 3.561735e-03
1.061000e+03 2.563391e-01
1.062000e+03 8.048591e-03
1.063000e+03 2.666970e-01
1.064000e+03 5.369186e-03
1.065000e+03 1.875997e-03
1.066000e+03 3.706092e-01
1.067000e+03 8.600658e-03
1.068000e+03 5.707996e+00
1.069000e+03 3.329732e-03
1.070000e+03 1.063156e-01
1.071000e+03 1.311365e+00
1.072000e+03 3.454403e+00
1.073000e+03 2.731323e-03
1.074000e+03 1.863603e-01
1.075000e+03 1.129379e-01
1.076000e+03 4.029119e+00
1.077000e+03 1.303524e-02
1.078000e+03 1.953650e-02
1.079000e+03 7.825738e-02
1.080000e+03 2.539239e-01
1.081000e+03 8.901216e-01
1.082000e+03 5.520096e-01
1.083000e+03 3.152790e-01
1.084000e+03 1.469242e+01
1.085000e+03 9.443021e-02
1.086000e+03 7.504656e+00
1.087000e+03 2.190208e-02
1.088000e+03 2.346543e+01
1.089000e+03 2.274171e+01
1.090000e+03 7.578525e-02
1.091000e+03 1.038933e-01
1.092000e+03 1.148384e+01
1.093000e+03 1.574314e+01
1.094000e+03 8.298858e-01
1.095000e+03 3.330320e+01
1.096000e+03 7.157933e+00
1.097000e+03 2.841759e+00
1.098000e+03 2.359900e+01
1.099000e+03 2.761536e-01
1.100000e+03 1.155567e-02
1.101000e+03 2.204742e-02
1.102000e+03 1.718363e-01
1.103000e+03 1.685366e+01
1.104000e+03 4.159766e+01
1.105000e+03 2.494120e+01
1.106000e+03 7.433429e-01
1.107000e+03 1.633835e-02
1.108000e+03 3.860765e+00
1.109000e+03 1.049271e-01
1.110000e+03 4.982824e+01
1.111000e+03 1.206919e+01
1.112000e+03 1.926365e+00
1.113000e+03 2.989580e+01
1.114000e+03 1.251760e+00
1.115000e+03 1.442430e-01
1.116000e+03 6.934484e-02
1.117000e+03 1.258264e+01
1.118000e+03 1.710660e-01
1.119000e+03 2.436132e+00
1.120000e+03 8.644009e-02
1.121000e+03 8.681188e+00
1.122000e+03 6.586063e+01
1.123000e+03 1.771474e+01
1.124000e+03 2.014189e+01
1.125000e+03 8.941155e+00
1.126000e+03 2.029044e+02
1.127000e+03 1.312471e+01
1.128000e+03 8.900530e+01
1.129000e+03 6.126274e+00
1.130000e+03 3.484235e+01
1.131000e+03 7.622832e+01
1.132000e+03 1.571593e-01
1.133000e+03 7.682571e-01
1.134000e+03 7.089718e+00
1.135000e+03 5.974980e+01
1.136000e+03 1.646242e+00
1.137000e+03 2.658755e+01
1.138000e+03 6.198843e+00
1.139000e+03 7.537446e+01
1.140000e+03 8.390666e+01
1.141000e+03 5.549454e+01
1.142000e+03 1.255561e+02
1.143000e+03 9.475220e+00
1.144000e+03 1.128065e+02
1.145000e+03 1.016121e-01
1.146000e+03 1.592539e+02
1.147000e+03 7.555686e+01
1.148000e+03 5.189018e-01
1.149000e+03 3.193755e+01
1.150000e+03 1.990094e+01
1.151000e+03 1.342471e+02
1.152000e+03 5.035821e+01
1.153000e+03 8.272789e+01
1.154000e+03 1.874126e+02
1.155000e+03 2.849730e+01
1.156000e+03 1.573341e+02
1.157000e+03 1.867808e+02
1.158000e+03 1.122754e+01
1.159000e+03 1.156518e+02
1.160000e+03 1.328717e+01
1.161000e+03 9.155368e+01
1.162000e+03 2.111347e+00
1.163000e+03 6.506226e+00
1.164000e+03 1.747290e+00
1.165000e+03 4.389261e+01
1.166000e+03 2.622456e+01
1.167000e+03 2.603782e+01
1.168000e+03 1.725307e+02
1.169000e+03 2.147349e+02
1.170000e+03 1.797184e+01
1.171000e+03 7.451089e+01
1.172000e+03 2.172162e+01
1.173000e+03 8.749551e+01
1.174000e+03 5.026226e-01
1.175000e+03 1.049779e+00
1.176000e+03 3.518782e-01
1.177000e+03 2.690329e+02
1.178000e+03 2.723091e+02
1.179000e+03 1.661523e+02
1.180000e+03 4.431882e+01
1.181000e+03 2.443679e+02
1.182000e+03 1.484276e+02
1.183000e+03 4.962807e+01
1.184000e+03 3.901340e+01
1.185000e+03 5.455019e+01
1.186000e+03 2.275969e+00
1.187000e+03 9.758807e+01
1.188000e+03 2.911751e+01
1.189000e+03 2.044470e+02
1.190000e+03 1.793773e+02
1.191000e+03 8.808403e+01
1.192000e+03 1.375870e+02
1.193000e+03 7.527798e+01
1.194000e+03 1.302130e+02
1.195000e+03 1.216659e+02
1.196000e+03 2.741497e+02
1.197000e+03 1.015327e+03
1.198000e+03 6.242218e+00
1.199000e+03 9.926237e+02
1.200000e+03 1.728452e+01
1.201000e+03 6.394188e+02
1.202000e+03 8.646193e+01
1.203000e+03 3.560775e+02
1.204000e+03 1.771606e+01
1.205000e+03 2.464146e+02
1.206000e+03 2.959227e+02
1.207000e+03 1.137563e+02
1.208000e+03 1.809671e+02
1.209000e+03 2.272977e+02
1.210000e+03 1.628937e+00
1.211000e+03 9.982693e+01
1.212000e+03 3.427510e+01
1.213000e+03 3.196612e+01
1.214000e+03 1.099439e+01
1.215000e+03 1.533855e+00
1.216000e+03 7.758028e-01
1.217000e+03 7.029009e+00
1.218000e+03 2.717944e+01
1.219000e+03 6.219182e+01
1.220000e+03 2.056902e+01
1.221000e+03 1.790843e+02
1.222000e+03 1.567313e+02
1.223000e+03 1.272536e+02
1.224000e+03 5.154694e+02
1.225000e+03 1.021466e+01
1.226000e+03 9.382688e+02
1.227000e+03 7.899927e+02
1.228000e+03 6.047064e+01
1.229000e+03 4.995331e+02
1.230000e+03 3.226848e+02
1.231000e+03 3.686737e+01
1.232000e+03 2.279710e+03
1.233000e+03 2.775051e+03
1.234000e+03 2.795746e+03
1.235000e+03 1.341945e+03
1.236000e+03 8.844308e+01
1.237000e+03 2.685439e+03
1.238000e+03 1.646126e+03
1.239000e+03 5.094155e+02
1.240000e+03 1.988348e+03
1.241000e+03 5.319741e+02
1.242000e+03 1.323616e+03
1.243000e+03 3.594130e+03
1.244000e+03 4.625162e+03
1.245000e+03 2.879440e+03
1.246000e+03 1.085195e+03
1.247000e+03 1.812051e+03
1.248000e+03 5.108306e+03
1.249000e+03 6.685402e+03
1.250000e+03 3.123881e+03
1.251000e+03 5.082572e+03
1.252000e+03 2.288154e+03
1.253000e+03 6.168251e+03
1.254000e+03 2.611107e+03
1.255000e+03 2.500590e+03
1.256000e+03 1.970333e+03
1.257000e+03 3.768194e+03
1.258000e+03 7.420327e+02
1.259000e+03 1.330695e+03
1.260000e+03 5.383486e+03
1.261000e+03 4.222881e+02
1.262000e+03 7.376366e+03
1.263000e+03 3.553754e+03
1.264000e+03 1.021299e+03
1.265000e+03 1.407260e+03
1.266000e+03 5.449439e+03
1.267000e+03 1.592146e+03
