# wavelength_A flux
5.000000e+02 3.161340e-27
5.010000e+02 3.878712e-27
5.020000e+02 4.755013e-27
5.030000e+02 5.824598e-27
5.040000e+02 7.129150e-27
5.050000e+02 1.642931e-26
5.060000e+02 2.000652e-26
5.070000e+02 2.434394e-26
5.080000e+02 2.959940e-26
5.090000e+02 3.596247e-26
5.100000e+02 4.366040e-26
5.110000e+02 5.296821e-26
5.120000e+02 6.421214e-26
5.130000e+02 7.778596e-26
5.140000e+02 9.416054e-26
5.150000e+02 1.138779e-25
5.160000e+02 1.376776e-25
5.170000e+02 1.661977e-25
5.180000e+02 2.007327e-25
5.190000e+02 2.421199e-25
5.200000e+02 2.918328e-25
5.210000e+02 3.514902e-25
5.220000e+02 4.219047e-25
5.230000e+02 5.088277e-25
5.240000e+02 6.116974e-25
5.250000e+02 7.347999e-25
5.260000e+02 8.820369e-25
5.270000e+02 1.058057e-24
5.280000e+02 1.268351e-24
5.290000e+02 1.513226e-24
5.300000e+02 1.819006e-24
5.310000e+02 2.176193e-24
5.320000e+02 2.601808e-24
5.330000e+02 3.108623e-24
5.340000e+02 3.711723e-24
5.350000e+02 4.428858e-24
5.360000e+02 5.280280e-24
5.370000e+02 4.594294e-24
5.380000e+02 7.492456e-24
5.390000e+02 8.921384e-24
5.400000e+02 1.061266e-23
5.410000e+02 1.259238e-23
5.420000e+02 1.498503e-23
5.430000e+02 1.779427e-23
5.440000e+02 2.111349e-23
5.450000e+02 2.503655e-23
5.460000e+02 2.956496e-23
5.470000e+02 3.514096e-23
5.480000e+02 4.159457e-23
5.490000e+02 4.920480e-23
5.500000e+02 5.817226e-23
5.510000e+02 6.873356e-23
5.520000e+02 8.116440e-23
5.530000e+02 9.578739e-23
5.540000e+02 1.129792e-22
5.550000e+02 1.331795e-22
5.560000e+02 1.569012e-22
5.570000e+02 1.847424e-22
5.580000e+02 2.174000e-22
5.590000e+02 2.556858e-22
5.600000e+02 3.005447e-22
5.610000e+02 3.530761e-22
5.620000e+02 4.145580e-22
5.630000e+02 4.864773e-22
5.640000e+02 5.705571e-22
5.650000e+02 6.687894e-22
5.660000e+02 7.835357e-22
5.670000e+02 9.174525e-22
5.680000e+02 1.073681e-21
5.690000e+02 1.255837e-21
5.700000e+02 1.468104e-21
5.710000e+02 1.715353e-21
5.720000e+02 2.003174e-21
5.730000e+02 2.338057e-21
5.740000e+02 2.727497e-21
5.750000e+02 3.181435e-21
5.760000e+02 3.699379e-21
5.770000e+02 4.318277e-21
5.780000e+02 5.027112e-21
5.790000e+02 5.849311e-21
5.800000e+02 6.802465e-21
5.810000e+02 7.906815e-21
5.820000e+02 9.185377e-21
5.830000e+02 1.066269e-20
5.840000e+02 1.228517e-20
5.850000e+02 1.433555e-20
5.860000e+02 1.664946e-20
5.870000e+02 1.929919e-20
5.880000e+02 2.235689e-20
5.890000e+02 2.588080e-20
5.900000e+02 2.995638e-20
5.910000e+02 3.465044e-20
5.920000e+02 4.006112e-20
5.930000e+02 4.629443e-20
5.940000e+02 5.347243e-20
5.950000e+02 6.173413e-20
5.960000e+02 7.123894e-20
5.970000e+02 8.216885e-20
5.980000e+02 9.473177e-20
5.990000e+02 1.091652e-19
6.000000e+02 1.257400e-19
6.010000e+02 1.446645e-19
6.020000e+02 1.665934e-19
6.030000e+02 1.916260e-19
6.040000e+02 2.203215e-19
6.050000e+02 2.532004e-19
6.060000e+02 2.908537e-19
6.070000e+02 3.339641e-19
6.080000e+02 3.832929e-19
6.090000e+02 4.397137e-19
6.100000e+02 5.042141e-19
6.110000e+02 5.779365e-19
6.120000e+02 6.621446e-19
6.130000e+02 7.582958e-19
6.140000e+02 8.680372e-19
6.150000e+02 9.932368e-19
6.160000e+02 1.136012e-18
6.170000e+02 1.298762e-18
6.180000e+02 1.484204e-18
6.190000e+02 1.695411e-18
6.200000e+02 1.935876e-18
6.210000e+02 2.209528e-18
6.220000e+02 2.520827e-18
6.230000e+02 2.874796e-18
6.240000e+02 3.277131e-18
6.250000e+02 3.734254e-18
6.260000e+02 4.253417e-18
6.270000e+02 4.842802e-18
6.280000e+02 5.511658e-18
6.290000e+02 6.270383e-18
6.300000e+02 7.130693e-18
6.310000e+02 7.996860e-18
6.320000e+02 9.210803e-18
6.330000e+02 1.045836e-17
6.340000e+02 1.187903e-17
6.350000e+02 1.347803e-17
6.360000e+02 1.529619e-17
6.370000e+02 1.734781e-17
6.380000e+02 1.966672e-17
6.390000e+02 2.228712e-17
6.400000e+02 2.524708e-17
6.410000e+02 2.858935e-17
6.420000e+02 3.236194e-17
6.430000e+02 3.661863e-17
6.440000e+02 4.141978e-17
6.450000e+02 4.683302e-17
6.460000e+02 5.293427e-17
6.470000e+02 5.980835e-17
6.480000e+02 6.755041e-17
6.490000e+02 7.626687e-17
6.500000e+02 8.607396e-17
6.510000e+02 9.711358e-17
6.520000e+02 1.095262e-16
6.530000e+02 1.234811e-16
6.540000e+02 1.391630e-16
6.550000e+02 1.567843e-16
6.560000e+02 1.765726e-16
6.570000e+02 1.987268e-16
6.580000e+02 2.237215e-16
6.590000e+02 2.516941e-16
6.600000e+02 2.830598e-16
6.610000e+02 3.182380e-16
6.620000e+02 3.576578e-16
6.630000e+02 4.018227e-16
6.640000e+02 4.512875e-16
6.650000e+02 5.066604e-16
6.660000e+02 5.686565e-16
6.670000e+02 6.380127e-16
6.680000e+02 7.155887e-16
6.690000e+02 8.023297e-16
6.700000e+02 8.992865e-16
6.710000e+02 1.007627e-15
6.720000e+02 1.128648e-15
6.730000e+02 1.263791e-15
6.740000e+02 1.414653e-15
6.750000e+02 1.583011e-15
6.760000e+02 1.770832e-15
6.770000e+02 1.980301e-15
6.780000e+02 2.213836e-15
6.790000e+02 2.474122e-15
6.800000e+02 2.764131e-15
6.810000e+02 3.087159e-15
6.820000e+02 3.446846e-15
6.830000e+02 3.847241e-15
6.840000e+02 4.292796e-15
6.850000e+02 4.788405e-15
6.860000e+02 5.339700e-15
6.870000e+02 5.952489e-15
6.880000e+02 6.633722e-15
6.890000e+02 7.390567e-15
6.900000e+02 8.231258e-15
6.910000e+02 9.164794e-15
6.920000e+02 1.020112e-14
6.930000e+02 1.135122e-14
6.940000e+02 1.262719e-14
6.950000e+02 1.404240e-14
6.960000e+02 1.561157e-14
6.970000e+02 1.734802e-14
6.980000e+02 1.927846e-14
6.990000e+02 2.141381e-14
7.000000e+02 2.377870e-14
7.010000e+02 2.639707e-14
7.020000e+02 2.929527e-14
7.030000e+02 3.250228e-14
7.040000e+02 3.604999e-14
7.050000e+02 3.997349e-14
7.060000e+02 4.431122e-14
7.070000e+02 4.910599e-14
7.080000e+02 5.440402e-14
7.090000e+02 6.025511e-14
7.100000e+02 6.672018e-14
7.110000e+02 7.385637e-14
7.120000e+02 8.173305e-14
7.130000e+02 9.042468e-14
7.140000e+02 1.000129e-13
7.150000e+02 1.105873e-13
7.160000e+02 1.222466e-13
7.170000e+02 1.350933e-13
7.180000e+02 1.492385e-13
7.190000e+02 1.648618e-13
7.200000e+02 1.820456e-13
7.210000e+02 2.009664e-13
7.220000e+02 2.217945e-13
7.230000e+02 2.447158e-13
7.240000e+02 2.699343e-13
7.250000e+02 2.976728e-13
7.260000e+02 3.281751e-13
7.270000e+02 3.617084e-13
7.280000e+02 3.985639e-13
7.290000e+02 4.390602e-13
7.300000e+02 4.835457e-13
7.310000e+02 5.324010e-13
7.320000e+02 5.860420e-13
7.330000e+02 6.449216e-13
7.340000e+02 7.095356e-13
7.350000e+02 7.804246e-13
7.360000e+02 8.581647e-13
7.370000e+02 9.434415e-13
7.380000e+02 1.036915e-12
7.390000e+02 1.139363e-12
7.400000e+02 1.251593e-12
7.410000e+02 1.374599e-12
7.420000e+02 1.509256e-12
7.430000e+02 1.656761e-12
7.440000e+02 1.818199e-12
7.450000e+02 1.994881e-12
7.460000e+02 2.188197e-12
7.470000e+02 2.399664e-12
7.480000e+02 2.630930e-12
7.490000e+02 2.883790e-12
7.500000e+02 3.160192e-12
7.510000e+02 3.462259e-12
7.520000e+02 3.792296e-12
7.530000e+02 4.152806e-12
7.540000e+02 4.546512e-12
7.550000e+02 4.976372e-12
7.560000e+02 5.445595e-12
7.570000e+02 5.956811e-12
7.580000e+02 6.516372e-12
7.590000e+02 7.125524e-12
7.600000e+02 7.790423e-12
7.610000e+02 8.515124e-12
7.620000e+02 9.305126e-12
7.630000e+02 1.016604e-11
7.640000e+02 1.110407e-11
7.650000e+02 1.212586e-11
7.660000e+02 1.323878e-11
7.670000e+02 1.445052e-11
7.680000e+02 1.576861e-11
7.690000e+02 1.717155e-11
7.700000e+02 1.876768e-11
7.710000e+02 2.046720e-11
7.720000e+02 2.231574e-11
7.730000e+02 2.432582e-11
7.740000e+02 2.651113e-11
7.750000e+02 2.888643e-11
7.760000e+02 3.144171e-11
7.770000e+02 3.427219e-11
7.780000e+02 3.731864e-11
7.790000e+02 4.062702e-11
7.800000e+02 4.421921e-11
7.810000e+02 4.811878e-11
7.820000e+02 5.235100e-11
7.830000e+02 5.694339e-11
7.840000e+02 6.192551e-11
7.850000e+02 6.732934e-11
7.860000e+02 7.318907e-11
7.870000e+02 7.954606e-11
7.880000e+02 8.643315e-11
7.890000e+02 9.389700e-11
7.900000e+02 1.019843e-10
7.910000e+02 1.107452e-10
7.920000e+02 1.202340e-10
7.930000e+02 1.305091e-10
7.940000e+02 1.416333e-10
7.950000e+02 1.536745e-10
7.960000e+02 1.667055e-10
7.970000e+02 1.808050e-10
7.980000e+02 1.960575e-10
7.990000e+02 2.125540e-10
8.000000e+02 2.303925e-10
8.010000e+02 2.496765e-10
8.020000e+02 2.705250e-10
8.030000e+02 2.930542e-10
8.040000e+02 3.173970e-10
8.050000e+02 3.436944e-10
8.060000e+02 3.720979e-10
8.070000e+02 4.027700e-10
8.080000e+02 4.358858e-10
8.090000e+02 4.716330e-10
8.100000e+02 5.102134e-10
8.110000e+02 5.518436e-10
8.120000e+02 5.967561e-10
8.130000e+02 6.452008e-10
8.140000e+02 6.974453e-10
8.150000e+02 7.537755e-10
8.160000e+02 8.145055e-10
8.170000e+02 8.799601e-10
8.180000e+02 9.504968e-10
8.190000e+02 1.026495e-09
8.200000e+02 1.108364e-09
8.210000e+02 1.196540e-09
8.220000e+02 1.291492e-09
8.230000e+02 1.393721e-09
8.240000e+02 1.503766e-09
8.250000e+02 1.622204e-09
8.260000e+02 1.749650e-09
8.270000e+02 1.886764e-09
8.280000e+02 2.034256e-09
8.290000e+02 2.192880e-09
8.300000e+02 2.363448e-09
8.310000e+02 2.546826e-09
8.320000e+02 2.743942e-09
8.330000e+02 2.955786e-09
8.340000e+02 3.183420e-09
8.350000e+02 3.423390e-09
8.360000e+02 3.690468e-09
8.370000e+02 3.972801e-09
8.380000e+02 4.275604e-09
8.390000e+02 4.600987e-09
8.400000e+02 4.950107e-09
8.410000e+02 5.324737e-09
8.420000e+02 5.725983e-09
8.430000e+02 6.158209e-09
8.440000e+02 6.620918e-09
8.450000e+02 7.117175e-09
8.460000e+02 7.649323e-09
8.470000e+02 8.219863e-09
8.480000e+02 8.831460e-09
8.490000e+02 9.486961e-09
8.500000e+02 1.018940e-08
8.510000e+02 1.094202e-08
8.520000e+02 1.174814e-08
8.530000e+02 1.261180e-08
8.540000e+02 1.353714e-08
8.550000e+02 1.452735e-08
8.560000e+02 1.558743e-08
8.570000e+02 1.672210e-08
8.580000e+02 1.791457e-08
8.590000e+02 1.923581e-08
8.600000e+02 2.062596e-08
8.610000e+02 2.210795e-08
8.620000e+02 2.370339e-08
8.630000e+02 2.540397e-08
8.640000e+02 2.722241e-08
8.650000e+02 2.916568e-08
8.660000e+02 3.124386e-08
8.670000e+02 3.346416e-08
8.680000e+02 3.583656e-08
8.690000e+02 3.837108e-08
8.700000e+02 4.107836e-08
8.710000e+02 4.396981e-08
8.720000e+02 4.705738e-08
8.730000e+02 5.035391e-08
8.740000e+02 5.387300e-08
8.750000e+02 5.762909e-08
8.760000e+02 6.163754e-08
8.770000e+02 6.591400e-08
8.780000e+02 7.047770e-08
8.790000e+02 7.534520e-08
8.800000e+02 8.053652e-08
8.810000e+02 8.607247e-08
8.820000e+02 9.197502e-08
8.830000e+02 9.826748e-08
8.840000e+02 1.049746e-07
8.850000e+02 1.121228e-07
8.860000e+02 1.197397e-07
8.870000e+02 1.278551e-07
8.880000e+02 1.365002e-07
8.890000e+02 1.457083e-07
8.900000e+02 1.555146e-07
8.910000e+02 1.659564e-07
8.920000e+02 1.763991e-07
8.930000e+02 1.889074e-07
8.940000e+02 2.015029e-07
8.950000e+02 2.149069e-07
8.960000e+02 2.291695e-07
8.970000e+02 2.443433e-07
8.980000e+02 2.604843e-07
8.990000e+02 2.776518e-07
9.000000e+02 2.959083e-07
9.010000e+02 3.153204e-07
9.020000e+02 3.359581e-07
9.030000e+02 3.578944e-07
9.040000e+02 3.812123e-07
9.050000e+02 4.059845e-07
9.060000e+02 4.323191e-07
9.070000e+02 4.602659e-07
9.080000e+02 4.900031e-07
9.090000e+02 5.215613e-07
9.100000e+02 5.550751e-07
9.110000e+02 5.906712e-07
9.120000e+02 6.285754e-07
9.130000e+02 6.105903e-07
9.140000e+02 1.929700e-06
9.150000e+02 2.481124e-01
9.160000e+02 4.830974e-01
9.170000e+02 2.337982e-01
9.180000e+02 4.968604e-01
9.190000e+02 5.838286e-01
9.200000e+02 6.142560e-01
9.210000e+02 1.010652e-06
9.220000e+02 6.403305e-01
9.230000e+02 3.602770e-01
9.240000e+02 3.778192e-01
9.250000e+02 5.822131e-01
9.260000e+02 7.465620e-01
9.270000e+02 3.129043e-01
9.280000e+02 8.480180e-01
9.290000e+02 8.838844e-01
9.300000e+02 8.848712e-01
9.310000e+02 3.430514e-01
9.320000e+02 9.955618e-01
9.330000e+02 1.034848e+00
9.340000e+02 1.075617e+00
9.350000e+02 4.717782e-04
9.360000e+02 4.088872e-01
9.370000e+02 1.929859e-04
9.380000e+02 8.036374e-02
9.390000e+02 6.836657e-01
9.400000e+02 1.348758e+00
9.410000e+02 9.537049e-03
9.420000e+02 1.428441e+00
9.430000e+02 1.010965e+00
9.440000e+02 9.489065e-01
9.450000e+02 1.632614e+00
9.460000e+02 1.614857e+00
9.470000e+02 6.678832e-02
9.480000e+02 8.052056e-01
9.490000e+02 1.808511e+00
9.500000e+02 5.547404e-04
9.510000e+02 1.827430e+00
9.520000e+02 2.043826e+00
9.530000e+02 2.742995e-01
9.540000e+02 6.230906e-02
9.550000e+02 1.704743e+00
9.560000e+02 1.162059e+00
9.570000e+02 8.315420e-02
9.580000e+02 1.140594e-02
9.590000e+02 2.886844e+00
9.600000e+02 6.451607e-04
9.610000e+02 2.880383e+00
9.620000e+02 2.609779e+00
9.630000e+02 2.029163e+00
9.640000e+02 7.152557e-05
9.650000e+02 1.573634e-01
9.660000e+02 2.442651e+00
9.670000e+02 9.135957e-01
9.680000e+02 4.488623e-01
9.690000e+02 3.665925e+00
9.700000e+02 3.649162e+00
9.710000e+02 9.951544e-01
9.720000e+02 8.015573e-01
9.730000e+02 2.576856e+00
9.740000e+02 4.179167e+00
9.750000e+02 3.325158e+00
9.760000e+02 5.425754e+00
9.770000e+02 5.527758e+00
9.780000e+02 5.094397e+00
9.790000e+02 6.266526e+00
9.800000e+02 6.499051e+00
9.810000e+02 5.717373e+00
9.820000e+02 3.334033e+00
9.830000e+02 7.259994e+00
9.840000e+02 1.010849e-01
9.850000e+02 5.477868e+00
9.860000e+02 5.758687e+00
9.870000e+02 8.488142e+00
9.880000e+02 2.620897e-01
9.890000e+02 5.948342e+00
9.900000e+02 4.000664e-03
9.910000e+02 1.570655e+00
9.920000e+02 3.251773e-02
9.930000e+02 7.749757e+00
9.940000e+02 7.276535e-04
9.950000e+02 1.081026e-01
9.960000e+02 9.409075e-01
9.970000e+02 1.049519e-02
9.980000e+02 1.167625e+01
9.990000e+02 9.972829e-01
1.000000e+03 1.224259e+01
1.001000e+03 1.468239e+01
1.002000e+03 1.518903e+01
1.003000e+03 5.982092e+00
1.004000e+03 4.550943e-01
1.005000e+03 9.457630e+00
1.006000e+03 1.757444e+01
1.007000e+03 1.832470e+01
1.008000e+03 1.850546e+01
1.009000e+03 8.270806e+00
1.010000e+03 2.004164e+01
1.011000e+03 2.115772e+01
1.012000e+03 2.156709e+01
1.013000e+03 2.220087e+01
1.014000e+03 6.918716e-02
1.015000e+03 4.276562e-01
1.016000e+03 1.176354e+01
1.017000e+03 6.351471e-02
1.018000e+03 1.019492e+01
1.019000e+03 4.343567e-01
1.020000e+03 2.834932e+01
1.021000e+03 5.073452e-01
1.022000e+03 6.517258e+00
1.023000e+03 8.896484e-01
1.024000e+03 1.861924e+01
1.025000e+03 5.277316e-02
1.026000e+03 1.260883e-01
1.027000e+03 1.359001e+01
1.028000e+03 1.453209e-02
1.029000e+03 1.178474e-01
1.030000e+03 3.103694e+01
1.031000e+03 3.102101e+01
1.032000e+03 3.345508e+01
1.033000e+03 1.337013e-01
1.034000e+03 3.931257e+01
1.035000e+03 9.246826e-03
1.036000e+03 2.204628e-01
1.037000e+03 5.179448e+01
1.038000e+03 5.524401e+01
1.039000e+03 5.427844e+01
1.040000e+03 5.881950e+01
1.041000e+03 5.841946e+01
1.042000e+03 6.357799e+01
1.043000e+03 4.524540e+01
1.044000e+03 6.887761e+01
1.045000e+03 6.851856e+01
1.046000e+03 7.197715e+01
1.047000e+03 6.326165e+01
1.048000e+03 6.541420e+00
1.049000e+03 6.655441e+01
1.050000e+03 6.007784e+01
1.051000e+03 4.703508e+01
1.052000e+03 8.944675e+01
1.053000e+03 9.328220e+01
1.054000e+03 3.098755e-01
1.055000e+03 9.892253e+01
1.056000e+03 1.036126e+02
1.057000e+03 9.692220e+01
1.058000e+03 6.485006e+01
1.059000e+03 3.407876e+01
1.060000e+03 9.684212e+00
1.061000e+03 1.152990e+02
1.062000e+03 4.594289e+01
1.063000e+03 5.123806e-01
1.064000e+03 2.052307e-02
1.065000e+03 5.424805e-01
1.066000e+03 5.070610e+01
1.067000e+03 2.429133e+01
1.068000e+03 1.558047e+02
1.069000e+03 4.702729e+00
1.070000e+03 1.429584e+02
1.071000e+03 1.712967e+02
1.072000e+03 1.773717e+02
1.073000e+03 1.287949e+00
1.074000e+03 1.593134e+02
1.075000e+03 1.465137e+02
1.076000e+03 2.019955e+02
1.077000e+03 6.369019e-01
1.078000e+03 8.982767e+01
1.079000e+03 1.678985e+02
1.080000e+03 1.856976e+02
1.081000e+03 2.293036e+02
1.082000e+03 2.296430e+02
1.083000e+03 2.223519e+02
1.084000e+03 2.547344e+02
1.085000e+03 6.836488e+01
1.086000e+03 2.772313e+02
1.087000e+03 5.774727e+01
1.088000e+03 2.905575e+02
1.089000e+03 3.020701e+02
1.090000e+03 1.729292e+02
1.091000e+03 1.894087e+02
1.092000e+03 3.238805e+02
1.093000e+03 3.385157e+02
1.094000e+03 3.282170e+02
1.095000e+03 3.600508e+02
1.096000e+03 3.416168e+01
1.097000e+03 3.603295e+02
1.098000e+03 3.898214e+02
1.099000e+03 3.195068e+02
1.100000e+03 1.673706e+01
1.101000e+03 5.338524e+01
1.102000e+03 3.304545e+02
1.103000e+03 8.931686e+02
1.104000e+03 6.660889e+02
1.105000e+03 4.597585e+02
1.106000e+03 8.772228e+02
1.107000e+03 1.696887e+01
1.108000e+03 1.105505e+03
1.109000e+03 2.599055e+02
1.110000e+03 6.124563e+02
1.111000e+03 7.383090e+02
1.112000e+03 1.103116e+03
1.113000e+03 1.085264e+03
1.114000e+03 4.075216e+02
1.115000e+03 3.892622e+02
1.116000e+03 2.627261e+02
1.117000e+03 4.414576e+02
1.118000e+03 3.646041e+02
1.119000e+03 1.292183e+03
1.120000e+03 2.720012e+02
1.121000e+03 1.393427e+03
1.122000e+03 1.078723e+01
1.123000e+03 9.320286e+02
1.124000e+03 1.507903e+03
1.125000e+03 1.203086e+03
1.126000e+03 1.584145e+03
1.127000e+03 1.553956e+03
1.128000e+03 8.456780e+02
1.129000e+03 1.563272e+03
1.130000e+03 1.651130e+03
1.131000e+03 1.591490e+03
1.132000e+03 3.130811e+01
1.133000e+03 8.651365e+02
1.134000e+03 1.673045e+03
1.135000e+03 9.058105e+00
1.136000e+03 1.345521e+03
1.137000e+03 1.898998e+03
1.138000e+03 1.790604e+03
1.139000e+03 1.976245e+03
1.140000e+03 1.933529e+02
1.141000e+03 2.046935e+03
1.142000e+03 2.070513e+03
1.143000e+03 1.913577e+03
1.144000e+03 2.103970e+03
1.145000e+03 1.215187e+02
1.146000e+03 2.243397e+03
1.147000e+03 2.251950e+03
1.148000e+03 8.477871e+02
1.149000e+03 2.297711e+03
1.150000e+03 2.326204e+03
1.151000e+03 2.431415e+03
1.152000e+03 2.478075e+03
1.153000e+03 1.601305e+03
1.154000e+03 2.505649e+03
1.155000e+03 2.551806e+03
1.156000e+03 2.352036e+03
1.157000e+03 2.580045e+03
1.158000e+03 6.145154e+02
1.159000e+03 2.727559e+03
1.160000e+03 2.659458e+03
1.161000e+03 2.875857e+03
1.162000e+03 1.142711e+03
1.163000e+03 2.475390e+03
1.164000e+03 3.014404e+00
1.165000e+03 3.062180e+03
1.166000e+03 3.092562e+03
1.167000e+03 3.156098e+03
1.168000e+03 3.285081e+03
1.169000e+03 3.260509e+03
1.170000e+03 3.315125e+03
1.171000e+03 3.458211e+03
1.172000e+03 3.377161e+03
1.173000e+03 3.627493e+03
1.174000e+03 7.020339e+02
1.175000e+03 3.159912e+00
1.176000e+03 1.373535e+00
1.177000e+03 3.935247e+03
1.178000e+03 3.992420e+03
1.179000e+03 4.069338e+03
1.180000e+03 3.562631e+03
1.181000e+03 4.198683e+03
1.182000e+03 4.282112e+03
1.183000e+03 4.305915e+03
1.184000e+03 4.365143e+03
1.185000e+03 4.501168e+03
1.186000e+03 2.605579e+03
1.187000e+03 4.627040e+03
1.188000e+03 4.339981e+03
1.189000e+03 5.757461e+02
1.190000e+03 3.967250e+03
1.191000e+03 4.907107e+03
1.192000e+03 4.955168e+03
1.193000e+03 5.556250e+01
1.194000e+03 7.383628e+02
1.195000e+03 4.835223e+03
1.196000e+03 5.118292e+03
1.197000e+03 8.931338e+03
1.198000e+03 6.012313e+03
1.199000e+03 8.551465e+03
1.200000e+03 6.414080e+03
1.201000e+03 7.974421e+03
1.202000e+03 7.585071e+03
1.203000e+03 1.040435e+04
1.204000e+03 7.329274e+03
1.205000e+03 8.572606e+03
1.206000e+03 8.233546e+03
1.207000e+03 3.233384e+02
1.208000e+03 5.404216e+03
1.209000e+03 3.693265e+03
1.210000e+03 5.648682e+00
1.211000e+03 1.535067e+03
1.212000e+03 7.095425e+02
1.213000e+03 2.684212e+02
1.214000e+03 6.893562e+01
1.215000e+03 1.089196e+01
1.216000e+03 3.883904e+00
1.217000e+03 4.239007e+01
1.218000e+03 2.013254e+02
1.219000e+03 6.191113e+02
1.220000e+03 1.416663e+03
1.221000e+03 2.736162e+03
1.222000e+03 4.617181e+03
1.223000e+03 6.594870e+03
1.224000e+03 7.925162e+03
1.225000e+03 6.763411e+03
1.226000e+03 1.346990e+04
1.227000e+03 1.554121e+04
1.228000e+03 1.592709e+04
1.229000e+03 1.980665e+04
1.230000e+03 1.889590e+04
1.231000e+03 1.641155e+04
1.232000e+03 2.517322e+04
1.233000e+03 2.711980e+04
1.234000e+03 1.598766e+04
1.235000e+03 3.010351e+04
1.236000e+03 2.714735e+04
1.237000e+03 3.285954e+04
1.238000e+03 3.410707e+04
1.239000e+03 3.481596e+04
1.240000e+03 7.404387e+03
1.241000e+03 3.537431e+04
1.242000e+03 3.825931e+04
1.243000e+03 4.001172e+04
1.244000e+03 3.879733e+04
1.245000e+03 4.153170e+04
1.246000e+03 4.324368e+04
1.247000e+03 4.415638e+04
1.248000e+03 2.744312e+04
1.249000e+03 4.556008e+04
1.250000e+03 3.687572e+04
1.251000e+03 4.943366e+04
1.252000e+03 4.818346e+04
1.253000e+03 5.157624e+04
1.254000e+03 5.169929e+04
1.255000e+03 4.406240e+04
1.256000e+03 5.353945e+04
1.257000e+03 4.343628e+04
1.258000e+03 5.377141e+04
1.259000e+03 5.782429e+04
1.260000e+03 5.869287e+04
1.261000e+03 5.688906e+02
1.262000e+03 5.462218e+04
1.263000e+03 5.781588e+04
1.264000e+03 6.275522e+04
1.265000e+03 1.953125e+01
1.266000e+03 6.687853e+04
1.267000e+03 6.686609e+04
