# wavelength_A flux
5.000000e+02 1.049175e-14
5.010000e+02 1.228261e-14
5.020000e+02 1.436987e-14
5.030000e+02 1.680107e-14
5.040000e+02 1.963099e-14
5.050000e+02 1.805520e-14
5.060000e+02 2.109292e-14
5.070000e+02 2.462608e-14
5.080000e+02 2.873293e-14
5.090000e+02 3.350363e-14
5.100000e+02 3.904211e-14
5.110000e+02 4.546792e-14
5.120000e+02 5.291872e-14
5.130000e+02 6.155275e-14
5.140000e+02 7.155190e-14
5.150000e+02 8.313161e-14
5.160000e+02 9.651200e-14
5.170000e+02 1.120383e-13
5.180000e+02 1.298679e-13
5.190000e+02 1.505139e-13
5.200000e+02 1.743401e-13
5.210000e+02 2.018236e-13
5.220000e+02 2.337524e-13
5.230000e+02 2.700004e-13
5.240000e+02 3.120144e-13
5.250000e+02 3.603341e-13
5.260000e+02 4.159296e-13
5.270000e+02 4.798326e-13
5.280000e+02 5.532429e-13
5.290000e+02 6.392093e-13
5.300000e+02 7.342470e-13
5.310000e+02 8.451720e-13
5.320000e+02 9.723209e-13
5.330000e+02 1.117989e-12
5.340000e+02 1.284786e-12
5.350000e+02 1.475687e-12
5.360000e+02 1.694154e-12
5.370000e+02 2.202690e-12
5.380000e+02 2.229404e-12
5.390000e+02 2.554472e-12
5.400000e+02 2.926154e-12
5.410000e+02 3.353668e-12
5.420000e+02 3.834228e-12
5.430000e+02 4.384766e-12
5.440000e+02 5.012444e-12
5.450000e+02 5.727049e-12
5.460000e+02 6.552434e-12
5.470000e+02 7.465060e-12
5.480000e+02 8.516459e-12
5.490000e+02 9.710983e-12
5.500000e+02 1.106761e-11
5.510000e+02 1.260753e-11
5.520000e+02 1.435465e-11
5.530000e+02 1.633590e-11
5.540000e+02 1.858157e-11
5.550000e+02 2.112573e-11
5.560000e+02 2.400668e-11
5.570000e+02 2.726747e-11
5.580000e+02 3.095645e-11
5.590000e+02 3.512787e-11
5.600000e+02 3.984264e-11
5.610000e+02 4.516907e-11
5.620000e+02 5.118374e-11
5.630000e+02 5.797248e-11
5.640000e+02 6.563140e-11
5.650000e+02 7.426827e-11
5.660000e+02 8.400313e-11
5.670000e+02 9.497112e-11
5.680000e+02 1.073228e-10
5.690000e+02 1.212264e-10
5.700000e+02 1.368708e-10
5.710000e+02 1.544643e-10
5.720000e+02 1.742431e-10
5.730000e+02 1.964682e-10
5.740000e+02 2.214314e-10
5.750000e+02 2.494165e-10
5.760000e+02 2.810359e-10
5.770000e+02 3.161416e-10
5.780000e+02 3.556978e-10
5.790000e+02 4.000336e-10
5.800000e+02 4.497066e-10
5.810000e+02 5.053382e-10
5.820000e+02 5.676257e-10
5.830000e+02 6.373914e-10
5.840000e+02 7.175216e-10
5.850000e+02 8.029704e-10
5.860000e+02 8.998041e-10
5.870000e+02 1.008516e-09
5.880000e+02 1.129965e-09
5.890000e+02 1.265611e-09
5.900000e+02 1.416832e-09
5.910000e+02 1.585572e-09
5.920000e+02 1.773704e-09
5.930000e+02 1.983375e-09
5.940000e+02 2.216958e-09
5.950000e+02 2.477081e-09
5.960000e+02 2.766645e-09
5.970000e+02 3.088861e-09
5.980000e+02 3.447273e-09
5.990000e+02 3.845795e-09
6.000000e+02 4.288749e-09
6.010000e+02 4.780937e-09
6.020000e+02 5.327522e-09
6.030000e+02 5.934401e-09
6.040000e+02 6.607937e-09
6.050000e+02 7.355177e-09
6.060000e+02 8.184062e-09
6.070000e+02 9.102597e-09
6.080000e+02 1.012073e-08
6.090000e+02 1.124863e-08
6.100000e+02 1.249770e-08
6.110000e+02 1.388043e-08
6.120000e+02 1.541060e-08
6.130000e+02 1.710333e-08
6.140000e+02 1.897525e-08
6.150000e+02 2.104455e-08
6.160000e+02 2.333130e-08
6.170000e+02 2.585744e-08
6.180000e+02 2.864709e-08
6.190000e+02 3.172670e-08
6.200000e+02 3.512515e-08
6.210000e+02 3.887428e-08
6.220000e+02 4.300884e-08
6.230000e+02 4.756691e-08
6.240000e+02 5.259020e-08
6.250000e+02 5.812435e-08
6.260000e+02 6.421929e-08
6.270000e+02 7.092964e-08
6.280000e+02 7.831503e-08
6.290000e+02 8.644080e-08
6.300000e+02 9.537826e-08
6.310000e+02 1.059454e-07
6.320000e+02 1.160069e-07
6.330000e+02 1.278826e-07
6.340000e+02 1.409138e-07
6.350000e+02 1.552584e-07
6.360000e+02 1.709493e-07
6.370000e+02 1.881967e-07
6.380000e+02 2.071198e-07
6.390000e+02 2.278736e-07
6.400000e+02 2.506283e-07
6.410000e+02 2.755690e-07
6.420000e+02 3.028974e-07
6.430000e+02 3.328326e-07
6.440000e+02 3.656137e-07
6.450000e+02 4.015019e-07
6.460000e+02 4.407742e-07
6.470000e+02 4.837449e-07
6.480000e+02 5.307398e-07
6.490000e+02 5.821271e-07
6.500000e+02 6.383017e-07
6.510000e+02 6.996811e-07
6.520000e+02 7.667388e-07
6.530000e+02 8.399750e-07
6.540000e+02 9.199371e-07
6.550000e+02 1.007213e-06
6.560000e+02 1.102449e-06
6.570000e+02 1.206482e-06
6.580000e+02 1.319639e-06
6.590000e+02 1.443164e-06
6.600000e+02 1.577803e-06
6.610000e+02 1.724507e-06
6.620000e+02 1.884319e-06
6.630000e+02 2.058361e-06
6.640000e+02 2.247843e-06
6.650000e+02 2.454093e-06
6.660000e+02 2.678498e-06
6.670000e+02 2.922624e-06
6.680000e+02 3.188118e-06
6.690000e+02 3.476775e-06
6.700000e+02 3.790547e-06
6.710000e+02 4.131476e-06
6.720000e+02 4.501867e-06
6.730000e+02 4.904142e-06
6.740000e+02 5.340928e-06
6.750000e+02 5.815061e-06
6.760000e+02 6.329599e-06
6.770000e+02 6.887840e-06
6.780000e+02 7.493339e-06
6.790000e+02 8.149926e-06
6.800000e+02 8.861727e-06
6.810000e+02 9.633190e-06
6.820000e+02 1.046910e-05
6.830000e+02 1.137460e-05
6.840000e+02 1.235526e-05
6.850000e+02 1.341703e-05
6.860000e+02 1.456634e-05
6.870000e+02 1.581010e-05
6.880000e+02 1.715573e-05
6.890000e+02 1.861121e-05
6.900000e+02 2.018514e-05
6.910000e+02 2.188668e-05
6.920000e+02 2.372580e-05
6.930000e+02 2.571312e-05
6.940000e+02 2.786005e-05
6.950000e+02 3.017885e-05
6.960000e+02 3.268269e-05
6.970000e+02 3.539266e-05
6.980000e+02 3.830298e-05
6.990000e+02 4.145081e-05
7.000000e+02 4.484662e-05
7.010000e+02 4.850905e-05
7.020000e+02 5.245814e-05
7.030000e+02 5.671532e-05
7.040000e+02 6.130357e-05
7.050000e+02 6.624748e-05
7.060000e+02 7.157341e-05
7.070000e+02 7.730956e-05
7.080000e+02 8.348613e-05
7.090000e+02 9.013557e-05
7.100000e+02 9.729199e-05
7.110000e+02 1.049928e-04
7.120000e+02 1.132774e-04
7.130000e+02 1.221881e-04
7.140000e+02 1.317700e-04
7.150000e+02 1.420714e-04
7.160000e+02 1.531440e-04
7.170000e+02 1.650462e-04
7.180000e+02 1.778487e-04
7.190000e+02 1.915583e-04
7.200000e+02 2.063049e-04
7.210000e+02 2.221380e-04
7.220000e+02 2.391344e-04
7.230000e+02 2.573751e-04
7.240000e+02 2.769475e-04
7.250000e+02 2.979443e-04
7.260000e+02 3.204643e-04
7.270000e+02 3.446130e-04
7.280000e+02 3.705028e-04
7.290000e+02 3.982533e-04
7.300000e+02 4.279923e-04
7.310000e+02 4.598555e-04
7.320000e+02 4.939877e-04
7.330000e+02 5.305430e-04
7.340000e+02 5.696854e-04
7.350000e+02 6.115896e-04
7.360000e+02 6.564469e-04
7.370000e+02 7.044381e-04
7.380000e+02 7.557904e-04
7.390000e+02 8.107217e-04
7.400000e+02 8.694732e-04
7.410000e+02 9.322875e-04
7.420000e+02 9.994460e-04
7.430000e+02 1.071223e-03
7.440000e+02 1.147930e-03
7.450000e+02 1.229886e-03
7.460000e+02 1.317434e-03
7.470000e+02 1.410937e-03
7.480000e+02 1.510780e-03
7.490000e+02 1.617374e-03
7.500000e+02 1.731154e-03
7.510000e+02 1.852580e-03
7.520000e+02 1.982141e-03
7.530000e+02 2.120357e-03
7.540000e+02 2.267779e-03
7.550000e+02 2.424992e-03
7.560000e+02 2.592609e-03
7.570000e+02 2.771338e-03
7.580000e+02 2.961733e-03
7.590000e+02 3.164731e-03
7.600000e+02 3.380882e-03
7.610000e+02 3.611173e-03
7.620000e+02 3.856456e-03
7.630000e+02 4.117650e-03
7.640000e+02 4.395730e-03
7.650000e+02 4.691741e-03
7.660000e+02 5.006760e-03
7.670000e+02 5.341975e-03
7.680000e+02 5.698828e-03
7.690000e+02 6.078056e-03
7.700000e+02 6.481355e-03
7.710000e+02 6.910341e-03
7.720000e+02 7.366398e-03
7.730000e+02 7.851182e-03
7.740000e+02 8.366398e-03
7.750000e+02 8.913860e-03
7.760000e+02 9.496628e-03
7.770000e+02 1.011331e-02
7.780000e+02 1.076943e-02
7.790000e+02 1.146617e-02
7.800000e+02 1.220589e-02
7.810000e+02 1.299108e-02
7.820000e+02 1.382445e-02
7.830000e+02 1.470877e-02
7.840000e+02 1.564701e-02
7.850000e+02 1.664230e-02
7.860000e+02 1.769793e-02
7.870000e+02 1.881690e-02
7.880000e+02 2.000379e-02
7.890000e+02 2.126201e-02
7.900000e+02 2.259563e-02
7.910000e+02 2.400895e-02
7.920000e+02 2.550648e-02
7.930000e+02 2.709300e-02
7.940000e+02 2.877352e-02
7.950000e+02 3.055332e-02
7.960000e+02 3.243798e-02
7.970000e+02 3.443335e-02
7.980000e+02 3.654560e-02
7.990000e+02 3.878123e-02
8.000000e+02 4.114708e-02
8.010000e+02 4.365036e-02
8.020000e+02 4.629857e-02
8.030000e+02 4.909975e-02
8.040000e+02 5.206226e-02
8.050000e+02 5.519490e-02
8.060000e+02 5.850692e-02
8.070000e+02 6.200810e-02
8.080000e+02 6.570864e-02
8.090000e+02 6.961934e-02
8.100000e+02 7.375149e-02
8.110000e+02 7.811698e-02
8.120000e+02 8.272830e-02
8.130000e+02 8.759857e-02
8.140000e+02 9.274157e-02
8.150000e+02 9.817243e-02
8.160000e+02 1.039044e-01
8.170000e+02 1.099553e-01
8.180000e+02 1.163414e-01
8.190000e+02 1.230801e-01
8.200000e+02 1.301900e-01
8.210000e+02 1.376903e-01
8.220000e+02 1.456014e-01
8.230000e+02 1.539448e-01
8.240000e+02 1.627423e-01
8.250000e+02 1.720178e-01
8.260000e+02 1.817959e-01
8.270000e+02 1.921021e-01
8.280000e+02 2.029635e-01
8.290000e+02 2.144085e-01
8.300000e+02 2.264667e-01
8.310000e+02 2.391692e-01
8.320000e+02 2.525486e-01
8.330000e+02 2.666389e-01
8.340000e+02 2.814761e-01
8.350000e+02 2.973886e-01
8.360000e+02 3.135643e-01
8.370000e+02 3.308512e-01
8.380000e+02 3.490679e-01
8.390000e+02 3.682367e-01
8.400000e+02 3.884051e-01
8.410000e+02 4.096224e-01
8.420000e+02 4.320391e-01
8.430000e+02 4.554117e-01
8.440000e+02 4.800942e-01
8.450000e+02 5.060465e-01
8.460000e+02 5.333302e-01
8.470000e+02 5.620099e-01
8.480000e+02 5.921532e-01
8.490000e+02 6.238305e-01
8.500000e+02 6.571158e-01
8.510000e+02 6.920859e-01
8.520000e+02 7.288247e-01
8.530000e+02 7.674080e-01
8.540000e+02 8.079025e-01
8.550000e+02 8.504541e-01
8.560000e+02 8.951312e-01
8.570000e+02 9.420341e-01
8.580000e+02 9.913023e-01
8.590000e+02 1.042941e+00
8.600000e+02 1.097168e+00
8.610000e+02 1.154072e+00
8.620000e+02 1.213767e+00
8.630000e+02 1.276395e+00
8.640000e+02 1.342081e+00
8.650000e+02 1.410975e+00
8.660000e+02 1.483216e+00
8.670000e+02 1.558965e+00
8.680000e+02 1.638381e+00
8.690000e+02 1.721629e+00
8.700000e+02 1.808934e+00
8.710000e+02 1.900331e+00
8.720000e+02 1.996157e+00
8.730000e+02 2.096560e+00
8.740000e+02 2.201746e+00
8.750000e+02 2.311931e+00
8.760000e+02 2.427338e+00
8.770000e+02 2.548215e+00
8.780000e+02 2.674763e+00
8.790000e+02 2.807275e+00
8.800000e+02 2.946005e+00
8.810000e+02 3.091223e+00
8.820000e+02 3.243218e+00
8.830000e+02 3.402289e+00
8.840000e+02 3.568744e+00
8.850000e+02 3.742906e+00
8.860000e+02 3.925114e+00
8.870000e+02 4.115713e+00
8.880000e+02 4.315073e+00
8.890000e+02 4.523568e+00
8.900000e+02 4.741593e+00
8.910000e+02 4.969561e+00
8.920000e+02 5.269960e+00
8.930000e+02 5.457045e+00
8.940000e+02 5.717469e+00
8.950000e+02 5.989647e+00
8.960000e+02 6.274073e+00
8.970000e+02 6.571275e+00
8.980000e+02 6.881791e+00
8.990000e+02 7.206177e+00
9.000000e+02 7.545023e+00
9.010000e+02 7.898927e+00
9.020000e+02 8.268531e+00
9.030000e+02 8.654510e+00
9.040000e+02 9.057453e+00
9.050000e+02 9.478150e+00
9.060000e+02 9.917319e+00
9.070000e+02 1.037612e+01
9.080000e+02 1.085414e+01
9.090000e+02 1.135341e+01
9.100000e+02 1.187437e+01
9.110000e+02 1.241760e+01
9.120000e+02 1.298252e+01
9.130000e+02 1.456548e+01
9.140000e+02 1.053871e+01
9.150000e+02 4.175155e+01
9.160000e+02 1.927160e+02
9.170000e+02 4.941545e+01
9.180000e+02 1.314133e+02
9.190000e+02 6.411824e+02
9.200000e+02 1.136059e+03
9.210000e+02 2.084443e+01
9.220000e+02 8.287172e+02
9.230000e+02 6.818626e+01
9.240000e+02 1.050789e+02
9.250000e+02 3.050421e+02
9.260000e+02 4.310420e+02
9.270000e+02 6.542994e+01
9.280000e+02 2.163153e+03
9.290000e+02 2.107280e+03
9.300000e+02 1.886354e+03
9.310000e+02 6.220996e+01
9.320000e+02 2.548931e+03
9.330000e+02 8.425021e+02
9.340000e+02 4.400547e+02
9.350000e+02 1.447866e+01
9.360000e+02 8.852661e+01
9.370000e+02 8.506908e+00
9.380000e+02 1.983253e+02
9.390000e+02 1.455066e+02
9.400000e+02 2.518836e+03
9.410000e+02 3.463712e+02
9.420000e+02 3.844250e+03
9.430000e+02 2.143020e+02
9.440000e+02 3.422642e+03
9.450000e+02 4.167863e+03
9.460000e+02 1.782368e+03
9.470000e+02 3.147418e+01
9.480000e+02 3.918693e+03
9.490000e+02 3.138222e+03
9.500000e+02 4.555136e+01
9.510000e+02 1.450806e+03
9.520000e+02 2.015453e+03
9.530000e+02 5.228076e+01
9.540000e+02 3.527507e+01
9.550000e+02 6.092871e+02
9.560000e+02 5.806597e+03
9.570000e+02 2.178688e+02
9.580000e+02 1.746912e+01
9.590000e+02 5.812789e+03
9.600000e+02 2.328516e+01
9.610000e+02 1.935781e+03
9.620000e+02 9.046521e+02
9.630000e+02 6.876113e+02
9.640000e+02 4.457837e+01
9.650000e+02 6.464209e+01
9.660000e+02 6.629453e+02
9.670000e+02 1.788428e+02
9.680000e+02 9.290625e+01
9.690000e+02 1.786438e+03
9.700000e+02 1.409013e+03
9.710000e+02 1.788195e+02
9.720000e+02 2.735227e+02
9.730000e+02 3.689582e+03
9.740000e+02 2.186452e+03
9.750000e+02 9.317272e+02
9.760000e+02 6.560227e+03
9.770000e+02 4.741475e+03
9.780000e+02 1.997369e+03
9.790000e+02 1.258195e+04
9.800000e+02 1.291643e+04
9.810000e+02 2.395661e+03
9.820000e+02 5.553218e+02
9.830000e+02 1.138544e+04
9.840000e+02 9.834773e+02
9.850000e+02 1.504432e+03
9.860000e+02 1.618706e+03
9.870000e+02 1.290337e+04
9.880000e+02 1.128604e+02
9.890000e+02 4.663013e+03
9.900000e+02 9.855460e+01
9.910000e+02 3.236896e+02
9.920000e+02 5.815666e+01
9.930000e+02 1.790882e+04
9.940000e+02 9.370581e+01
9.950000e+02 1.145644e+03
9.960000e+02 2.315898e+02
9.970000e+02 8.769429e+02
9.980000e+02 9.238712e+03
9.990000e+02 5.749661e+02
1.000000e+03 2.369015e+04
1.001000e+03 2.585150e+04
1.002000e+03 2.212300e+04
1.003000e+03 1.027318e+03
1.004000e+03 2.031172e+02
1.005000e+03 1.852014e+03
1.006000e+03 2.149248e+04
1.007000e+03 2.740167e+04
1.008000e+03 1.640743e+04
1.009000e+03 1.551432e+03
1.010000e+03 1.752343e+04
1.011000e+03 2.536718e+04
1.012000e+03 1.794616e+04
1.013000e+03 1.608890e+04
1.014000e+03 1.229160e+02
1.015000e+03 2.248652e+02
1.016000e+03 1.722750e+03
1.017000e+03 1.343164e+02
1.018000e+03 1.566496e+03
1.019000e+03 2.465820e+02
1.020000e+03 3.697230e+04
1.021000e+03 9.946660e+02
1.022000e+03 1.824156e+03
1.023000e+03 3.212773e+02
1.024000e+03 3.522498e+04
1.025000e+03 1.675685e+02
1.026000e+03 8.973161e+02
1.027000e+03 8.949391e+03
1.028000e+03 2.889336e+02
1.029000e+03 2.115977e+02
1.030000e+03 9.837785e+03
1.031000e+03 5.381092e+03
1.032000e+03 3.108291e+04
1.033000e+03 1.304432e+03
1.034000e+03 1.156028e+04
1.035000e+03 3.373828e+02
1.036000e+03 2.853047e+02
1.037000e+03 2.937417e+04
1.038000e+03 6.366539e+04
1.039000e+03 3.537571e+04
1.040000e+03 3.982170e+04
1.041000e+03 7.918970e+04
1.042000e+03 6.436372e+04
1.043000e+03 5.669176e+04
1.044000e+03 9.179806e+04
1.045000e+03 4.756803e+04
1.046000e+03 6.112541e+04
1.047000e+03 1.482016e+04
1.048000e+03 1.198750e+03
1.049000e+03 2.375368e+04
1.050000e+03 1.305596e+04
1.051000e+03 7.412633e+03
1.052000e+03 6.776615e+04
1.053000e+03 9.958468e+04
1.054000e+03 4.863906e+02
1.055000e+03 1.136530e+05
1.056000e+03 1.160055e+05
1.057000e+03 3.101720e+04
1.058000e+03 1.140470e+04
1.059000e+03 3.511844e+03
1.060000e+03 1.778164e+03
1.061000e+03 3.922919e+04
1.062000e+03 6.167785e+03
1.063000e+03 2.089371e+04
1.064000e+03 1.044469e+03
1.065000e+03 7.319375e+02
1.066000e+03 4.944889e+04
1.067000e+03 2.905379e+03
1.068000e+03 1.738057e+05
1.069000e+03 1.309872e+03
1.070000e+03 4.323064e+04
1.071000e+03 1.621278e+05
1.072000e+03 1.585903e+05
1.073000e+03 1.069219e+03
1.074000e+03 2.989827e+04
1.075000e+03 2.013216e+04
1.076000e+03 1.808441e+05
1.077000e+03 3.056742e+03
1.078000e+03 1.145062e+04
1.079000e+03 3.261464e+04
1.080000e+03 5.260274e+04
1.081000e+03 9.327005e+04
1.082000e+03 8.283201e+04
1.083000e+03 5.793955e+04
1.084000e+03 2.613992e+05
1.085000e+03 2.368478e+04
1.086000e+03 2.605985e+05
1.087000e+03 6.203297e+03
1.088000e+03 3.022489e+05
1.089000e+03 3.066275e+05
1.090000e+03 1.904157e+04
1.091000e+03 1.987819e+04
1.092000e+03 2.976333e+05
1.093000e+03 3.048768e+05
1.094000e+03 1.283854e+05
1.095000e+03 3.511111e+05
1.096000e+03 9.966275e+04
1.097000e+03 1.716130e+05
1.098000e+03 3.688617e+05
1.099000e+03 6.704897e+04
1.100000e+03 4.270234e+03
1.101000e+03 7.816906e+03
1.102000e+03 2.906443e+04
1.103000e+03 5.005920e+05
1.104000e+03 5.417409e+05
1.105000e+03 4.093662e+05
1.106000e+03 1.176351e+05
1.107000e+03 4.104438e+03
1.108000e+03 3.182366e+05
1.109000e+03 1.827681e+04
1.110000e+03 5.953175e+05
1.111000e+03 4.809281e+05
1.112000e+03 2.198664e+05
1.113000e+03 6.402950e+05
1.114000e+03 1.377509e+05
1.115000e+03 3.443316e+04
1.116000e+03 2.381551e+04
1.117000e+03 3.256640e+05
1.118000e+03 2.647288e+04
1.119000e+03 3.129787e+05
1.120000e+03 2.383397e+04
1.121000e+03 5.312439e+05
1.122000e+03 1.251825e+04
1.123000e+03 5.985031e+05
1.124000e+03 6.663716e+05
1.125000e+03 4.627604e+05
1.126000e+03 1.047548e+06
1.127000e+03 7.470931e+05
1.128000e+03 5.666181e+05
1.129000e+03 4.066544e+05
1.130000e+03 8.179198e+05
1.131000e+03 9.643684e+05
1.132000e+03 3.174559e+04
1.133000e+03 6.294706e+04
1.134000e+03 4.023159e+05
1.135000e+03 8.609692e+04
1.136000e+03 1.569885e+05
1.137000e+03 9.317630e+05
1.138000e+03 3.876289e+05
1.139000e+03 1.151068e+06
1.140000e+03 1.599175e+05
1.141000e+03 1.033911e+06
1.142000e+03 1.327121e+06
1.143000e+03 7.646699e+05
1.144000e+03 1.364668e+06
1.145000e+03 1.861338e+04
1.146000e+03 1.492617e+06
1.147000e+03 1.292631e+06
1.148000e+03 6.692331e+04
1.149000e+03 1.115413e+06
1.150000e+03 7.179268e+05
1.151000e+03 1.612982e+06
1.152000e+03 1.395071e+06
1.153000e+03 1.281075e+06
1.154000e+03 1.675655e+06
1.155000e+03 9.748865e+05
1.156000e+03 1.721950e+06
1.157000e+03 1.725598e+06
1.158000e+03 5.290696e+05
1.159000e+03 1.602892e+06
1.160000e+03 6.231387e+05
1.161000e+03 1.689962e+06
1.162000e+03 1.914541e+05
1.163000e+03 3.972295e+05
1.164000e+03 1.942856e+04
1.165000e+03 1.684025e+06
1.166000e+03 1.270708e+06
1.167000e+03 1.222669e+06
1.168000e+03 2.145751e+06
1.169000e+03 2.179527e+06
1.170000e+03 1.324470e+06
1.171000e+03 1.774451e+06
1.172000e+03 7.994364e+05
1.173000e+03 2.263390e+06
1.174000e+03 7.372912e+04
1.175000e+03 2.392319e+04
1.176000e+03 3.134447e+04
1.177000e+03 2.570520e+06
1.178000e+03 2.621967e+06
1.179000e+03 2.402650e+06
1.180000e+03 1.287443e+06
1.181000e+03 2.747712e+06
1.182000e+03 2.394087e+06
1.183000e+03 1.714248e+06
1.184000e+03 1.502004e+06
1.185000e+03 2.046556e+06
1.186000e+03 3.025577e+05
1.187000e+03 2.246218e+06
1.188000e+03 1.050797e+06
1.189000e+03 3.853205e+05
1.190000e+03 2.837574e+06
1.191000e+03 2.162005e+06
1.192000e+03 2.854753e+06
1.193000e+03 9.504650e+04
1.194000e+03 4.719072e+05
1.195000e+03 2.772656e+06
1.196000e+03 2.759200e+06
1.197000e+03 4.177986e+06
1.198000e+03 6.513890e+05
1.199000e+03 4.175675e+06
1.200000e+03 1.020568e+06
1.201000e+03 4.019551e+06
1.202000e+03 2.051916e+06
1.203000e+03 4.056643e+06
1.204000e+03 8.039408e+05
1.205000e+03 3.486696e+06
1.206000e+03 3.859995e+06
1.207000e+03 7.940950e+05
1.208000e+03 3.025562e+06
1.209000e+03 2.811034e+06
1.210000e+03 6.638850e+04
1.211000e+03 1.701902e+06
1.212000e+03 9.022229e+05
1.213000e+03 6.348476e+05
1.214000e+03 2.255933e+05
1.215000e+03 6.720973e+04
1.216000e+03 9.237927e+04
1.217000e+03 1.482679e+05
1.218000e+03 5.253149e+05
1.219000e+03 1.108810e+06
1.220000e+03 7.651762e+05
1.221000e+03 2.597540e+06
1.222000e+03 2.853810e+06
1.223000e+03 3.374490e+06
1.224000e+03 4.558742e+06
1.225000e+03 6.906675e+05
1.226000e+03 6.240772e+06
1.227000e+03 6.382480e+06
1.228000e+03 2.239776e+06
1.229000e+03 5.748021e+06
1.230000e+03 4.820350e+06
1.231000e+03 1.866640e+06
1.232000e+03 8.926181e+06
1.233000e+03 9.536555e+06
1.234000e+03 7.398645e+06
1.235000e+03 9.323247e+06
1.236000e+03 2.803168e+06
1.237000e+03 1.041501e+07
1.238000e+03 9.319666e+06
1.239000e+03 8.301756e+06
1.240000e+03 6.718054e+06
1.241000e+03 7.446882e+06
1.242000e+03 9.720140e+06
1.243000e+03 1.201184e+07
1.244000e+03 1.263091e+07
1.245000e+03 1.172869e+07
1.246000e+03 1.081548e+07
1.247000e+03 1.147992e+07
1.248000e+03 1.112347e+07
1.249000e+03 1.419878e+07
1.250000e+03 1.021130e+07
1.251000e+03 1.472271e+07
1.252000e+03 1.294048e+07
1.253000e+03 1.520526e+07
1.254000e+03 1.362906e+07
1.255000e+03 1.567574e+07
1.256000e+03 1.363681e+07
1.257000e+03 1.381364e+07
1.258000e+03 1.009749e+07
1.259000e+03 1.379516e+07
1.260000e+03 1.691439e+07
1.261000e+03 4.119860e+05
1.262000e+03 1.733088e+07
1.263000e+03 1.688926e+07
1.264000e+03 1.241544e+07
1.265000e+03 5.936520e+05
1.266000e+03 1.799066e+07
1.267000e+03 1.397679e+07
