# wavelength_A flux
5.000000e+02 2.516137e-11
5.010000e+02 2.892842e-11
5.020000e+02 3.324033e-11
5.030000e+02 3.817315e-11
5.040000e+02 4.381269e-11
5.050000e+02 5.331418e-11
5.060000e+02 6.110366e-11
5.070000e+02 6.999218e-11
5.080000e+02 8.012956e-11
5.090000e+02 9.169493e-11
5.100000e+02 1.048610e-10
5.110000e+02 1.198525e-10
5.120000e+02 1.369134e-10
5.130000e+02 1.563195e-10
5.140000e+02 1.783809e-10
5.150000e+02 2.034451e-10
5.160000e+02 2.319174e-10
5.170000e+02 2.642009e-10
5.180000e+02 3.008911e-10
5.190000e+02 3.424600e-10
5.200000e+02 3.895716e-10
5.210000e+02 4.429352e-10
5.220000e+02 5.032262e-10
5.230000e+02 5.717254e-10
5.240000e+02 6.490588e-10
5.250000e+02 7.365054e-10
5.260000e+02 8.353026e-10
5.270000e+02 9.468795e-10
5.280000e+02 1.072838e-09
5.290000e+02 1.214172e-09
5.300000e+02 1.375241e-09
5.310000e+02 1.555917e-09
5.320000e+02 1.759502e-09
5.330000e+02 1.988758e-09
5.340000e+02 2.246819e-09
5.350000e+02 2.537170e-09
5.360000e+02 2.863650e-09
5.370000e+02 3.134337e-09
5.380000e+02 3.642907e-09
5.390000e+02 4.106314e-09
5.400000e+02 4.626259e-09
5.410000e+02 5.208756e-09
5.420000e+02 5.863763e-09
5.430000e+02 6.597454e-09
5.440000e+02 7.419402e-09
5.450000e+02 8.340015e-09
5.460000e+02 9.366879e-09
5.470000e+02 1.052414e-08
5.480000e+02 1.181435e-08
5.490000e+02 1.325698e-08
5.500000e+02 1.486931e-08
5.510000e+02 1.667043e-08
5.520000e+02 1.868184e-08
5.530000e+02 2.092703e-08
5.540000e+02 2.343212e-08
5.550000e+02 2.622602e-08
5.560000e+02 2.934074e-08
5.570000e+02 3.281167e-08
5.580000e+02 3.667801e-08
5.590000e+02 4.098299e-08
5.600000e+02 4.577450e-08
5.610000e+02 5.110541e-08
5.620000e+02 5.703396e-08
5.630000e+02 6.362455e-08
5.640000e+02 7.094819e-08
5.650000e+02 7.908329e-08
5.660000e+02 8.811618e-08
5.670000e+02 9.814114e-08
5.680000e+02 1.092647e-07
5.690000e+02 1.216017e-07
5.700000e+02 1.352786e-07
5.710000e+02 1.504359e-07
5.720000e+02 1.672269e-07
5.730000e+02 1.858211e-07
5.740000e+02 2.064041e-07
5.750000e+02 2.291891e-07
5.760000e+02 2.543471e-07
5.770000e+02 2.822423e-07
5.780000e+02 3.130347e-07
5.790000e+02 3.470576e-07
5.800000e+02 3.846362e-07
5.810000e+02 4.261265e-07
5.820000e+02 4.719178e-07
5.830000e+02 5.224226e-07
5.840000e+02 5.777382e-07
5.850000e+02 6.394979e-07
5.860000e+02 7.073169e-07
5.870000e+02 7.819387e-07
5.880000e+02 8.641173e-07
5.890000e+02 9.545844e-07
5.900000e+02 1.054165e-06
5.910000e+02 1.163731e-06
5.920000e+02 1.284231e-06
5.930000e+02 1.416723e-06
5.940000e+02 1.562343e-06
5.950000e+02 1.722155e-06
5.960000e+02 1.898087e-06
5.970000e+02 2.091055e-06
5.980000e+02 2.302843e-06
5.990000e+02 2.535260e-06
6.000000e+02 2.790208e-06
6.010000e+02 3.069772e-06
6.020000e+02 3.376238e-06
6.030000e+02 3.712078e-06
6.040000e+02 4.079994e-06
6.050000e+02 4.482925e-06
6.060000e+02 4.924021e-06
6.070000e+02 5.406854e-06
6.080000e+02 5.935097e-06
6.090000e+02 6.512876e-06
6.100000e+02 7.144638e-06
6.110000e+02 7.835217e-06
6.120000e+02 8.589851e-06
6.130000e+02 9.414135e-06
6.140000e+02 1.031442e-05
6.150000e+02 1.129732e-05
6.160000e+02 1.237008e-05
6.170000e+02 1.354056e-05
6.180000e+02 1.481728e-05
6.190000e+02 1.620947e-05
6.200000e+02 1.772714e-05
6.210000e+02 1.938109e-05
6.220000e+02 2.118303e-05
6.230000e+02 2.314564e-05
6.240000e+02 2.528262e-05
6.250000e+02 2.760877e-05
6.260000e+02 3.014012e-05
6.270000e+02 3.289366e-05
6.280000e+02 3.588873e-05
6.290000e+02 3.914516e-05
6.300000e+02 4.268492e-05
6.310000e+02 4.653096e-05
6.320000e+02 5.071015e-05
6.330000e+02 5.524848e-05
6.340000e+02 6.017606e-05
6.350000e+02 6.552471e-05
6.360000e+02 7.110037e-05
6.370000e+02 7.762579e-05
6.380000e+02 8.445504e-05
6.390000e+02 9.185998e-05
6.400000e+02 9.988576e-05
6.410000e+02 1.085843e-04
6.420000e+02 1.180085e-04
6.430000e+02 1.282161e-04
6.440000e+02 1.392691e-04
6.450000e+02 1.512343e-04
6.460000e+02 1.641844e-04
6.470000e+02 1.781956e-04
6.480000e+02 1.933518e-04
6.490000e+02 2.097428e-04
6.500000e+02 2.274634e-04
6.510000e+02 2.466168e-04
6.520000e+02 2.673141e-04
6.530000e+02 2.896709e-04
6.540000e+02 3.138204e-04
6.550000e+02 3.398966e-04
6.560000e+02 3.680461e-04
6.570000e+02 3.984171e-04
6.580000e+02 4.312055e-04
6.590000e+02 4.665647e-04
6.600000e+02 5.046978e-04
6.610000e+02 5.458123e-04
6.620000e+02 5.901305e-04
6.630000e+02 6.378898e-04
6.640000e+02 6.893466e-04
6.650000e+02 7.447641e-04
6.660000e+02 8.044515e-04
6.670000e+02 8.687122e-04
6.680000e+02 9.378811e-04
6.690000e+02 1.012315e-03
6.700000e+02 1.092396e-03
6.710000e+02 1.178534e-03
6.720000e+02 1.271118e-03
6.730000e+02 1.370752e-03
6.740000e+02 1.477795e-03
6.750000e+02 1.592829e-03
6.760000e+02 1.716419e-03
6.770000e+02 1.849152e-03
6.780000e+02 1.991715e-03
6.790000e+02 2.144778e-03
6.800000e+02 2.309079e-03
6.810000e+02 2.485403e-03
6.820000e+02 2.674585e-03
6.830000e+02 2.877525e-03
6.840000e+02 3.095171e-03
6.850000e+02 3.328538e-03
6.860000e+02 3.578707e-03
6.870000e+02 3.846752e-03
6.880000e+02 4.134086e-03
6.890000e+02 4.441838e-03
6.900000e+02 4.771537e-03
6.910000e+02 5.124560e-03
6.920000e+02 5.502512e-03
6.930000e+02 5.907069e-03
6.940000e+02 6.340015e-03
6.950000e+02 6.803215e-03
6.960000e+02 7.298760e-03
6.970000e+02 7.828316e-03
6.980000e+02 8.395409e-03
6.990000e+02 9.001121e-03
7.000000e+02 9.648634e-03
7.010000e+02 1.034059e-02
7.020000e+02 1.107988e-02
7.030000e+02 1.186958e-02
7.040000e+02 1.271297e-02
7.050000e+02 1.361350e-02
7.060000e+02 1.457487e-02
7.070000e+02 1.560097e-02
7.080000e+02 1.669596e-02
7.090000e+02 1.786421e-02
7.100000e+02 1.911017e-02
7.110000e+02 2.043922e-02
7.120000e+02 2.185633e-02
7.130000e+02 2.336714e-02
7.140000e+02 2.497748e-02
7.150000e+02 2.669358e-02
7.160000e+02 2.852205e-02
7.170000e+02 3.046972e-02
7.180000e+02 3.254343e-02
7.190000e+02 3.475353e-02
7.200000e+02 3.710553e-02
7.210000e+02 3.960869e-02
7.220000e+02 4.227321e-02
7.230000e+02 4.510846e-02
7.240000e+02 4.812480e-02
7.250000e+02 5.133324e-02
7.260000e+02 5.474538e-02
7.270000e+02 5.837349e-02
7.280000e+02 6.223052e-02
7.290000e+02 6.633021e-02
7.300000e+02 7.068672e-02
7.310000e+02 7.531531e-02
7.320000e+02 8.023306e-02
7.330000e+02 8.545624e-02
7.340000e+02 9.100325e-02
7.350000e+02 9.689292e-02
7.360000e+02 1.031450e-01
7.370000e+02 1.097816e-01
7.380000e+02 1.168242e-01
7.390000e+02 1.242965e-01
7.400000e+02 1.322234e-01
7.410000e+02 1.406298e-01
7.420000e+02 1.495462e-01
7.430000e+02 1.590004e-01
7.440000e+02 1.690230e-01
7.450000e+02 1.796464e-01
7.460000e+02 1.909048e-01
7.470000e+02 2.028340e-01
7.480000e+02 2.154720e-01
7.490000e+02 2.288585e-01
7.500000e+02 2.430357e-01
7.510000e+02 2.580444e-01
7.520000e+02 2.739377e-01
7.530000e+02 2.907613e-01
7.540000e+02 3.085661e-01
7.550000e+02 3.274077e-01
7.560000e+02 3.473428e-01
7.570000e+02 3.684302e-01
7.580000e+02 3.907356e-01
7.590000e+02 4.143215e-01
7.600000e+02 4.392635e-01
7.610000e+02 4.656276e-01
7.620000e+02 4.934971e-01
7.630000e+02 5.229508e-01
7.640000e+02 5.540738e-01
7.650000e+02 5.869555e-01
7.660000e+02 6.216907e-01
7.670000e+02 6.583773e-01
7.680000e+02 6.971133e-01
7.690000e+02 7.380261e-01
7.700000e+02 7.812114e-01
7.710000e+02 8.267946e-01
7.720000e+02 8.749028e-01
7.730000e+02 9.256650e-01
7.740000e+02 9.792246e-01
7.750000e+02 1.035725e+00
7.760000e+02 1.095297e+00
7.770000e+02 1.158165e+00
7.780000e+02 1.224434e+00
7.790000e+02 1.294299e+00
7.800000e+02 1.367945e+00
7.810000e+02 1.445567e+00
7.820000e+02 1.527365e+00
7.830000e+02 1.613554e+00
7.840000e+02 1.704354e+00
7.850000e+02 1.799999e+00
7.860000e+02 1.900734e+00
7.870000e+02 2.006826e+00
7.880000e+02 2.118518e+00
7.890000e+02 2.236104e+00
7.900000e+02 2.359864e+00
7.910000e+02 2.490139e+00
7.920000e+02 2.627212e+00
7.930000e+02 2.771442e+00
7.940000e+02 2.923175e+00
7.950000e+02 3.082779e+00
7.960000e+02 3.250640e+00
7.970000e+02 3.427160e+00
7.980000e+02 3.612754e+00
7.990000e+02 3.807883e+00
8.000000e+02 4.012985e+00
8.010000e+02 4.228552e+00
8.020000e+02 4.455085e+00
8.030000e+02 4.693107e+00
8.040000e+02 4.943176e+00
8.050000e+02 5.205859e+00
8.060000e+02 5.481758e+00
8.070000e+02 5.771498e+00
8.080000e+02 6.075734e+00
8.090000e+02 6.395152e+00
8.100000e+02 6.730443e+00
8.110000e+02 7.082391e+00
8.120000e+02 7.451732e+00
8.130000e+02 7.839349e+00
8.140000e+02 8.246010e+00
8.150000e+02 8.672624e+00
8.160000e+02 9.120152e+00
8.170000e+02 9.589485e+00
8.180000e+02 1.008169e+01
8.190000e+02 1.059779e+01
8.200000e+02 1.113887e+01
8.210000e+02 1.170608e+01
8.220000e+02 1.230060e+01
8.230000e+02 1.292366e+01
8.240000e+02 1.357656e+01
8.250000e+02 1.426065e+01
8.260000e+02 1.497733e+01
8.270000e+02 1.572800e+01
8.280000e+02 1.651428e+01
8.290000e+02 1.733771e+01
8.300000e+02 1.819995e+01
8.310000e+02 1.910270e+01
8.320000e+02 2.004777e+01
8.330000e+02 2.103701e+01
8.340000e+02 2.207236e+01
8.350000e+02 2.314948e+01
8.360000e+02 2.428908e+01
8.370000e+02 2.547573e+01
8.380000e+02 2.671663e+01
8.390000e+02 2.801458e+01
8.400000e+02 2.937208e+01
8.410000e+02 3.079165e+01
8.420000e+02 3.227381e+01
8.430000e+02 3.382803e+01
8.440000e+02 3.545033e+01
8.450000e+02 3.714618e+01
8.460000e+02 3.891858e+01
8.470000e+02 4.077082e+01
8.480000e+02 4.270617e+01
8.490000e+02 4.472837e+01
8.500000e+02 4.684084e+01
8.510000e+02 4.904745e+01
8.520000e+02 5.135209e+01
8.530000e+02 5.375895e+01
8.540000e+02 5.627278e+01
8.550000e+02 5.889688e+01
8.560000e+02 6.163639e+01
8.570000e+02 6.449607e+01
8.580000e+02 6.748082e+01
8.590000e+02 7.059591e+01
8.600000e+02 7.384632e+01
8.610000e+02 7.723806e+01
8.620000e+02 8.077665e+01
8.630000e+02 8.446801e+01
8.640000e+02 8.831849e+01
8.650000e+02 9.233431e+01
8.660000e+02 9.652228e+01
8.670000e+02 1.008892e+02
8.680000e+02 1.054423e+02
8.690000e+02 1.101890e+02
8.700000e+02 1.151360e+02
8.710000e+02 1.202944e+02
8.720000e+02 1.256693e+02
8.730000e+02 1.312705e+02
8.740000e+02 1.371068e+02
8.750000e+02 1.431874e+02
8.760000e+02 1.495215e+02
8.770000e+02 1.561198e+02
8.780000e+02 1.629927e+02
8.790000e+02 1.701502e+02
8.800000e+02 1.776036e+02
8.810000e+02 1.853643e+02
8.820000e+02 1.934442e+02
8.830000e+02 2.018556e+02
8.840000e+02 2.106112e+02
8.850000e+02 2.197239e+02
8.860000e+02 2.292080e+02
8.870000e+02 2.390772e+02
8.880000e+02 2.493461e+02
8.890000e+02 2.600300e+02
8.900000e+02 2.711445e+02
8.910000e+02 2.827049e+02
8.920000e+02 2.935164e+02
8.930000e+02 3.072358e+02
8.940000e+02 3.202407e+02
8.950000e+02 3.337632e+02
8.960000e+02 3.478227e+02
8.970000e+02 3.624389e+02
8.980000e+02 3.776325e+02
8.990000e+02 3.934247e+02
9.000000e+02 4.098377e+02
9.010000e+02 4.268943e+02
9.020000e+02 4.446176e+02
9.030000e+02 4.630326e+02
9.040000e+02 4.821510e+02
9.050000e+02 5.020387e+02
9.060000e+02 5.226812e+02
9.070000e+02 5.441165e+02
9.080000e+02 5.663902e+02
9.090000e+02 5.895137e+02
9.100000e+02 6.135238e+02
9.110000e+02 6.384579e+02
9.120000e+02 6.643724e+02
9.130000e+02 6.698130e+02
9.140000e+02 7.585239e+02
9.150000e+02 1.077355e+04
9.160000e+02 3.043537e+04
9.170000e+02 3.193446e+04
9.180000e+02 3.277123e+04
9.190000e+02 3.403271e+04
9.200000e+02 3.511583e+04
9.210000e+02 8.978112e+02
9.220000e+02 3.729382e+04
9.230000e+02 3.824230e+04
9.240000e+02 3.168553e+04
9.250000e+02 3.985740e+04
9.260000e+02 4.193121e+04
9.270000e+02 4.338837e+04
9.280000e+02 4.484423e+04
9.290000e+02 3.511310e+04
9.300000e+02 4.670171e+04
9.310000e+02 4.839808e+04
9.320000e+02 5.066537e+04
9.330000e+02 5.215398e+04
9.340000e+02 5.377966e+04
9.350000e+02 1.684480e+04
9.360000e+02 5.675823e+04
9.370000e+02 1.236066e+04
9.380000e+02 4.538136e+04
9.390000e+02 6.240222e+04
9.400000e+02 6.434372e+04
9.410000e+02 5.248464e+04
9.420000e+02 6.831335e+04
9.430000e+02 7.035021e+04
9.440000e+02 5.318150e+04
9.450000e+02 7.453066e+04
9.460000e+02 7.678271e+04
9.470000e+02 5.042027e+04
9.480000e+02 8.087696e+04
9.490000e+02 8.231926e+04
9.500000e+02 2.015805e+04
9.510000e+02 8.243496e+04
9.520000e+02 9.135176e+04
9.530000e+02 9.397186e+04
9.540000e+02 7.175279e+04
9.550000e+02 9.976523e+04
9.560000e+02 1.033916e+05
9.570000e+02 8.632692e+04
9.580000e+02 1.071144e+05
9.590000e+02 1.125229e+05
9.600000e+02 2.601427e+04
9.610000e+02 1.193930e+05
9.620000e+02 1.226624e+05
9.630000e+02 1.263222e+05
9.640000e+02 5.557039e+03
9.650000e+02 1.140908e+05
9.660000e+02 1.373937e+05
9.670000e+02 1.412350e+05
9.680000e+02 1.437405e+05
9.690000e+02 1.477438e+05
9.700000e+02 1.527681e+05
9.710000e+02 1.548589e+05
9.720000e+02 1.370572e+05
9.730000e+02 1.342939e+05
9.740000e+02 1.669341e+05
9.750000e+02 1.754052e+05
9.760000e+02 1.810906e+05
9.770000e+02 1.863572e+05
9.780000e+02 1.913256e+05
9.790000e+02 1.971534e+05
9.800000e+02 2.026287e+05
9.810000e+02 2.083500e+05
9.820000e+02 2.125070e+05
9.830000e+02 2.198190e+05
9.840000e+02 4.612103e+04
9.850000e+02 2.321815e+05
9.860000e+02 2.385173e+05
9.870000e+02 2.449235e+05
9.880000e+02 2.505578e+05
9.890000e+02 1.554657e+05
9.900000e+02 1.689532e+04
9.910000e+02 2.691536e+05
9.920000e+02 2.734515e+05
9.930000e+02 2.723935e+05
9.940000e+02 3.679194e+04
9.950000e+02 3.841002e+04
9.960000e+02 1.195104e+05
9.970000e+02 6.873109e+04
9.980000e+02 3.255840e+05
9.990000e+02 3.321463e+05
1.000000e+03 3.460499e+05
1.001000e+03 3.552148e+05
1.002000e+03 3.644563e+05
1.003000e+03 3.336610e+05
1.004000e+03 3.839488e+05
1.005000e+03 3.616491e+05
1.006000e+03 4.043116e+05
1.007000e+03 4.148477e+05
1.008000e+03 4.253217e+05
1.009000e+03 4.174472e+05
1.010000e+03 4.477982e+05
1.011000e+03 4.592596e+05
1.012000e+03 4.709556e+05
1.013000e+03 4.830100e+05
1.014000e+03 4.949294e+05
1.015000e+03 4.936480e+05
1.016000e+03 5.192561e+05
1.017000e+03 5.323130e+05
1.018000e+03 5.455112e+05
1.019000e+03 5.579541e+05
1.020000e+03 5.699352e+05
1.021000e+03 5.258282e+05
1.022000e+03 5.746819e+05
1.023000e+03 5.864704e+05
1.024000e+03 5.507350e+05
1.025000e+03 3.413471e+05
1.026000e+03 1.166770e+05
1.027000e+03 5.330545e+05
1.028000e+03 1.958894e+05
1.029000e+03 6.941423e+05
1.030000e+03 7.155008e+05
1.031000e+03 7.488656e+05
1.032000e+03 7.673011e+05
1.033000e+03 4.405302e+05
1.034000e+03 8.138458e+05
1.035000e+03 1.764316e+05
1.036000e+03 8.487593e+05
1.037000e+03 7.909594e+04
1.038000e+03 8.995665e+05
1.039000e+03 9.185002e+05
1.040000e+03 9.461648e+05
1.041000e+03 9.683669e+05
1.042000e+03 9.769248e+05
1.043000e+03 1.008716e+06
1.044000e+03 1.041650e+06
1.045000e+03 1.067274e+06
1.046000e+03 1.094624e+06
1.047000e+03 1.121392e+06
1.048000e+03 1.144164e+06
1.049000e+03 1.172378e+06
1.050000e+03 1.204641e+06
1.051000e+03 1.233586e+06
1.052000e+03 1.263166e+06
1.053000e+03 1.277206e+06
1.054000e+03 1.323383e+06
1.055000e+03 1.355480e+06
1.056000e+03 1.387965e+06
1.057000e+03 1.420702e+06
1.058000e+03 1.454370e+06
1.059000e+03 1.488714e+06
1.060000e+03 1.523640e+06
1.061000e+03 1.559639e+06
1.062000e+03 1.596171e+06
1.063000e+03 1.414469e+06
1.064000e+03 3.067624e+05
1.065000e+03 1.722434e+06
1.066000e+03 1.759770e+06
1.067000e+03 1.761347e+06
1.068000e+03 1.844407e+06
1.069000e+03 1.885687e+06
1.070000e+03 1.918441e+06
1.071000e+03 1.978002e+06
1.072000e+03 2.023260e+06
1.073000e+03 2.069067e+06
1.074000e+03 2.117174e+06
1.075000e+03 2.164876e+06
1.076000e+03 2.214973e+06
1.077000e+03 2.263709e+06
1.078000e+03 2.317090e+06
1.079000e+03 2.355424e+06
1.080000e+03 2.421903e+06
1.081000e+03 2.477888e+06
1.082000e+03 2.530560e+06
1.083000e+03 2.590772e+06
1.084000e+03 2.592928e+06
1.085000e+03 2.482920e+06
1.086000e+03 2.768688e+06
1.087000e+03 2.829936e+06
1.088000e+03 2.876546e+06
1.089000e+03 2.957241e+06
1.090000e+03 3.022009e+06
1.091000e+03 3.089820e+06
1.092000e+03 3.156917e+06
1.093000e+03 3.222364e+06
1.094000e+03 3.298566e+06
1.095000e+03 3.366696e+06
1.096000e+03 3.444195e+06
1.097000e+03 3.479703e+06
1.098000e+03 3.584579e+06
1.099000e+03 3.672713e+06
1.100000e+03 3.680310e+06
1.101000e+03 3.436792e+06
1.102000e+03 9.322297e+06
1.103000e+03 3.854942e+07
1.104000e+03 9.883824e+06
1.105000e+03 3.916872e+06
1.106000e+03 1.135285e+08
1.107000e+03 1.117265e+08
1.108000e+03 1.176506e+08
1.109000e+03 8.146666e+07
1.110000e+03 1.584787e+07
1.111000e+03 9.857304e+06
1.112000e+03 1.127781e+08
1.113000e+03 1.274275e+08
1.114000e+03 3.160392e+06
1.115000e+03 1.255077e+08
1.116000e+03 1.302098e+08
1.117000e+03 2.684784e+06
1.118000e+03 1.263054e+08
1.119000e+03 1.369635e+08
1.120000e+03 1.389819e+08
1.121000e+03 9.308595e+07
1.122000e+03 7.068000e+05
1.123000e+03 1.537682e+07
1.124000e+03 1.472286e+08
1.125000e+03 6.131266e+07
1.126000e+03 1.532958e+08
1.127000e+03 1.405877e+08
1.128000e+03 7.372198e+07
1.129000e+03 1.549158e+08
1.130000e+03 1.240968e+08
1.131000e+03 1.666628e+08
1.132000e+03 2.409776e+06
1.133000e+03 1.668059e+08
1.134000e+03 1.602827e+08
1.135000e+03 2.401096e+06
1.136000e+03 1.776012e+08
1.137000e+03 1.815279e+08
1.138000e+03 1.860285e+08
1.139000e+03 1.803942e+08
1.140000e+03 1.642416e+06
1.141000e+03 1.949929e+08
1.142000e+03 1.896489e+08
1.143000e+03 1.997172e+08
1.144000e+03 2.033666e+08
1.145000e+03 1.285139e+08
1.146000e+03 2.101321e+08
1.147000e+03 2.034447e+08
1.148000e+03 2.081202e+08
1.149000e+03 2.180872e+08
1.150000e+03 2.074150e+08
1.151000e+03 2.204487e+08
1.152000e+03 2.268868e+08
1.153000e+03 6.089861e+07
1.154000e+03 4.079392e+06
1.155000e+03 2.104507e+08
1.156000e+03 9.543792e+07
1.157000e+03 2.433886e+08
1.158000e+03 4.385394e+06
1.159000e+03 1.992253e+08
1.160000e+03 2.569706e+08
1.161000e+03 2.615787e+08
1.162000e+03 2.193091e+07
1.163000e+03 2.638475e+08
1.164000e+03 7.330816e+06
1.165000e+03 2.758409e+08
1.166000e+03 2.752404e+08
1.167000e+03 2.615716e+08
1.168000e+03 2.875990e+08
1.169000e+03 2.724733e+08
1.170000e+03 2.953776e+08
1.171000e+03 2.992040e+08
1.172000e+03 2.895667e+08
1.173000e+03 3.062467e+08
1.174000e+03 3.051791e+08
1.175000e+03 6.848864e+06
1.176000e+03 4.556672e+06
1.177000e+03 3.176231e+08
1.178000e+03 3.044098e+08
1.179000e+03 3.255146e+08
1.180000e+03 2.630573e+08
1.181000e+03 3.214735e+08
1.182000e+03 3.326963e+08
1.183000e+03 3.343094e+08
1.184000e+03 3.359152e+08
1.185000e+03 3.306930e+08
1.186000e+03 3.372811e+08
1.187000e+03 3.374016e+08
1.188000e+03 3.311411e+08
1.189000e+03 4.694640e+06
1.190000e+03 8.605616e+07
1.191000e+03 3.186903e+08
1.192000e+03 3.173874e+08
1.193000e+03 3.619632e+06
1.194000e+03 5.392416e+06
1.195000e+03 1.536901e+08
1.196000e+03 2.996460e+08
1.197000e+03 3.163786e+08
1.198000e+03 3.173393e+08
1.199000e+03 2.993409e+08
1.200000e+03 2.499216e+08
1.201000e+03 2.640271e+08
1.202000e+03 2.569572e+08
1.203000e+03 2.494844e+08
1.204000e+03 2.224990e+08
1.205000e+03 1.990500e+08
1.206000e+03 1.665915e+08
1.207000e+03 8.844474e+07
1.208000e+03 1.211249e+08
1.209000e+03 9.217650e+07
1.210000e+03 1.039697e+07
1.211000e+03 5.041654e+07
1.212000e+03 3.275613e+07
1.213000e+03 1.968095e+07
1.214000e+03 1.133541e+07
1.215000e+03 6.803302e+06
1.216000e+03 5.829539e+06
1.217000e+03 9.971502e+06
1.218000e+03 1.791004e+07
1.219000e+03 3.161043e+07
1.220000e+03 5.179268e+07
1.221000e+03 7.815927e+07
1.222000e+03 1.099532e+08
1.223000e+03 1.463628e+08
1.224000e+03 1.866654e+08
1.225000e+03 2.302270e+08
1.226000e+03 2.757753e+08
1.227000e+03 3.211734e+08
1.228000e+03 3.756287e+08
1.229000e+03 4.273747e+08
1.230000e+03 4.799115e+08
1.231000e+03 5.343285e+08
1.232000e+03 5.889335e+08
1.233000e+03 6.436774e+08
1.234000e+03 3.684287e+08
1.235000e+03 7.529382e+08
1.236000e+03 8.075048e+08
1.237000e+03 8.610163e+08
1.238000e+03 9.155004e+08
1.239000e+03 9.687614e+08
1.240000e+03 9.362285e+08
1.241000e+03 1.488426e+09
1.242000e+03 9.160155e+08
1.243000e+03 1.406101e+09
1.244000e+03 6.347059e+08
1.245000e+03 9.126001e+08
1.246000e+03 2.462174e+09
1.247000e+03 2.652617e+09
1.248000e+03 6.784093e+08
1.249000e+03 9.264302e+08
1.250000e+03 3.185157e+09
1.251000e+03 3.349013e+09
1.252000e+03 3.508966e+09
1.253000e+03 3.762328e+09
1.254000e+03 3.866199e+09
1.255000e+03 4.139576e+09
1.256000e+03 4.311089e+09
1.257000e+03 4.551754e+09
1.258000e+03 4.661495e+09
1.259000e+03 4.373212e+09
1.260000e+03 3.085054e+09
1.261000e+03 1.617586e+07
1.262000e+03 4.417472e+08
1.263000e+03 5.351163e+09
1.264000e+03 4.298166e+09
1.265000e+03 1.380525e+07
1.266000e+03 5.719312e+09
1.267000e+03 6.577626e+09
