# wavelength_A flux
5.000000e+02 6.081635e-43
5.010000e+02 8.099505e-43
5.020000e+02 1.076197e-42
5.030000e+02 1.427923e-42
5.040000e+02 1.894556e-42
5.050000e+02 2.508324e-42
5.060000e+02 3.318275e-42
5.070000e+02 4.384663e-42
5.080000e+02 5.787363e-42
5.090000e+02 7.630070e-42
5.100000e+02 1.004871e-41
5.110000e+02 1.321985e-41
5.120000e+02 1.737190e-41
5.130000e+02 2.280473e-41
5.140000e+02 2.990371e-41
5.150000e+02 3.916909e-41
5.160000e+02 5.125249e-41
5.170000e+02 6.699047e-41
5.180000e+02 8.747045e-41
5.190000e+02 1.140923e-40
5.200000e+02 1.486610e-40
5.210000e+02 1.935039e-40
5.220000e+02 2.516143e-40
5.230000e+02 3.268417e-40
5.240000e+02 4.241282e-40
5.250000e+02 5.498163e-40
5.260000e+02 7.120362e-40
5.270000e+02 9.211968e-40
5.280000e+02 1.190616e-39
5.290000e+02 1.537311e-39
5.300000e+02 1.983011e-39
5.310000e+02 2.555432e-39
5.320000e+02 3.289894e-39
5.330000e+02 4.231362e-39
5.340000e+02 5.437025e-39
5.350000e+02 6.979558e-39
5.360000e+02 8.951219e-39
5.370000e+02 1.146904e-38
5.380000e+02 1.468125e-38
5.390000e+02 1.877562e-38
5.400000e+02 2.398957e-38
5.410000e+02 3.062313e-38
5.420000e+02 3.905513e-38
5.430000e+02 4.976342e-38
5.440000e+02 6.335021e-38
5.450000e+02 8.057380e-38
5.460000e+02 1.023882e-37
5.470000e+02 1.299924e-37
5.480000e+02 1.648924e-37
5.490000e+02 2.089776e-37
5.500000e+02 2.646169e-37
5.510000e+02 3.347773e-37
5.520000e+02 4.231723e-37
5.530000e+02 5.344454e-37
5.540000e+02 6.743981e-37
5.550000e+02 8.502728e-37
5.560000e+02 1.071103e-36
5.570000e+02 1.348146e-36
5.580000e+02 1.695422e-36
5.590000e+02 2.130372e-36
5.600000e+02 2.674680e-36
5.610000e+02 3.355283e-36
5.620000e+02 4.205613e-36
5.630000e+02 5.267129e-36
5.640000e+02 6.591211e-36
5.650000e+02 8.241473e-36
5.660000e+02 1.029662e-35
5.670000e+02 1.285396e-35
5.680000e+02 1.603368e-35
5.690000e+02 1.998413e-35
5.700000e+02 2.488828e-35
5.710000e+02 3.097164e-35
5.720000e+02 3.851188e-35
5.730000e+02 4.785069e-35
5.740000e+02 5.940824e-35
5.750000e+02 7.370072e-35
5.760000e+02 9.136190e-35
5.770000e+02 1.131693e-34
5.780000e+02 1.400761e-34
5.790000e+02 1.732498e-34
5.800000e+02 2.141198e-34
5.810000e+02 2.644343e-34
5.820000e+02 3.263302e-34
5.830000e+02 4.024178e-34
5.840000e+02 4.958827e-34
5.850000e+02 6.106104e-34
5.860000e+02 7.513368e-34
5.870000e+02 9.238297e-34
5.880000e+02 1.135109e-33
5.890000e+02 1.393713e-33
5.900000e+02 1.710018e-33
5.910000e+02 2.096626e-33
5.920000e+02 2.568835e-33
5.930000e+02 3.145196e-33
5.940000e+02 3.848195e-33
5.950000e+02 4.705067e-33
5.960000e+02 5.748776e-33
5.970000e+02 7.019196e-33
5.980000e+02 8.564525e-33
5.990000e+02 1.044298e-32
6.000000e+02 1.272485e-32
6.010000e+02 1.549492e-32
6.020000e+02 1.885540e-32
6.030000e+02 2.292944e-32
6.040000e+02 2.786531e-32
6.050000e+02 3.384140e-32
6.060000e+02 4.107225e-32
6.070000e+02 4.981563e-32
6.080000e+02 6.038111e-32
6.090000e+02 7.314025e-32
6.100000e+02 8.853866e-32
6.110000e+02 1.071105e-31
6.120000e+02 1.294956e-31
6.130000e+02 1.564600e-31
6.140000e+02 1.889201e-31
6.150000e+02 2.279718e-31
6.160000e+02 2.749245e-31
6.170000e+02 3.313419e-31
6.180000e+02 3.990903e-31
6.190000e+02 4.803960e-31
6.200000e+02 5.779125e-31
6.210000e+02 6.948014e-31
6.220000e+02 8.348269e-31
6.230000e+02 1.002468e-30
6.240000e+02 1.203052e-30
6.250000e+02 1.442910e-30
6.260000e+02 1.729562e-30
6.270000e+02 2.071937e-30
6.280000e+02 2.480629e-30
6.290000e+02 2.968197e-30
6.300000e+02 3.549530e-30
6.310000e+02 4.242261e-30
6.320000e+02 5.067262e-30
6.330000e+02 6.049229e-30
6.340000e+02 7.217365e-30
6.350000e+02 8.606180e-30
6.360000e+02 1.025644e-29
6.370000e+02 1.221625e-29
6.380000e+02 1.454240e-29
6.390000e+02 1.730182e-29
6.400000e+02 2.057342e-29
6.410000e+02 2.445013e-29
6.420000e+02 2.904137e-29
6.430000e+02 3.447586e-29
6.440000e+02 4.090503e-29
6.450000e+02 4.850681e-29
6.460000e+02 5.749028e-29
6.470000e+02 6.810089e-29
6.480000e+02 8.062670e-29
6.490000e+02 9.540561e-29
6.500000e+02 1.128337e-28
6.510000e+02 1.333751e-28
6.520000e+02 1.575734e-28
6.530000e+02 1.860647e-28
6.540000e+02 2.195935e-28
6.550000e+02 2.590299e-28
6.560000e+02 3.053914e-28
6.570000e+02 3.598661e-28
6.580000e+02 4.238414e-28
6.590000e+02 4.989363e-28
6.600000e+02 5.870393e-28
6.610000e+02 6.903520e-28
6.620000e+02 8.114399e-28
6.630000e+02 9.532909e-28
6.640000e+02 1.119383e-27
6.650000e+02 1.313765e-27
6.660000e+02 1.541142e-27
6.670000e+02 1.806986e-27
6.680000e+02 2.117655e-27
6.690000e+02 2.480532e-27
6.700000e+02 2.904186e-27
6.710000e+02 3.398562e-27
6.720000e+02 3.975190e-27
6.730000e+02 4.647438e-27
6.740000e+02 5.430792e-27
6.750000e+02 6.343187e-27
6.760000e+02 7.405382e-27
6.770000e+02 8.641401e-27
6.780000e+02 1.007902e-26
6.790000e+02 1.175035e-26
6.800000e+02 1.369250e-26
6.810000e+02 1.594832e-26
6.820000e+02 1.856727e-26
6.830000e+02 2.160644e-26
6.840000e+02 2.513167e-26
6.850000e+02 2.921885e-26
6.860000e+02 3.395545e-26
6.870000e+02 3.944221e-26
6.880000e+02 4.579513e-26
6.890000e+02 5.314771e-26
6.900000e+02 6.165351e-26
6.910000e+02 7.148911e-26
6.920000e+02 8.285746e-26
6.930000e+02 9.599174e-26
6.940000e+02 1.111597e-25
6.950000e+02 1.286688e-25
6.960000e+02 1.488716e-25
6.970000e+02 1.721727e-25
6.980000e+02 1.990359e-25
6.990000e+02 2.299926e-25
7.000000e+02 2.656516e-25
7.010000e+02 3.067101e-25
7.020000e+02 3.539660e-25
7.030000e+02 4.083320e-25
7.040000e+02 4.708522e-25
7.050000e+02 5.427202e-25
7.060000e+02 6.252997e-25
7.070000e+02 7.201486e-25
7.080000e+02 8.290455e-25
7.090000e+02 9.540207e-25
7.100000e+02 1.097390e-24
7.110000e+02 1.261796e-24
7.120000e+02 1.450249e-24
7.130000e+02 1.666181e-24
7.140000e+02 1.913500e-24
7.150000e+02 2.196659e-24
7.160000e+02 2.520722e-24
7.170000e+02 2.891455e-24
7.180000e+02 3.315414e-24
7.190000e+02 3.800052e-24
7.200000e+02 4.353840e-24
7.210000e+02 4.986403e-24
7.220000e+02 5.708670e-24
7.230000e+02 6.533047e-24
7.240000e+02 7.473615e-24
7.250000e+02 8.546343e-24
7.260000e+02 9.769343e-24
7.270000e+02 1.116314e-23
7.280000e+02 1.275100e-23
7.290000e+02 1.455927e-23
7.300000e+02 1.661779e-23
7.310000e+02 1.896031e-23
7.320000e+02 2.162505e-23
7.330000e+02 2.465522e-23
7.340000e+02 2.809969e-23
7.350000e+02 3.201368e-23
7.360000e+02 3.645959e-23
7.370000e+02 4.150789e-23
7.380000e+02 4.723815e-23
7.390000e+02 5.374019e-23
7.400000e+02 6.111533e-23
7.410000e+02 6.947785e-23
7.420000e+02 7.895662e-23
7.430000e+02 8.969687e-23
7.440000e+02 1.018622e-22
7.450000e+02 1.156370e-22
7.460000e+02 1.312288e-22
7.470000e+02 1.488710e-22
7.480000e+02 1.688266e-22
7.490000e+02 1.913912e-22
7.500000e+02 2.168971e-22
7.510000e+02 2.457181e-22
7.520000e+02 2.782740e-22
7.530000e+02 3.150363e-22
7.540000e+02 3.565347e-22
7.550000e+02 4.033638e-22
7.560000e+02 4.561907e-22
7.570000e+02 5.157639e-22
7.580000e+02 5.829228e-22
7.590000e+02 6.586083e-22
7.600000e+02 7.438753e-22
7.610000e+02 8.399054e-22
7.620000e+02 9.480221e-22
7.630000e+02 1.069707e-21
7.640000e+02 1.206620e-21
7.650000e+02 1.360615e-21
7.660000e+02 1.533771e-21
7.670000e+02 1.728408e-21
7.680000e+02 1.947122e-21
7.690000e+02 2.192815e-21
7.700000e+02 2.468726e-21
7.710000e+02 2.778476e-21
7.720000e+02 3.126107e-21
7.730000e+02 3.516130e-21
7.740000e+02 3.953578e-21
7.750000e+02 4.444069e-21
7.760000e+02 4.993864e-21
7.770000e+02 5.609946e-21
7.780000e+02 6.300096e-21
7.790000e+02 7.072984e-21
7.800000e+02 7.938268e-21
7.810000e+02 8.906702e-21
7.820000e+02 9.990258e-21
7.830000e+02 1.120226e-20
7.840000e+02 1.255752e-20
7.850000e+02 1.407254e-20
7.860000e+02 1.576565e-20
7.870000e+02 1.765721e-20
7.880000e+02 1.976987e-20
7.890000e+02 2.212880e-20
7.900000e+02 2.476192e-20
7.910000e+02 2.770027e-20
7.920000e+02 3.097827e-20
7.930000e+02 3.463414e-20
7.940000e+02 3.871027e-20
7.950000e+02 4.325366e-20
7.960000e+02 4.831645e-20
7.970000e+02 5.395643e-20
7.980000e+02 6.023761e-20
7.990000e+02 6.723094e-20
8.000000e+02 7.501498e-20
8.010000e+02 8.367671e-20
8.020000e+02 9.331242e-20
8.030000e+02 1.040287e-19
8.040000e+02 1.159434e-19
8.050000e+02 1.291868e-19
8.060000e+02 1.439033e-19
8.070000e+02 1.602522e-19
8.080000e+02 1.784095e-19
8.090000e+02 1.985700e-19
8.100000e+02 2.209484e-19
8.110000e+02 2.457823e-19
8.120000e+02 2.733337e-19
8.130000e+02 3.038917e-19
8.140000e+02 3.377755e-19
8.150000e+02 3.753371e-19
8.160000e+02 4.169648e-19
8.170000e+02 4.630866e-19
8.180000e+02 5.141743e-19
8.190000e+02 5.707479e-19
8.200000e+02 6.333801e-19
8.210000e+02 7.027020e-19
8.220000e+02 7.794081e-19
8.230000e+02 8.642635e-19
8.240000e+02 9.581098e-19
8.250000e+02 1.061873e-18
8.260000e+02 1.176572e-18
8.270000e+02 1.303328e-18
8.280000e+02 1.443372e-18
8.290000e+02 1.598060e-18
8.300000e+02 1.768878e-18
8.310000e+02 1.957462e-18
8.320000e+02 2.165609e-18
8.330000e+02 2.395290e-18
8.340000e+02 2.648672e-18
8.350000e+02 2.928131e-18
8.360000e+02 3.236275e-18
8.370000e+02 3.575967e-18
8.380000e+02 3.950345e-18
8.390000e+02 4.362851e-18
8.400000e+02 4.817258e-18
8.410000e+02 5.317703e-18
8.420000e+02 5.868717e-18
8.430000e+02 6.475266e-18
8.440000e+02 7.142789e-18
8.450000e+02 7.877241e-18
8.460000e+02 8.685142e-18
8.470000e+02 9.573627e-18
8.480000e+02 1.055051e-17
8.490000e+02 1.162433e-17
8.500000e+02 1.280443e-17
8.510000e+02 1.410103e-17
8.520000e+02 1.552530e-17
8.530000e+02 1.708947e-17
8.540000e+02 1.880686e-17
8.550000e+02 2.069206e-17
8.560000e+02 2.276100e-17
8.570000e+02 2.503107e-17
8.580000e+02 2.752126e-17
8.590000e+02 3.025229e-17
8.600000e+02 3.324680e-17
8.610000e+02 3.652946e-17
8.620000e+02 4.012719e-17
8.630000e+02 4.406937e-17
8.640000e+02 4.838802e-17
8.650000e+02 5.311804e-17
8.660000e+02 5.829748e-17
8.670000e+02 6.396780e-17
8.680000e+02 7.017417e-17
8.690000e+02 7.696579e-17
8.700000e+02 8.439624e-17
8.710000e+02 9.252384e-17
8.720000e+02 1.014121e-16
8.730000e+02 1.111301e-16
8.740000e+02 1.217531e-16
8.750000e+02 1.333628e-16
8.760000e+02 1.460483e-16
8.770000e+02 1.599062e-16
8.780000e+02 1.750417e-16
8.790000e+02 1.915692e-16
8.800000e+02 2.096128e-16
8.810000e+02 2.293077e-16
8.820000e+02 2.508003e-16
8.830000e+02 2.742500e-16
8.840000e+02 2.998297e-16
8.850000e+02 3.277270e-16
8.860000e+02 3.581458e-16
8.870000e+02 3.913073e-16
8.880000e+02 4.274512e-16
8.890000e+02 4.668379e-16
8.900000e+02 5.097496e-16
8.910000e+02 5.564923e-16
8.920000e+02 6.073980e-16
8.930000e+02 6.628261e-16
8.940000e+02 7.231666e-16
8.950000e+02 7.888416e-16
8.960000e+02 8.603086e-16
8.970000e+02 9.380632e-16
8.980000e+02 1.022642e-15
8.990000e+02 1.114625e-15
9.000000e+02 1.214642e-15
9.010000e+02 1.323373e-15
9.020000e+02 1.441554e-15
9.030000e+02 1.569983e-15
9.040000e+02 1.709519e-15
9.050000e+02 1.861096e-15
9.060000e+02 2.025720e-15
9.070000e+02 2.204481e-15
9.080000e+02 2.398555e-15
9.090000e+02 2.609214e-15
9.100000e+02 2.837834e-15
9.110000e+02 3.085896e-15
9.120000e+02 3.355006e-15
9.130000e+02 3.646894e-15
9.140000e+02 3.985202e-15
9.150000e+02 7.305109e-13
9.160000e+02 5.771325e-12
9.170000e+02 7.293293e-13
9.180000e+02 9.700460e-13
9.190000e+02 1.807066e-11
9.200000e+02 5.732634e-11
9.210000e+02 7.060521e-15
9.220000e+02 7.940404e-11
9.230000e+02 3.290914e-13
9.240000e+02 1.301195e-12
9.250000e+02 3.238740e-11
9.260000e+02 1.568040e-12
9.270000e+02 1.578756e-12
9.280000e+02 4.635335e-10
9.290000e+02 4.363938e-10
9.300000e+02 7.921701e-11
9.310000e+02 9.162677e-13
9.320000e+02 3.414784e-10
9.330000e+02 3.470454e-10
9.340000e+02 9.773693e-11
9.350000e+02 5.714385e-13
9.360000e+02 8.957622e-12
9.370000e+02 2.354662e-13
9.380000e+02 4.102599e-13
9.390000e+02 3.368081e-11
9.400000e+02 9.603311e-10
9.410000e+02 5.548013e-11
9.420000e+02 1.896831e-09
9.430000e+02 8.088630e-11
9.440000e+02 2.211348e-09
9.450000e+02 2.175544e-09
9.460000e+02 1.042677e-09
9.470000e+02 5.334067e-13
9.480000e+02 5.843811e-10
9.490000e+02 4.258338e-11
9.500000e+02 5.978122e-13
9.510000e+02 2.643759e-10
9.520000e+02 1.177462e-09
9.530000e+02 1.292487e-11
9.540000e+02 5.861076e-13
9.550000e+02 1.699831e-10
9.560000e+02 3.871368e-09
9.570000e+02 4.206724e-11
9.580000e+02 1.896816e-13
9.590000e+02 3.958523e-09
9.600000e+02 1.816380e-12
9.610000e+02 3.080924e-09
9.620000e+02 1.218995e-09
9.630000e+02 5.636114e-11
9.640000e+02 1.713130e-11
9.650000e+02 2.406075e-12
9.660000e+02 1.941887e-10
9.670000e+02 1.913314e-11
9.680000e+02 1.324496e-11
9.690000e+02 9.106054e-10
9.700000e+02 1.552596e-09
9.710000e+02 3.202558e-11
9.720000e+02 4.676102e-12
9.730000e+02 9.669399e-12
9.740000e+02 4.686812e-10
9.750000e+02 4.269830e-10
9.760000e+02 6.780320e-09
9.770000e+02 7.641753e-09
9.780000e+02 5.662634e-09
9.790000e+02 1.863825e-08
9.800000e+02 2.047958e-08
9.810000e+02 3.454574e-09
9.820000e+02 4.382326e-10
9.830000e+02 2.620634e-08
9.840000e+02 3.951898e-10
9.850000e+02 1.209237e-09
9.860000e+02 1.883267e-09
9.870000e+02 3.154109e-08
9.880000e+02 1.119105e-11
9.890000e+02 1.955815e-08
9.900000e+02 2.982472e-08
9.910000e+02 5.667824e-10
9.920000e+02 1.972188e-12
9.930000e+02 4.307369e-08
9.940000e+02 2.205347e-12
9.950000e+02 1.308084e-09
9.960000e+02 6.448531e-11
9.970000e+02 5.291683e-10
9.980000e+02 4.749319e-08
9.990000e+02 7.695468e-10
1.000000e+03 8.478512e-08
1.001000e+03 7.199928e-08
1.002000e+03 8.773331e-08
1.003000e+03 7.315375e-10
1.004000e+03 1.672618e-11
1.005000e+03 5.054986e-09
1.006000e+03 9.933075e-08
1.007000e+03 1.153479e-07
1.008000e+03 9.270008e-08
1.009000e+03 9.699739e-10
1.010000e+03 8.864921e-08
1.011000e+03 8.479148e-08
1.012000e+03 1.129491e-07
1.013000e+03 1.160150e-07
1.014000e+03 9.549694e-12
1.015000e+03 4.629896e-11
1.016000e+03 6.579512e-09
1.017000e+03 8.697043e-12
1.018000e+03 1.035012e-09
1.019000e+03 3.583267e-11
1.020000e+03 7.852713e-08
1.021000e+03 2.557908e-09
1.022000e+03 4.107520e-09
1.023000e+03 1.538325e-10
1.024000e+03 3.438291e-09
1.025000e+03 1.440509e-11
1.026000e+03 1.802956e-11
1.027000e+03 1.492981e-09
1.028000e+03 1.045812e-10
1.029000e+03 2.001954e-11
1.030000e+03 1.999229e-08
1.031000e+03 9.697669e-08
1.032000e+03 3.071796e-07
1.033000e+03 1.217472e-09
1.034000e+03 1.232353e-07
1.035000e+03 6.724576e-11
1.036000e+03 4.428102e-11
1.037000e+03 1.083692e-06
1.038000e+03 2.198608e-06
1.039000e+03 1.537629e-06
1.040000e+03 9.434894e-07
1.041000e+03 2.702138e-06
1.042000e+03 3.024377e-06
1.043000e+03 1.941134e-06
1.044000e+03 4.552736e-06
1.045000e+03 7.937281e-11
1.046000e+03 1.239103e-06
1.047000e+03 7.575150e-07
1.048000e+03 3.106720e-09
1.049000e+03 5.648310e-07
1.050000e+03 5.755692e-08
1.051000e+03 2.340039e-08
1.052000e+03 5.677295e-06
1.053000e+03 6.542493e-06
1.054000e+03 1.048193e-10
1.055000e+03 6.394743e-06
1.056000e+03 7.728286e-06
1.057000e+03 2.272021e-06
1.058000e+03 2.115737e-08
1.059000e+03 1.322860e-08
1.060000e+03 4.470166e-09
1.061000e+03 5.766312e-06
1.062000e+03 1.013040e-08
1.063000e+03 1.347356e-07
1.064000e+03 2.228262e-10
1.065000e+03 1.937224e-10
1.066000e+03 5.632503e-06
1.067000e+03 2.651290e-08
1.068000e+03 1.633917e-05
1.069000e+03 4.196675e-09
1.070000e+03 4.693829e-07
1.071000e+03 1.124216e-05
1.072000e+03 2.138538e-05
1.073000e+03 5.275069e-10
1.074000e+03 3.798469e-06
1.075000e+03 1.980725e-06
1.076000e+03 1.803778e-05
1.077000e+03 6.472874e-09
1.078000e+03 3.510650e-08
1.079000e+03 3.026419e-07
1.080000e+03 2.702536e-06
1.081000e+03 2.020079e-05
1.082000e+03 1.209053e-05
1.083000e+03 5.883005e-06
1.084000e+03 3.921717e-05
1.085000e+03 6.830851e-07
1.086000e+03 3.916517e-05
1.087000e+03 7.573180e-08
1.088000e+03 4.687821e-05
1.089000e+03 4.955208e-05
1.090000e+03 5.048034e-07
1.091000e+03 1.139677e-06
1.092000e+03 5.200058e-05
1.093000e+03 5.929954e-05
1.094000e+03 1.013017e-05
1.095000e+03 6.709269e-05
1.096000e+03 8.906281e-07
1.097000e+03 5.880310e-05
1.098000e+03 6.802010e-05
1.099000e+03 2.215747e-06
1.100000e+03 1.098488e-08
1.101000e+03 4.055980e-08
1.102000e+03 1.914022e-06
1.103000e+03 9.620300e-05
1.104000e+03 9.607588e-05
1.105000e+03 1.039896e-04
1.106000e+03 1.537775e-05
1.107000e+03 3.405876e-08
1.108000e+03 8.739549e-05
1.109000e+03 8.517745e-07
1.110000e+03 1.191435e-04
1.111000e+03 1.127374e-04
1.112000e+03 5.675777e-05
1.113000e+03 7.684943e-05
1.114000e+03 2.825272e-05
1.115000e+03 6.822465e-07
1.116000e+03 1.188393e-07
1.117000e+03 1.674833e-04
1.118000e+03 1.641871e-06
1.119000e+03 5.342526e-05
1.120000e+03 3.113237e-07
1.121000e+03 1.687873e-04
1.122000e+03 2.585039e-04
1.123000e+03 3.168314e-04
1.124000e+03 4.208272e-04
1.125000e+03 2.784367e-04
1.126000e+03 3.588850e-04
1.127000e+03 2.464540e-04
1.128000e+03 2.074249e-04
1.129000e+03 1.422854e-04
1.130000e+03 2.326820e-04
1.131000e+03 1.617329e-04
1.132000e+03 5.630645e-07
1.133000e+03 1.923343e-05
1.134000e+03 1.552144e-04
1.135000e+03 1.718830e-04
1.136000e+03 3.232087e-05
1.137000e+03 1.469194e-04
1.138000e+03 1.215056e-04
1.139000e+03 1.717767e-04
1.140000e+03 1.596407e-04
1.141000e+03 1.652772e-04
1.142000e+03 1.639024e-04
1.143000e+03 9.753644e-05
1.144000e+03 1.598425e-04
1.145000e+03 3.544992e-07
1.146000e+03 1.703399e-04
1.147000e+03 1.714739e-04
1.148000e+03 5.398731e-06
1.149000e+03 1.599393e-04
1.150000e+03 1.573775e-04
1.151000e+03 1.621193e-04
1.152000e+03 1.481256e-04
1.153000e+03 1.555156e-04
1.154000e+03 1.522651e-04
1.155000e+03 1.447525e-04
1.156000e+03 1.078987e-04
1.157000e+03 1.372108e-04
1.158000e+03 1.059172e-04
1.159000e+03 1.416426e-04
1.160000e+03 1.216169e-04
1.161000e+03 1.290323e-04
1.162000e+03 2.447612e-05
1.163000e+03 7.427183e-05
1.164000e+03 2.409870e-07
1.165000e+03 6.870511e-05
1.166000e+03 3.434742e-05
1.167000e+03 2.201985e-05
1.168000e+03 1.475812e-04
1.169000e+03 1.509664e-04
1.170000e+03 2.312320e-05
1.171000e+03 6.298714e-05
1.172000e+03 4.967622e-05
1.173000e+03 4.210560e-05
1.174000e+03 2.643632e-06
1.175000e+03 2.044399e-07
1.176000e+03 8.325878e-08
1.177000e+03 1.992673e-04
1.178000e+03 1.868999e-04
1.179000e+03 1.762940e-04
1.180000e+03 1.601005e-04
1.181000e+03 1.575666e-04
1.182000e+03 1.524714e-04
1.183000e+03 1.414364e-04
1.184000e+03 1.354639e-04
1.185000e+03 1.306531e-04
1.186000e+03 1.545550e-05
1.187000e+03 1.250664e-04
1.188000e+03 1.161012e-04
1.189000e+03 1.194310e-04
1.190000e+03 1.160638e-04
1.191000e+03 1.092668e-04
1.192000e+03 9.826957e-05
1.193000e+03 9.779351e-05
1.194000e+03 9.430257e-05
1.195000e+03 9.004214e-05
1.196000e+03 2.491749e-03
1.197000e+03 2.295893e-03
1.198000e+03 9.369070e-05
1.199000e+03 1.825156e-03
1.200000e+03 4.442245e-04
1.201000e+03 1.344213e-03
1.202000e+03 1.058316e-03
1.203000e+03 9.205406e-04
1.204000e+03 3.769998e-04
1.205000e+03 5.649419e-04
1.206000e+03 4.218238e-04
1.207000e+03 4.669311e-05
1.208000e+03 1.853113e-04
1.209000e+03 1.315972e-04
1.210000e+03 4.979884e-07
1.211000e+03 4.438929e-05
1.212000e+03 2.127113e-05
1.213000e+03 8.746691e-06
1.214000e+03 2.603728e-06
1.215000e+03 5.181254e-07
1.216000e+03 5.171432e-07
1.217000e+03 1.687811e-06
1.218000e+03 7.398777e-06
1.219000e+03 2.110090e-05
1.220000e+03 4.718213e-05
1.221000e+03 1.006114e-04
1.222000e+03 1.859971e-04
1.223000e+03 3.030609e-04
1.224000e+03 4.322345e-04
1.225000e+03 1.423111e-04
1.226000e+03 1.030455e-03
1.227000e+03 1.481892e-03
1.228000e+03 1.372373e-03
1.229000e+03 2.589732e-03
1.230000e+03 2.428852e-03
1.231000e+03 1.050574e-03
1.232000e+03 4.876052e-03
1.233000e+03 5.892493e-03
1.234000e+03 5.930422e-03
1.235000e+03 7.976747e-03
1.236000e+03 4.975334e-03
1.237000e+03 1.032558e-02
1.238000e+03 1.157378e-02
1.239000e+03 1.171957e-02
1.240000e+03 1.672666e-03
1.241000e+03 1.283771e-02
1.242000e+03 1.663755e-02
1.243000e+03 1.817849e-02
1.244000e+03 1.965643e-02
1.245000e+03 2.078127e-02
1.246000e+03 2.141168e-02
1.247000e+03 2.310525e-02
1.248000e+03 1.868539e-02
1.249000e+03 2.646227e-02
1.250000e+03 2.139080e-02
1.251000e+03 2.931333e-02
1.252000e+03 2.891658e-02
1.253000e+03 3.106913e-02
1.254000e+03 3.043594e-02
1.255000e+03 4.870879e-03
1.256000e+03 2.483834e-02
1.257000e+03 1.552766e-02
1.258000e+03 3.106677e-02
1.259000e+03 3.351063e-02
1.260000e+03 3.611915e-02
1.261000e+03 3.638901e-04
1.262000e+03 3.735612e-02
1.263000e+03 3.546302e-02
1.264000e+03 3.313375e-02
1.265000e+03 3.464972e-02
1.266000e+03 4.672339e-02
1.267000e+03 4.979634e-02
