# wavelength_A flux
5.000000e+02 6.646317e-32
5.010000e+02 8.339749e-32
5.020000e+02 1.045525e-31
5.030000e+02 1.309564e-31
5.040000e+02 1.638837e-31
5.050000e+02 3.652248e-31
5.060000e+02 4.553323e-31
5.070000e+02 5.651547e-31
5.080000e+02 7.041754e-31
5.090000e+02 8.744118e-31
5.100000e+02 1.727784e-31
5.110000e+02 1.345017e-30
5.120000e+02 1.659986e-30
5.130000e+02 2.061877e-30
5.140000e+02 2.549825e-30
5.150000e+02 3.150155e-30
5.160000e+02 3.888418e-30
5.170000e+02 4.798504e-30
5.180000e+02 5.915701e-30
5.190000e+02 7.286535e-30
5.200000e+02 8.967921e-30
5.210000e+02 1.102826e-29
5.220000e+02 1.351780e-29
5.230000e+02 1.663942e-29
5.240000e+02 2.041934e-29
5.250000e+02 2.503572e-29
5.260000e+02 3.067207e-29
5.270000e+02 3.754898e-29
5.280000e+02 4.593338e-29
5.290000e+02 5.611733e-29
5.300000e+02 6.858394e-29
5.310000e+02 8.371238e-29
5.320000e+02 1.021032e-28
5.330000e+02 1.244444e-28
5.340000e+02 1.515625e-28
5.350000e+02 1.844529e-28
5.360000e+02 2.242864e-28
5.370000e+02 2.051599e-28
5.380000e+02 3.310192e-28
5.390000e+02 4.018281e-28
5.400000e+02 4.873410e-28
5.410000e+02 5.902094e-28
5.420000e+02 7.152823e-28
5.430000e+02 8.656963e-28
5.440000e+02 1.046995e-27
5.450000e+02 1.265400e-27
5.460000e+02 1.527592e-27
5.470000e+02 1.844652e-27
5.480000e+02 2.224952e-27
5.490000e+02 2.681873e-27
5.500000e+02 3.230487e-27
5.510000e+02 3.888766e-27
5.520000e+02 4.678118e-27
5.530000e+02 5.624029e-27
5.540000e+02 6.756822e-27
5.550000e+02 8.112579e-27
5.560000e+02 9.734089e-27
5.570000e+02 1.167225e-26
5.580000e+02 1.398745e-26
5.590000e+02 1.675130e-26
5.600000e+02 2.004867e-26
5.610000e+02 2.398013e-26
5.620000e+02 2.866472e-26
5.630000e+02 3.424328e-26
5.640000e+02 4.088237e-26
5.650000e+02 4.877875e-26
5.660000e+02 5.816507e-26
5.670000e+02 6.931553e-26
5.680000e+02 8.255379e-26
5.690000e+02 9.826150e-26
5.700000e+02 1.168886e-25
5.710000e+02 1.389639e-25
5.720000e+02 1.651109e-25
5.730000e+02 1.960625e-25
5.740000e+02 2.326803e-25
5.750000e+02 2.759766e-25
5.760000e+02 3.268857e-25
5.770000e+02 3.877506e-25
5.780000e+02 4.591066e-25
5.790000e+02 5.432829e-25
5.800000e+02 6.425250e-25
5.810000e+02 7.594566e-25
5.820000e+02 8.971251e-25
5.830000e+02 1.058921e-24
5.840000e+02 1.241404e-24
5.850000e+02 1.471825e-24
5.860000e+02 1.737469e-24
5.870000e+02 2.047266e-24
5.880000e+02 2.410704e-24
5.890000e+02 2.837000e-24
5.900000e+02 3.336943e-24
5.910000e+02 3.922819e-24
5.920000e+02 4.609082e-24
5.930000e+02 5.412523e-24
5.940000e+02 6.352657e-24
5.950000e+02 7.452171e-24
5.960000e+02 8.737417e-24
5.970000e+02 1.023900e-23
5.980000e+02 1.199242e-23
5.990000e+02 1.403894e-23
6.000000e+02 1.642621e-23
6.010000e+02 1.920936e-23
6.020000e+02 2.245333e-23
6.030000e+02 2.623149e-23
6.040000e+02 3.063000e-23
6.050000e+02 3.574816e-23
6.060000e+02 4.170075e-23
6.070000e+02 4.862054e-23
6.080000e+02 5.666061e-23
6.090000e+02 6.599783e-23
6.100000e+02 7.683621e-23
6.110000e+02 8.941112e-23
6.120000e+02 1.039938e-22
6.130000e+02 1.208969e-22
6.140000e+02 1.404797e-22
6.150000e+02 1.631568e-22
6.160000e+02 1.894046e-22
6.170000e+02 2.197712e-22
6.180000e+02 2.548867e-22
6.190000e+02 2.954747e-22
6.200000e+02 3.423665e-22
6.210000e+02 3.965164e-22
6.220000e+02 4.590191e-22
6.230000e+02 5.311302e-22
6.240000e+02 6.142893e-22
6.250000e+02 7.101457e-22
6.260000e+02 8.205924e-22
6.270000e+02 9.477879e-22
6.280000e+02 1.094209e-21
6.290000e+02 1.262686e-21
6.300000e+02 1.456456e-21
6.310000e+02 1.658859e-21
6.320000e+02 1.935206e-21
6.330000e+02 2.228941e-21
6.340000e+02 2.566820e-21
6.350000e+02 2.953324e-21
6.360000e+02 3.398657e-21
6.370000e+02 3.908285e-21
6.380000e+02 4.492394e-21
6.390000e+02 5.161603e-21
6.400000e+02 5.927984e-21
6.410000e+02 6.805281e-21
6.420000e+02 7.809128e-21
6.430000e+02 8.957301e-21
6.440000e+02 1.027001e-20
6.450000e+02 1.177022e-20
6.460000e+02 1.348400e-20
6.470000e+02 1.544047e-20
6.480000e+02 1.767385e-20
6.490000e+02 2.022244e-20
6.500000e+02 2.312888e-20
6.510000e+02 2.644307e-20
6.520000e+02 3.021951e-20
6.530000e+02 3.452145e-20
6.540000e+02 3.941995e-20
6.550000e+02 4.499602e-20
6.560000e+02 5.134038e-20
6.570000e+02 5.855435e-20
6.580000e+02 6.676020e-20
6.590000e+02 7.608390e-20
6.600000e+02 8.667603e-20
6.610000e+02 9.870478e-20
6.620000e+02 1.123596e-19
6.630000e+02 1.278544e-19
6.640000e+02 1.454306e-19
6.650000e+02 1.653600e-19
6.660000e+02 1.879808e-19
6.670000e+02 2.135793e-19
6.680000e+02 2.425730e-19
6.690000e+02 2.753998e-19
6.700000e+02 3.125532e-19
6.710000e+02 3.545875e-19
6.720000e+02 4.021267e-19
6.730000e+02 4.558725e-19
6.740000e+02 5.166130e-19
6.750000e+02 5.852340e-19
6.760000e+02 6.627299e-19
6.770000e+02 7.502174e-19
6.780000e+02 8.489496e-19
6.790000e+02 9.603325e-19
6.800000e+02 1.085943e-18
6.810000e+02 1.227550e-18
6.820000e+02 1.387134e-18
6.830000e+02 1.566915e-18
6.840000e+02 1.769377e-18
6.850000e+02 1.997303e-18
6.860000e+02 2.253809e-18
6.870000e+02 2.542381e-18
6.880000e+02 2.866894e-18
6.890000e+02 3.231674e-18
6.900000e+02 3.641627e-18
6.910000e+02 4.102249e-18
6.920000e+02 4.619613e-18
6.930000e+02 5.200474e-18
6.940000e+02 5.852409e-18
6.950000e+02 6.583871e-18
6.960000e+02 7.404281e-18
6.970000e+02 8.323952e-18
6.980000e+02 9.355209e-18
6.990000e+02 1.051053e-17
7.000000e+02 1.180466e-17
7.010000e+02 1.325383e-17
7.020000e+02 1.487606e-17
7.030000e+02 1.669147e-17
7.040000e+02 1.872240e-17
7.050000e+02 2.099371e-17
7.060000e+02 2.346245e-17
7.070000e+02 2.637115e-17
7.080000e+02 2.954218e-17
7.090000e+02 3.308404e-17
7.100000e+02 3.703900e-17
7.110000e+02 4.145374e-17
7.120000e+02 4.638024e-17
7.130000e+02 5.187612e-17
7.140000e+02 5.800533e-17
7.150000e+02 6.483875e-17
7.160000e+02 7.245500e-17
7.170000e+02 8.094090e-17
7.180000e+02 9.039227e-17
7.190000e+02 1.009198e-16
7.200000e+02 1.126377e-16
7.210000e+02 1.256782e-16
7.220000e+02 1.401866e-16
7.230000e+02 1.563232e-16
7.240000e+02 1.742656e-16
7.250000e+02 1.942099e-16
7.260000e+02 2.163731e-16
7.270000e+02 2.409950e-16
7.280000e+02 2.683402e-16
7.290000e+02 2.987013e-16
7.300000e+02 3.324013e-16
7.310000e+02 3.697966e-16
7.320000e+02 4.112807e-16
7.330000e+02 4.573324e-16
7.340000e+02 5.083450e-16
7.350000e+02 5.648872e-16
7.360000e+02 6.275302e-16
7.370000e+02 6.969478e-16
7.380000e+02 7.738134e-16
7.390000e+02 8.589162e-16
7.400000e+02 9.531116e-16
7.410000e+02 1.057346e-15
7.420000e+02 1.172654e-15
7.430000e+02 1.300180e-15
7.440000e+02 1.441178e-15
7.450000e+02 1.597030e-15
7.460000e+02 1.769254e-15
7.470000e+02 1.959519e-15
7.480000e+02 2.169660e-15
7.490000e+02 2.401689e-15
7.500000e+02 2.657820e-15
7.510000e+02 2.940481e-15
7.520000e+02 3.252339e-15
7.530000e+02 3.596317e-15
7.540000e+02 3.975625e-15
7.550000e+02 4.393784e-15
7.560000e+02 4.854653e-15
7.570000e+02 5.362073e-15
7.580000e+02 5.921852e-15
7.590000e+02 6.537875e-15
7.600000e+02 7.216172e-15
7.610000e+02 7.962766e-15
7.620000e+02 8.784352e-15
7.630000e+02 9.688235e-15
7.640000e+02 1.068241e-14
7.650000e+02 1.177494e-14
7.660000e+02 1.297743e-14
7.670000e+02 1.429831e-14
7.680000e+02 1.574953e-14
7.690000e+02 1.730179e-14
7.700000e+02 1.909466e-14
7.710000e+02 2.101766e-14
7.720000e+02 2.312812e-14
7.730000e+02 2.544425e-14
7.740000e+02 2.798548e-14
7.750000e+02 3.077299e-14
7.760000e+02 3.382832e-14
7.770000e+02 3.718155e-14
7.780000e+02 4.085535e-14
7.790000e+02 4.488136e-14
7.800000e+02 4.929230e-14
7.810000e+02 5.412383e-14
7.820000e+02 5.941481e-14
7.830000e+02 6.520757e-14
7.840000e+02 7.154822e-14
7.850000e+02 7.848696e-14
7.860000e+02 8.607844e-14
7.870000e+02 9.438562e-14
7.880000e+02 1.034666e-13
7.890000e+02 1.133951e-13
7.900000e+02 1.242475e-13
7.910000e+02 1.361072e-13
7.920000e+02 1.489955e-13
7.930000e+02 1.632010e-13
7.940000e+02 1.786760e-13
7.950000e+02 1.955527e-13
7.960000e+02 2.139752e-13
7.970000e+02 2.340804e-13
7.980000e+02 2.560173e-13
7.990000e+02 2.799474e-13
8.000000e+02 3.060462e-13
8.010000e+02 3.345036e-13
8.020000e+02 3.655266e-13
8.030000e+02 3.993385e-13
8.040000e+02 4.361824e-13
8.050000e+02 4.593701e-13
8.060000e+02 5.196513e-13
8.070000e+02 5.676496e-13
8.080000e+02 6.194708e-13
8.090000e+02 6.759033e-13
8.100000e+02 7.373040e-13
8.110000e+02 8.041102e-13
8.120000e+02 8.767825e-13
8.130000e+02 9.558193e-13
8.140000e+02 1.041760e-12
8.150000e+02 1.135188e-12
8.160000e+02 1.236736e-12
8.170000e+02 1.347084e-12
8.180000e+02 1.466972e-12
8.190000e+02 1.597197e-12
8.200000e+02 1.738622e-12
8.210000e+02 1.892177e-12
8.220000e+02 2.058871e-12
8.230000e+02 2.239790e-12
8.240000e+02 2.436109e-12
8.250000e+02 2.649096e-12
8.260000e+02 2.880118e-12
8.270000e+02 3.130653e-12
8.280000e+02 3.402294e-12
8.290000e+02 3.696764e-12
8.300000e+02 4.015914e-12
8.310000e+02 4.361747e-12
8.320000e+02 4.736419e-12
8.330000e+02 5.142255e-12
8.340000e+02 5.581762e-12
8.350000e+02 6.050009e-12
8.360000e+02 6.572743e-12
8.370000e+02 7.130377e-12
8.380000e+02 7.733741e-12
8.390000e+02 8.386543e-12
8.400000e+02 9.092681e-12
8.410000e+02 9.856374e-12
8.420000e+02 1.068188e-11
8.430000e+02 1.157491e-11
8.440000e+02 1.253999e-11
8.450000e+02 1.358282e-11
8.460000e+02 1.470959e-11
8.470000e+02 1.592682e-11
8.480000e+02 1.724153e-11
8.490000e+02 1.866126e-11
8.500000e+02 2.019411e-11
8.510000e+02 2.184882e-11
8.520000e+02 2.363467e-11
8.530000e+02 2.556184e-11
8.540000e+02 2.764101e-11
8.550000e+02 2.988379e-11
8.560000e+02 3.230264e-11
8.570000e+02 3.491088e-11
8.580000e+02 3.763334e-11
8.590000e+02 4.075395e-11
8.600000e+02 4.402061e-11
8.610000e+02 4.752638e-11
8.620000e+02 5.133273e-11
8.630000e+02 5.541745e-11
8.640000e+02 5.981648e-11
8.650000e+02 6.455303e-11
8.660000e+02 6.965300e-11
8.670000e+02 7.514217e-11
8.680000e+02 8.104965e-11
8.690000e+02 8.740622e-11
8.700000e+02 9.424427e-11
8.710000e+02 1.016008e-10
8.720000e+02 1.095118e-10
8.730000e+02 1.180184e-10
8.740000e+02 1.271639e-10
8.750000e+02 1.369944e-10
8.760000e+02 1.475596e-10
8.770000e+02 1.589123e-10
8.780000e+02 1.711088e-10
8.790000e+02 1.842115e-10
8.800000e+02 1.982831e-10
8.810000e+02 2.133936e-10
8.820000e+02 2.296174e-10
8.830000e+02 2.470328e-10
8.840000e+02 2.657244e-10
8.850000e+02 2.857838e-10
8.860000e+02 3.073058e-10
8.870000e+02 3.303939e-10
8.880000e+02 3.551579e-10
8.890000e+02 3.817154e-10
8.900000e+02 4.101920e-10
8.910000e+02 4.407207e-10
8.920000e+02 4.733132e-10
8.930000e+02 5.085155e-10
8.940000e+02 5.460957e-10
8.950000e+02 5.863595e-10
8.960000e+02 6.294903e-10
8.970000e+02 6.756856e-10
8.980000e+02 7.251545e-10
8.990000e+02 7.781226e-10
9.000000e+02 8.348264e-10
9.010000e+02 8.955212e-10
9.020000e+02 9.604755e-10
9.030000e+02 1.029951e-09
9.040000e+02 1.104342e-09
9.050000e+02 1.183886e-09
9.060000e+02 1.268937e-09
9.070000e+02 1.359947e-09
9.080000e+02 1.457233e-09
9.090000e+02 1.561231e-09
9.100000e+02 1.672393e-09
9.110000e+02 1.791239e-09
9.120000e+02 1.918736e-09
9.130000e+02 1.905730e-09
9.140000e+02 6.959908e-09
9.150000e+02 4.211296e-06
9.160000e+02 3.659591e-05
9.170000e+02 1.353307e-05
9.180000e+02 5.447568e-06
9.190000e+02 1.170156e-04
9.200000e+02 3.952085e-04
9.210000e+02 3.372307e-09
9.220000e+02 5.200844e-04
9.230000e+02 2.343941e-06
9.240000e+02 1.074529e-04
9.250000e+02 4.709178e-04
9.260000e+02 7.736977e-06
9.270000e+02 7.151135e-05
9.280000e+02 2.762819e-03
9.290000e+02 2.564167e-03
9.300000e+02 4.379872e-04
9.310000e+02 5.816763e-06
9.320000e+02 1.903614e-03
9.330000e+02 2.981247e-03
9.340000e+02 2.380608e-03
9.350000e+02 2.788311e-06
9.360000e+02 2.373579e-04
9.370000e+02 1.052576e-06
9.380000e+02 1.602984e-06
9.390000e+02 3.824799e-04
9.400000e+02 4.727105e-03
9.410000e+02 1.416101e-04
9.420000e+02 8.087485e-03
9.430000e+02 1.265286e-03
9.440000e+02 8.338596e-03
9.450000e+02 8.851876e-03
9.460000e+02 6.445614e-03
9.470000e+02 2.431055e-05
9.480000e+02 2.229548e-03
9.490000e+02 1.500889e-04
9.500000e+02 1.545488e-06
9.510000e+02 1.053646e-03
9.520000e+02 4.871798e-03
9.530000e+02 1.666885e-04
9.540000e+02 2.659751e-05
9.550000e+02 3.391028e-03
9.560000e+02 1.169972e-02
9.570000e+02 3.174534e-04
9.580000e+02 7.586088e-06
9.590000e+02 2.000879e-02
9.600000e+02 4.494563e-06
9.610000e+02 1.478615e-02
9.620000e+02 8.772995e-03
9.630000e+02 2.411362e-03
9.640000e+02 2.036802e-06
9.650000e+02 7.449649e-05
9.660000e+02 3.598601e-03
9.670000e+02 4.543625e-04
9.680000e+02 2.479013e-04
9.690000e+02 8.069763e-03
9.700000e+02 4.963793e-03
9.710000e+02 3.093736e-04
9.720000e+02 2.701086e-05
9.730000e+02 2.212637e-05
9.740000e+02 1.378468e-03
9.750000e+02 3.043952e-03
9.760000e+02 1.651137e-02
9.770000e+02 2.183474e-02
9.780000e+02 1.862360e-02
9.790000e+02 3.807386e-02
9.800000e+02 4.264073e-02
9.810000e+02 2.117156e-02
9.820000e+02 4.180849e-03
9.830000e+02 5.105317e-02
9.840000e+02 7.234634e-04
9.850000e+02 1.268076e-02
9.860000e+02 1.742194e-02
9.870000e+02 6.250893e-02
9.880000e+02 1.789331e-04
9.890000e+02 4.827156e-02
9.900000e+02 9.028689e-04
9.910000e+02 2.369958e-03
9.920000e+02 3.548604e-05
9.930000e+02 6.408583e-02
9.940000e+02 3.535300e-06
9.950000e+02 2.095980e-03
9.960000e+02 7.151812e-04
9.970000e+02 3.739042e-04
9.980000e+02 7.891261e-02
9.990000e+02 2.828004e-03
1.000000e+03 1.011803e-01
1.001000e+03 9.578630e-02
1.002000e+03 1.173639e-01
1.003000e+03 6.704340e-03
1.004000e+03 2.894029e-04
1.005000e+03 2.371376e-02
1.006000e+03 1.308513e-01
1.007000e+03 1.373215e-01
1.008000e+03 1.278645e-01
1.009000e+03 9.784298e-03
1.010000e+03 1.332955e-01
1.011000e+03 1.487600e-01
1.012000e+03 1.409737e-01
1.013000e+03 1.387244e-01
1.014000e+03 9.858608e-05
1.015000e+03 4.276782e-04
1.016000e+03 2.091853e-02
1.017000e+03 7.985532e-05
1.018000e+03 8.588277e-03
1.019000e+03 3.906190e-04
1.020000e+03 9.473394e-02
1.021000e+03 4.047595e-03
1.022000e+03 9.386305e-03
1.023000e+03 7.964931e-04
1.024000e+03 3.749643e-03
1.025000e+03 5.351212e-05
1.026000e+03 1.862543e-05
1.027000e+03 1.621500e-03
1.028000e+03 1.122011e-04
1.029000e+03 1.643561e-04
1.030000e+03 6.963617e-02
1.031000e+03 1.144459e-01
1.032000e+03 2.456422e-01
1.033000e+03 1.379281e-03
1.034000e+03 2.672501e-01
1.035000e+03 6.586313e-05
1.036000e+03 3.450513e-04
1.037000e+03 8.191869e-01
1.038000e+03 1.016090e+00
1.039000e+03 9.195226e-01
1.040000e+03 1.117684e+00
1.041000e+03 1.245115e+00
1.042000e+03 1.294661e+00
1.043000e+03 8.704140e-01
1.044000e+03 1.512494e+00
1.045000e+03 8.783824e-05
1.046000e+03 1.320318e+00
1.047000e+03 6.889178e-01
1.048000e+03 9.626150e-03
1.049000e+03 8.356261e-01
1.050000e+03 3.245318e-01
1.051000e+03 1.345091e-01
1.052000e+03 1.948027e+00
1.053000e+03 2.136850e+00
1.054000e+03 5.669594e-04
1.055000e+03 2.045791e+00
1.056000e+03 2.296028e+00
1.057000e+03 1.331215e+00
1.058000e+03 1.578953e-01
1.059000e+03 9.762049e-03
1.060000e+03 1.426911e-02
1.061000e+03 1.977817e+00
1.062000e+03 6.035255e-02
1.063000e+03 3.169101e-02
1.064000e+03 1.478195e-04
1.065000e+03 9.658337e-04
1.066000e+03 1.500420e+00
1.067000e+03 4.733568e-02
1.068000e+03 3.515080e+00
1.069000e+03 9.404770e-03
1.070000e+03 1.412439e+00
1.071000e+03 3.653178e+00
1.072000e+03 3.898513e+00
1.073000e+03 2.372503e-03
1.074000e+03 1.842373e+00
1.075000e+03 1.192806e+00
1.076000e+03 3.547164e+00
1.077000e+03 5.305290e-03
1.078000e+03 1.515136e-01
1.079000e+03 9.927102e-01
1.080000e+03 2.168491e+00
1.081000e+03 4.401648e+00
1.082000e+03 3.827145e+00
1.083000e+03 2.791746e+00
1.084000e+03 5.643481e+00
1.085000e+03 8.252811e-01
1.086000e+03 6.098139e+00
1.087000e+03 1.165714e-01
1.088000e+03 6.459573e+00
1.089000e+03 6.644486e+00
1.090000e+03 6.629129e-01
1.091000e+03 9.231820e-01
1.092000e+03 6.979427e+00
1.093000e+03 7.319811e+00
1.094000e+03 5.597015e+00
1.095000e+03 7.919724e+00
1.096000e+03 3.041668e-01
1.097000e+03 7.409397e+00
1.098000e+03 8.197626e+00
1.099000e+03 2.654230e+00
1.100000e+03 2.831478e-02
1.101000e+03 8.843943e-02
1.102000e+03 1.435892e+00
1.103000e+03 1.015592e+01
1.104000e+03 1.047687e+01
1.105000e+03 1.050038e+01
1.106000e+03 5.709239e+00
1.107000e+03 4.217052e-02
1.108000e+03 1.071915e+01
1.109000e+03 6.682816e-01
1.110000e+03 1.103758e+01
1.111000e+03 1.151035e+01
1.112000e+03 9.892200e+00
1.113000e+03 1.012058e+01
1.114000e+03 7.942248e+00
1.115000e+03 7.505732e-01
1.116000e+03 3.942408e-01
1.117000e+03 1.377733e+01
1.118000e+03 1.102067e+00
1.119000e+03 1.228018e+01
1.120000e+03 4.793386e-01
1.121000e+03 1.561699e+01
1.122000e+03 4.754938e+00
1.123000e+03 2.041634e+01
1.124000e+03 2.339533e+01
1.125000e+03 1.967565e+01
1.126000e+03 2.202835e+01
1.127000e+03 2.013414e+01
1.128000e+03 1.328391e+01
1.129000e+03 1.666178e+01
1.130000e+03 1.866544e+01
1.131000e+03 1.607790e+01
1.132000e+03 7.024326e-01
1.133000e+03 4.551746e+00
1.134000e+03 1.540028e+01
1.135000e+03 2.503719e+00
1.136000e+03 8.218821e+00
1.137000e+03 1.520117e+01
1.138000e+03 1.432438e+01
1.139000e+03 1.676774e+01
1.140000e+03 1.365023e+01
1.141000e+03 1.624132e+01
1.142000e+03 1.652818e+01
1.143000e+03 1.418740e+01
1.144000e+03 1.619400e+01
1.145000e+03 3.127604e-01
1.146000e+03 1.709936e+01
1.147000e+03 1.711296e+01
1.148000e+03 2.597498e+00
1.149000e+03 1.668615e+01
1.150000e+03 1.643466e+01
1.151000e+03 1.689814e+01
1.152000e+03 1.659879e+01
1.153000e+03 1.587194e+01
1.154000e+03 1.617788e+01
1.155000e+03 1.562651e+01
1.156000e+03 1.288893e+01
1.157000e+03 1.503982e+01
1.158000e+03 1.395929e+01
1.159000e+03 1.556712e+01
1.160000e+03 1.416155e+01
1.161000e+03 1.459955e+01
1.162000e+03 6.423544e+00
1.163000e+03 1.039368e+01
1.164000e+03 4.501915e-02
1.165000e+03 9.212627e+00
1.166000e+03 5.205222e+00
1.167000e+03 3.527016e+00
1.168000e+03 1.603550e+01
1.169000e+03 1.621526e+01
1.170000e+03 3.668744e+00
1.171000e+03 8.341640e+00
1.172000e+03 6.790966e+00
1.173000e+03 5.946723e+00
1.174000e+03 1.746972e+00
1.175000e+03 3.854656e-02
1.176000e+03 1.364136e-02
1.177000e+03 1.963890e+01
1.178000e+03 1.875507e+01
1.179000e+03 1.795499e+01
1.180000e+03 1.620022e+01
1.181000e+03 1.652927e+01
1.182000e+03 1.601611e+01
1.183000e+03 1.519588e+01
1.184000e+03 1.465604e+01
1.185000e+03 1.431725e+01
1.186000e+03 6.011381e+00
1.187000e+03 1.362609e+01
1.188000e+03 1.259004e+01
1.189000e+03 1.264210e+01
1.190000e+03 1.272791e+01
1.191000e+03 1.205158e+01
1.192000e+03 1.101536e+01
1.193000e+03 8.345042e+00
1.194000e+03 1.036963e+01
1.195000e+03 1.009735e+01
1.196000e+03 9.100381e+01
1.197000e+03 8.825869e+01
1.198000e+03 3.096603e+01
1.199000e+03 7.957709e+01
1.200000e+03 4.804918e+01
1.201000e+03 6.809322e+01
1.202000e+03 5.937610e+01
1.203000e+03 5.515863e+01
1.204000e+03 3.405579e+01
1.205000e+03 4.027049e+01
1.206000e+03 3.284258e+01
1.207000e+03 5.311075e+00
1.208000e+03 1.726806e+01
1.209000e+03 1.293861e+01
1.210000e+03 6.652737e-02
1.211000e+03 4.938196e+00
1.212000e+03 2.489585e+00
1.213000e+03 1.058108e+00
1.214000e+03 3.186534e-01
1.215000e+03 5.304213e-02
1.216000e+03 2.110692e-02
1.217000e+03 2.062726e-01
1.218000e+03 8.600820e-01
1.219000e+03 2.347466e+00
1.220000e+03 5.000428e+00
1.221000e+03 9.663737e+00
1.222000e+03 1.644988e+01
1.223000e+03 2.484910e+01
1.224000e+03 3.295008e+01
1.225000e+03 2.414651e+01
1.226000e+03 6.203138e+01
1.227000e+03 7.897099e+01
1.228000e+03 8.165755e+01
1.229000e+03 1.122148e+02
1.230000e+03 1.072410e+02
1.231000e+03 8.936429e+01
1.232000e+03 1.622388e+02
1.233000e+03 1.804222e+02
1.234000e+03 1.449084e+02
1.235000e+03 2.121182e+02
1.236000e+03 1.836111e+02
1.237000e+03 2.428170e+02
1.238000e+03 2.574035e+02
1.239000e+03 2.662498e+02
1.240000e+03 8.038214e+01
1.241000e+03 2.765131e+02
1.242000e+03 3.111870e+02
1.243000e+03 3.252703e+02
1.244000e+03 3.386854e+02
1.245000e+03 3.511902e+02
1.246000e+03 3.596019e+02
1.247000e+03 3.733873e+02
1.248000e+03 2.996625e+02
1.249000e+03 4.014001e+02
1.250000e+03 3.294892e+02
1.251000e+03 4.274153e+02
1.252000e+03 4.223882e+02
1.253000e+03 4.468323e+02
1.254000e+03 4.475384e+02
1.255000e+03 1.904601e+02
1.256000e+03 4.198531e+02
1.257000e+03 3.571187e+02
1.258000e+03 4.673089e+02
1.259000e+03 4.582493e+02
1.260000e+03 5.105310e+02
1.261000e+03 2.412103e+01
1.262000e+03 5.294709e+02
1.263000e+03 5.160289e+02
1.264000e+03 5.180761e+02
1.265000e+03 5.846039e+00
1.266000e+03 6.023270e+02
1.267000e+03 6.185743e+02
