# wavelength_A flux
5.000000e+02 2.442541e-08
5.010000e+02 2.769780e-08
5.020000e+02 3.139172e-08
5.030000e+02 3.556062e-08
5.040000e+02 4.026254e-08
5.050000e+02 4.881843e-08
5.060000e+02 5.519554e-08
5.070000e+02 6.237431e-08
5.080000e+02 7.045190e-08
5.090000e+02 7.954659e-08
5.100000e+02 8.976047e-08
5.110000e+02 1.012339e-07
5.120000e+02 1.141201e-07
5.130000e+02 1.285846e-07
5.140000e+02 1.448129e-07
5.150000e+02 1.630082e-07
5.160000e+02 1.834103e-07
5.170000e+02 2.062378e-07
5.180000e+02 2.318577e-07
5.190000e+02 2.605013e-07
5.200000e+02 2.925522e-07
5.210000e+02 3.283932e-07
5.220000e+02 3.683455e-07
5.230000e+02 4.132200e-07
5.240000e+02 4.632086e-07
5.250000e+02 5.190357e-07
5.260000e+02 5.812986e-07
5.270000e+02 6.507555e-07
5.280000e+02 7.281893e-07
5.290000e+02 8.138892e-07
5.300000e+02 9.105921e-07
5.310000e+02 1.017608e-06
5.320000e+02 1.136721e-06
5.330000e+02 1.269217e-06
5.340000e+02 1.416528e-06
5.350000e+02 1.580285e-06
5.360000e+02 1.762196e-06
5.370000e+02 1.895456e-06
5.380000e+02 2.188474e-06
5.390000e+02 2.437580e-06
5.400000e+02 2.713726e-06
5.410000e+02 3.019241e-06
5.420000e+02 3.359081e-06
5.430000e+02 3.735156e-06
5.440000e+02 4.151505e-06
5.450000e+02 4.612416e-06
5.460000e+02 5.120002e-06
5.470000e+02 5.686613e-06
5.480000e+02 6.310413e-06
5.490000e+02 6.999806e-06
5.500000e+02 7.761592e-06
5.510000e+02 8.602934e-06
5.520000e+02 9.531759e-06
5.530000e+02 1.055686e-05
5.540000e+02 1.168772e-05
5.550000e+02 1.293479e-05
5.560000e+02 1.430928e-05
5.570000e+02 1.582414e-05
5.580000e+02 1.749282e-05
5.590000e+02 1.933027e-05
5.600000e+02 2.135278e-05
5.610000e+02 2.357828e-05
5.620000e+02 2.602575e-05
5.630000e+02 2.871730e-05
5.640000e+02 3.167573e-05
5.650000e+02 3.492620e-05
5.660000e+02 3.849661e-05
5.670000e+02 4.241688e-05
5.680000e+02 4.671979e-05
5.690000e+02 5.144016e-05
5.700000e+02 5.661849e-05
5.710000e+02 6.229658e-05
5.720000e+02 6.852009e-05
5.730000e+02 7.533933e-05
5.740000e+02 8.280889e-05
5.750000e+02 9.099208e-05
5.760000e+02 9.992407e-05
5.770000e+02 1.097405e-04
5.780000e+02 1.204573e-04
5.790000e+02 1.321764e-04
5.800000e+02 1.449865e-04
5.810000e+02 1.589859e-04
5.820000e+02 1.742754e-04
5.830000e+02 1.909709e-04
5.840000e+02 2.090332e-04
5.850000e+02 2.290694e-04
5.860000e+02 2.508260e-04
5.870000e+02 2.745152e-04
5.880000e+02 3.003373e-04
5.890000e+02 3.284837e-04
5.900000e+02 3.591608e-04
5.910000e+02 3.925793e-04
5.920000e+02 4.289704e-04
5.930000e+02 4.685888e-04
5.940000e+02 5.117073e-04
5.950000e+02 5.585360e-04
5.960000e+02 6.096396e-04
5.970000e+02 6.651222e-04
5.980000e+02 7.254377e-04
5.990000e+02 7.909846e-04
6.000000e+02 8.621951e-04
6.010000e+02 9.395166e-04
6.020000e+02 1.023490e-03
6.030000e+02 1.114638e-03
6.040000e+02 1.213545e-03
6.050000e+02 1.320843e-03
6.060000e+02 1.437194e-03
6.070000e+02 1.563356e-03
6.080000e+02 1.700105e-03
6.090000e+02 1.848284e-03
6.100000e+02 2.008803e-03
6.110000e+02 2.182641e-03
6.120000e+02 2.370853e-03
6.130000e+02 2.574555e-03
6.140000e+02 2.794991e-03
6.150000e+02 3.033462e-03
6.160000e+02 3.291361e-03
6.170000e+02 3.570191e-03
6.180000e+02 3.871591e-03
6.190000e+02 4.197287e-03
6.200000e+02 4.549148e-03
6.210000e+02 4.929171e-03
6.220000e+02 5.339502e-03
6.230000e+02 5.782436e-03
6.240000e+02 6.260450e-03
6.250000e+02 6.776172e-03
6.260000e+02 7.332450e-03
6.270000e+02 7.932308e-03
6.280000e+02 8.578993e-03
6.290000e+02 9.275919e-03
6.300000e+02 1.002696e-02
6.310000e+02 1.083594e-02
6.320000e+02 1.170728e-02
6.330000e+02 1.264542e-02
6.340000e+02 1.365526e-02
6.350000e+02 1.474200e-02
6.360000e+02 1.584611e-02
6.370000e+02 1.716895e-02
6.380000e+02 1.852142e-02
6.390000e+02 1.997547e-02
6.400000e+02 2.153836e-02
6.410000e+02 2.321782e-02
6.420000e+02 2.502212e-02
6.430000e+02 2.695993e-02
6.440000e+02 2.904091e-02
6.450000e+02 3.127490e-02
6.460000e+02 3.367287e-02
6.470000e+02 3.624576e-02
6.480000e+02 3.900621e-02
6.490000e+02 4.196699e-02
6.500000e+02 4.514176e-02
6.510000e+02 4.854532e-02
6.520000e+02 5.219332e-02
6.530000e+02 5.610242e-02
6.540000e+02 6.029031e-02
6.550000e+02 6.477595e-02
6.560000e+02 6.957899e-02
6.570000e+02 7.471937e-02
6.580000e+02 8.022600e-02
6.590000e+02 8.611642e-02
6.600000e+02 9.241859e-02
6.610000e+02 9.915980e-02
6.620000e+02 1.063690e-01
6.630000e+02 1.140769e-01
6.640000e+02 1.223164e-01
6.650000e+02 1.311221e-01
6.660000e+02 1.405314e-01
6.670000e+02 1.505821e-01
6.680000e+02 1.613175e-01
6.690000e+02 1.727809e-01
6.700000e+02 1.850189e-01
6.710000e+02 1.980819e-01
6.720000e+02 2.119357e-01
6.730000e+02 2.268948e-01
6.740000e+02 2.427596e-01
6.750000e+02 2.596793e-01
6.760000e+02 2.777202e-01
6.770000e+02 2.969526e-01
6.780000e+02 3.174492e-01
6.790000e+02 3.392926e-01
6.800000e+02 3.625645e-01
6.810000e+02 3.873535e-01
6.820000e+02 4.137527e-01
6.830000e+02 4.418621e-01
6.840000e+02 4.717858e-01
6.850000e+02 5.036347e-01
6.860000e+02 5.375260e-01
6.870000e+02 5.735700e-01
6.880000e+02 6.119359e-01
6.890000e+02 6.527217e-01
6.900000e+02 6.961000e-01
6.910000e+02 7.422115e-01
6.920000e+02 7.912228e-01
6.930000e+02 8.433067e-01
6.940000e+02 8.986446e-01
6.950000e+02 9.574280e-01
6.960000e+02 1.019868e+00
6.970000e+02 1.086102e+00
6.980000e+02 1.156554e+00
6.990000e+02 1.231276e+00
7.000000e+02 1.310577e+00
7.010000e+02 1.394726e+00
7.020000e+02 1.484000e+00
7.030000e+02 1.578697e+00
7.040000e+02 1.679126e+00
7.050000e+02 1.785614e+00
7.060000e+02 1.898507e+00
7.070000e+02 2.018171e+00
7.080000e+02 2.144975e+00
7.090000e+02 2.279344e+00
7.100000e+02 2.421698e+00
7.110000e+02 2.572480e+00
7.120000e+02 2.732163e+00
7.130000e+02 2.901242e+00
7.140000e+02 3.080238e+00
7.150000e+02 3.269702e+00
7.160000e+02 3.470212e+00
7.170000e+02 3.682328e+00
7.180000e+02 3.906655e+00
7.190000e+02 4.144208e+00
7.200000e+02 4.395292e+00
7.210000e+02 4.660788e+00
7.220000e+02 4.941474e+00
7.230000e+02 5.238173e+00
7.240000e+02 5.551743e+00
7.250000e+02 5.883086e+00
7.260000e+02 6.233163e+00
7.270000e+02 6.602921e+00
7.280000e+02 6.993489e+00
7.290000e+02 7.405929e+00
7.300000e+02 7.841334e+00
7.310000e+02 8.301075e+00
7.320000e+02 8.786283e+00
7.330000e+02 9.298334e+00
7.340000e+02 9.838624e+00
7.350000e+02 1.040861e+01
7.360000e+02 1.100975e+01
7.370000e+02 1.164388e+01
7.380000e+02 1.231253e+01
7.390000e+02 1.301750e+01
7.400000e+02 1.376061e+01
7.410000e+02 1.454391e+01
7.420000e+02 1.536933e+01
7.430000e+02 1.623907e+01
7.440000e+02 1.715534e+01
7.450000e+02 1.812038e+01
7.460000e+02 1.913686e+01
7.470000e+02 2.020717e+01
7.480000e+02 2.133414e+01
7.490000e+02 2.252052e+01
7.500000e+02 2.376924e+01
7.510000e+02 2.508340e+01
7.520000e+02 2.646622e+01
7.530000e+02 2.792106e+01
7.540000e+02 2.945127e+01
7.550000e+02 3.106088e+01
7.560000e+02 3.275364e+01
7.570000e+02 3.453335e+01
7.580000e+02 3.640471e+01
7.590000e+02 3.837147e+01
7.600000e+02 4.043901e+01
7.610000e+02 4.261159e+01
7.620000e+02 4.489400e+01
7.630000e+02 4.729212e+01
7.640000e+02 4.981116e+01
7.650000e+02 5.245683e+01
7.660000e+02 5.523517e+01
7.670000e+02 5.815210e+01
7.680000e+02 6.121404e+01
7.690000e+02 6.442949e+01
7.700000e+02 6.780312e+01
7.710000e+02 7.134382e+01
7.720000e+02 7.505900e+01
7.730000e+02 7.895665e+01
7.740000e+02 8.304518e+01
7.750000e+02 8.733337e+01
7.760000e+02 9.182776e+01
7.770000e+02 9.654574e+01
7.780000e+02 1.014895e+02
7.790000e+02 1.066711e+02
7.800000e+02 1.121028e+02
7.810000e+02 1.177953e+02
7.820000e+02 1.237603e+02
7.830000e+02 1.300098e+02
7.840000e+02 1.365569e+02
7.850000e+02 1.434146e+02
7.860000e+02 1.505967e+02
7.870000e+02 1.581178e+02
7.880000e+02 1.659927e+02
7.890000e+02 1.742362e+02
7.900000e+02 1.828653e+02
7.910000e+02 1.918987e+02
7.920000e+02 2.013515e+02
7.930000e+02 2.112426e+02
7.940000e+02 2.215913e+02
7.950000e+02 2.324165e+02
7.960000e+02 2.437405e+02
7.970000e+02 2.555838e+02
7.980000e+02 2.679681e+02
7.990000e+02 2.809185e+02
8.000000e+02 2.944572e+02
8.010000e+02 3.086100e+02
8.020000e+02 3.234028e+02
8.030000e+02 3.388622e+02
8.040000e+02 3.550178e+02
8.050000e+02 3.718975e+02
8.060000e+02 3.895320e+02
8.070000e+02 4.079531e+02
8.080000e+02 4.271934e+02
8.090000e+02 4.472871e+02
8.100000e+02 4.682695e+02
8.110000e+02 4.901745e+02
8.120000e+02 5.130438e+02
8.130000e+02 5.369205e+02
8.140000e+02 5.618392e+02
8.150000e+02 5.878428e+02
8.160000e+02 6.149819e+02
8.170000e+02 6.432946e+02
8.180000e+02 6.728342e+02
8.190000e+02 7.036485e+02
8.200000e+02 7.357876e+02
8.210000e+02 7.693059e+02
8.220000e+02 8.042583e+02
8.230000e+02 8.407016e+02
8.240000e+02 8.786970e+02
8.250000e+02 9.183044e+02
8.260000e+02 9.595880e+02
8.270000e+02 1.002614e+03
8.280000e+02 1.047451e+03
8.290000e+02 1.094171e+03
8.300000e+02 1.142847e+03
8.310000e+02 1.193555e+03
8.320000e+02 1.246368e+03
8.330000e+02 1.301380e+03
8.340000e+02 1.358672e+03
8.350000e+02 1.417884e+03
8.360000e+02 1.480410e+03
8.370000e+02 1.545109e+03
8.380000e+02 1.612427e+03
8.390000e+02 1.682495e+03
8.400000e+02 1.755417e+03
8.410000e+02 1.831300e+03
8.420000e+02 1.910113e+03
8.430000e+02 1.992420e+03
8.440000e+02 2.077887e+03
8.450000e+02 2.166790e+03
8.460000e+02 2.259258e+03
8.470000e+02 2.355426e+03
8.480000e+02 2.455424e+03
8.490000e+02 2.559411e+03
8.500000e+02 2.667520e+03
8.510000e+02 2.779892e+03
8.520000e+02 2.896710e+03
8.530000e+02 3.018131e+03
8.540000e+02 3.144356e+03
8.550000e+02 3.275486e+03
8.560000e+02 3.411738e+03
8.570000e+02 3.553296e+03
8.580000e+02 3.700352e+03
8.590000e+02 3.853110e+03
8.600000e+02 4.011769e+03
8.610000e+02 4.176543e+03
8.620000e+02 4.347653e+03
8.630000e+02 4.525318e+03
8.640000e+02 4.709788e+03
8.650000e+02 4.901287e+03
8.660000e+02 5.100075e+03
8.670000e+02 5.306405e+03
8.680000e+02 5.520542e+03
8.690000e+02 5.742736e+03
8.700000e+02 5.973261e+03
8.710000e+02 6.212568e+03
8.720000e+02 6.460775e+03
8.730000e+02 6.718254e+03
8.740000e+02 6.985327e+03
8.750000e+02 7.262324e+03
8.760000e+02 7.549589e+03
8.770000e+02 7.847457e+03
8.780000e+02 8.156353e+03
8.790000e+02 8.476588e+03
8.800000e+02 8.808571e+03
8.810000e+02 9.152703e+03
8.820000e+02 9.509396e+03
8.830000e+02 9.879033e+03
8.840000e+02 1.026214e+04
8.850000e+02 1.065911e+04
8.860000e+02 1.107044e+04
8.870000e+02 1.149658e+04
8.880000e+02 1.193804e+04
8.890000e+02 1.239534e+04
8.900000e+02 1.286898e+04
8.910000e+02 1.335952e+04
8.920000e+02 1.380289e+04
8.930000e+02 1.439354e+04
8.940000e+02 1.493818e+04
8.950000e+02 1.550205e+04
8.960000e+02 1.608580e+04
8.970000e+02 1.668997e+04
8.980000e+02 1.731539e+04
8.990000e+02 1.796267e+04
9.000000e+02 1.863252e+04
9.010000e+02 1.932567e+04
9.020000e+02 2.004286e+04
9.030000e+02 2.078488e+04
9.040000e+02 2.155177e+04
9.050000e+02 2.234656e+04
9.060000e+02 2.316789e+04
9.070000e+02 2.401697e+04
9.080000e+02 2.489587e+04
9.090000e+02 2.580433e+04
9.100000e+02 2.674367e+04
9.110000e+02 2.771501e+04
9.120000e+02 2.872070e+04
9.130000e+02 2.880785e+04
9.140000e+02 3.220577e+04
9.150000e+02 3.481730e+05
9.160000e+02 3.342063e+06
9.170000e+02 6.343292e+06
9.180000e+02 5.930342e+06
9.190000e+02 7.151303e+06
9.200000e+02 7.450773e+06
9.210000e+02 3.706353e+04
9.220000e+02 7.824912e+06
9.230000e+02 7.042761e+06
9.240000e+02 3.732365e+06
9.250000e+02 7.886086e+06
9.260000e+02 8.126461e+06
9.270000e+02 8.807462e+06
9.280000e+02 9.083928e+06
9.290000e+02 4.215464e+06
9.300000e+02 9.055882e+06
9.310000e+02 9.087374e+06
9.320000e+02 1.005900e+07
9.330000e+02 1.021398e+07
9.340000e+02 1.055112e+07
9.350000e+02 3.459192e+06
9.360000e+02 1.089868e+07
9.370000e+02 2.261068e+06
9.380000e+02 5.207049e+06
9.390000e+02 1.186259e+07
9.400000e+02 1.219392e+07
9.410000e+02 9.628364e+06
9.420000e+02 1.279648e+07
9.430000e+02 1.309072e+07
9.440000e+02 4.859891e+06
9.450000e+02 1.365997e+07
9.460000e+02 1.404134e+07
9.470000e+02 4.968351e+06
9.480000e+02 1.454173e+07
9.490000e+02 1.433849e+07
9.500000e+02 1.582572e+06
9.510000e+02 1.223835e+07
9.520000e+02 1.612789e+07
9.530000e+02 1.644582e+07
9.540000e+02 8.294482e+06
9.550000e+02 1.736081e+07
9.560000e+02 1.806011e+07
9.570000e+02 1.548437e+07
9.580000e+02 1.784884e+07
9.590000e+02 1.926174e+07
9.600000e+02 3.825361e+06
9.610000e+02 2.031584e+07
9.620000e+02 2.048178e+07
9.630000e+02 2.124897e+07
9.640000e+02 1.964100e+05
9.650000e+02 1.489173e+07
9.660000e+02 2.270752e+07
9.670000e+02 2.314592e+07
9.680000e+02 2.280970e+07
9.690000e+02 2.358292e+07
9.700000e+02 2.443373e+07
9.710000e+02 2.405449e+07
9.720000e+02 1.680635e+07
9.730000e+02 1.549288e+07
9.740000e+02 2.516388e+07
9.750000e+02 2.727451e+07
9.760000e+02 2.823661e+07
9.770000e+02 2.891709e+07
9.780000e+02 2.950110e+07
9.790000e+02 3.036950e+07
9.800000e+02 3.106547e+07
9.810000e+02 3.180230e+07
9.820000e+02 3.136202e+07
9.830000e+02 3.314430e+07
9.840000e+02 2.274242e+06
9.850000e+02 3.468280e+07
9.860000e+02 3.543011e+07
9.870000e+02 3.611654e+07
9.880000e+02 3.627332e+07
9.890000e+02 1.017224e+07
9.900000e+02 5.650587e+05
9.910000e+02 3.805645e+07
9.920000e+02 3.627918e+07
9.930000e+02 3.517236e+07
9.940000e+02 2.704688e+06
9.950000e+02 1.426173e+06
9.960000e+02 3.477492e+06
9.970000e+02 2.677472e+06
9.980000e+02 4.489615e+07
9.990000e+02 4.424346e+07
1.000000e+03 4.779558e+07
1.001000e+03 4.881259e+07
1.002000e+03 4.974446e+07
1.003000e+03 3.155173e+07
1.004000e+03 5.193245e+07
1.005000e+03 3.690916e+07
1.006000e+03 5.409344e+07
1.007000e+03 5.522259e+07
1.008000e+03 5.619804e+07
1.009000e+03 4.738178e+07
1.010000e+03 5.861175e+07
1.011000e+03 5.977503e+07
1.012000e+03 6.089596e+07
1.013000e+03 6.215094e+07
1.014000e+03 6.332948e+07
1.015000e+03 5.851595e+07
1.016000e+03 6.526440e+07
1.017000e+03 6.671603e+07
1.018000e+03 6.784818e+07
1.019000e+03 6.876063e+07
1.020000e+03 6.937940e+07
1.021000e+03 6.252522e+07
1.022000e+03 6.775655e+07
1.023000e+03 6.556098e+07
1.024000e+03 5.369828e+07
1.025000e+03 1.995800e+07
1.026000e+03 4.075784e+06
1.027000e+03 4.459636e+07
1.028000e+03 1.901156e+07
1.029000e+03 7.781852e+07
1.030000e+03 7.883211e+07
1.031000e+03 8.690809e+07
1.032000e+03 8.685573e+07
1.033000e+03 5.317774e+07
1.034000e+03 9.465595e+07
1.035000e+03 1.402553e+07
1.036000e+03 9.586207e+07
1.037000e+03 2.033336e+06
1.038000e+03 1.028709e+08
1.039000e+03 1.027002e+08
1.040000e+03 1.077914e+08
1.041000e+03 1.095092e+08
1.042000e+03 9.953906e+07
1.043000e+03 1.134807e+08
1.044000e+03 1.155394e+08
1.045000e+03 1.184945e+08
1.046000e+03 1.213496e+08
1.047000e+03 1.238668e+08
1.048000e+03 1.230219e+08
1.049000e+03 1.269244e+08
1.050000e+03 1.313100e+08
1.051000e+03 1.338458e+08
1.052000e+03 1.364078e+08
1.053000e+03 1.281940e+08
1.054000e+03 1.415545e+08
1.055000e+03 1.442796e+08
1.056000e+03 1.471156e+08
1.057000e+03 1.497199e+08
1.058000e+03 1.526314e+08
1.059000e+03 1.555727e+08
1.060000e+03 1.584826e+08
1.061000e+03 1.614811e+08
1.062000e+03 1.644790e+08
1.063000e+03 1.292613e+08
1.064000e+03 1.775326e+07
1.065000e+03 1.817233e+08
1.066000e+03 1.846181e+08
1.067000e+03 1.589339e+08
1.068000e+03 1.918689e+08
1.069000e+03 1.951667e+08
1.070000e+03 1.875004e+08
1.071000e+03 2.036046e+08
1.072000e+03 2.072045e+08
1.073000e+03 2.110096e+08
1.074000e+03 2.148582e+08
1.075000e+03 2.182390e+08
1.076000e+03 2.227754e+08
1.077000e+03 2.263932e+08
1.078000e+03 2.309226e+08
1.079000e+03 2.304580e+08
1.080000e+03 2.382204e+08
1.081000e+03 2.435580e+08
1.082000e+03 2.470824e+08
1.083000e+03 2.523343e+08
1.084000e+03 1.245452e+08
1.085000e+03 1.866818e+08
1.086000e+03 2.660692e+08
1.087000e+03 2.704943e+08
1.088000e+03 2.710057e+08
1.089000e+03 2.800530e+08
1.090000e+03 2.844948e+08
1.091000e+03 2.898533e+08
1.092000e+03 2.950805e+08
1.093000e+03 2.990903e+08
1.094000e+03 3.057456e+08
1.095000e+03 3.088553e+08
1.096000e+03 3.162676e+08
1.097000e+03 3.111842e+08
1.098000e+03 3.174592e+08
1.099000e+03 3.319868e+08
1.100000e+03 3.194368e+08
1.101000e+03 3.057349e+08
1.102000e+03 8.169922e+08
1.103000e+03 3.153082e+09
1.104000e+03 8.934154e+08
1.105000e+03 3.361178e+08
1.106000e+03 8.185284e+09
1.107000e+03 7.671725e+09
1.108000e+03 8.422477e+09
1.109000e+03 2.905899e+09
1.110000e+03 3.447953e+08
1.111000e+03 8.671447e+08
1.112000e+03 7.225216e+09
1.113000e+03 8.899538e+09
1.114000e+03 2.345180e+08
1.115000e+03 8.077279e+09
1.116000e+03 8.745459e+09
1.117000e+03 2.098365e+08
1.118000e+03 7.049526e+09
1.119000e+03 9.023202e+09
1.120000e+03 9.202916e+09
1.121000e+03 3.379759e+09
1.122000e+03 1.837773e+07
1.123000e+03 9.668026e+08
1.124000e+03 9.398787e+09
1.125000e+03 1.610254e+09
1.126000e+03 9.797182e+09
1.127000e+03 8.189166e+09
1.128000e+03 4.657977e+09
1.129000e+03 9.809353e+09
1.130000e+03 4.340527e+09
1.131000e+03 1.052141e+10
1.132000e+03 5.733786e+07
1.133000e+03 9.608792e+09
1.134000e+03 9.225542e+09
1.135000e+03 4.470298e+07
1.136000e+03 1.032101e+10
1.137000e+03 1.104623e+10
1.138000e+03 1.148349e+10
1.139000e+03 1.119757e+10
1.140000e+03 5.618995e+07
1.141000e+03 1.190068e+10
1.142000e+03 9.305045e+09
1.143000e+03 1.190471e+10
1.144000e+03 1.210248e+10
1.145000e+03 5.563939e+09
1.146000e+03 1.227511e+10
1.147000e+03 1.146636e+10
1.148000e+03 1.177654e+10
1.149000e+03 1.261779e+10
1.150000e+03 1.018647e+10
1.151000e+03 1.239729e+10
1.152000e+03 1.243857e+10
1.153000e+03 1.261348e+09
1.154000e+03 8.860774e+07
1.155000e+03 8.972419e+09
1.156000e+03 4.646879e+09
1.157000e+03 1.354356e+10
1.158000e+03 1.579688e+08
1.159000e+03 1.078809e+10
1.160000e+03 1.386094e+10
1.161000e+03 1.432174e+10
1.162000e+03 4.237650e+08
1.163000e+03 1.282786e+10
1.164000e+03 4.302042e+08
1.165000e+03 1.469149e+10
1.166000e+03 1.376455e+10
1.167000e+03 1.062436e+10
1.168000e+03 1.493664e+10
1.169000e+03 1.384313e+10
1.170000e+03 1.510857e+10
1.171000e+03 1.517069e+10
1.172000e+03 1.232938e+10
1.173000e+03 1.514879e+10
1.174000e+03 1.417938e+10
1.175000e+03 3.623639e+08
1.176000e+03 1.677660e+08
1.177000e+03 1.459186e+10
1.178000e+03 1.169903e+10
1.179000e+03 1.513344e+10
1.180000e+03 9.729860e+09
1.181000e+03 1.365279e+10
1.182000e+03 1.493772e+10
1.183000e+03 1.477963e+10
1.184000e+03 1.469175e+10
1.185000e+03 1.314132e+10
1.186000e+03 1.431985e+10
1.187000e+03 1.410734e+10
1.188000e+03 1.261479e+10
1.189000e+03 1.282258e+08
1.190000e+03 3.434887e+09
1.191000e+03 1.209240e+10
1.192000e+03 1.198291e+10
1.193000e+03 7.468442e+07
1.194000e+03 1.517455e+08
1.195000e+03 3.237946e+09
1.196000e+03 1.036218e+10
1.197000e+03 9.610151e+09
1.198000e+03 9.694385e+09
1.199000e+03 8.924721e+09
1.200000e+03 7.052085e+09
1.201000e+03 7.501059e+09
1.202000e+03 7.199902e+09
1.203000e+03 6.588514e+09
1.204000e+03 5.682756e+09
1.205000e+03 5.007251e+09
1.206000e+03 3.726205e+09
1.207000e+03 2.854343e+09
1.208000e+03 2.798410e+09
1.209000e+03 2.034247e+09
1.210000e+03 3.444559e+08
1.211000e+03 1.073819e+09
1.212000e+03 6.772940e+08
1.213000e+03 3.923220e+08
1.214000e+03 2.140521e+08
1.215000e+03 1.203918e+08
1.216000e+03 1.005660e+08
1.217000e+03 1.829620e+08
1.218000e+03 3.472277e+08
1.219000e+03 6.358826e+08
1.220000e+03 1.069087e+09
1.221000e+03 1.649891e+09
1.222000e+03 2.372358e+09
1.223000e+03 3.227548e+09
1.224000e+03 4.205017e+09
1.225000e+03 5.295002e+09
1.226000e+03 6.434726e+09
1.227000e+03 7.702098e+09
1.228000e+03 9.140926e+09
1.229000e+03 1.055391e+10
1.230000e+03 1.202074e+10
1.231000e+03 1.362993e+10
1.232000e+03 1.524070e+10
1.233000e+03 1.688565e+10
1.234000e+03 8.544719e+09
1.235000e+03 2.020580e+10
1.236000e+03 2.195905e+10
1.237000e+03 2.361929e+10
1.238000e+03 2.539720e+10
1.239000e+03 2.714816e+10
1.240000e+03 2.714962e+10
1.241000e+03 3.806573e+10
1.242000e+03 2.806422e+10
1.243000e+03 3.805054e+10
1.244000e+03 1.870018e+10
1.245000e+03 2.895732e+10
1.246000e+03 5.635805e+10
1.247000e+03 6.248388e+10
1.248000e+03 2.300189e+10
1.249000e+03 2.956164e+10
1.250000e+03 7.452099e+10
1.251000e+03 7.709910e+10
1.252000e+03 7.878550e+10
1.253000e+03 8.753389e+10
1.254000e+03 8.943411e+10
1.255000e+03 9.454137e+10
1.256000e+03 9.842876e+10
1.257000e+03 1.052541e+11
1.258000e+03 1.064905e+11
1.259000e+03 9.764638e+10
1.260000e+03 7.098117e+10
1.261000e+03 3.022285e+08
1.262000e+03 1.504782e+10
1.263000e+03 1.234711e+11
1.264000e+03 9.691758e+10
1.265000e+03 2.086994e+08
1.266000e+03 1.293169e+11
1.267000e+03 1.494989e+11
