# wavelength_A flux
5.000000e+02 2.886790e-11
5.010000e+02 3.319263e-11
5.020000e+02 3.814329e-11
5.030000e+02 4.380728e-11
5.040000e+02 5.028376e-11
5.050000e+02 5.938840e-11
5.060000e+02 6.808070e-11
5.070000e+02 7.800179e-11
5.080000e+02 8.931919e-11
5.090000e+02 1.022259e-10
5.100000e+02 1.169293e-10
5.110000e+02 1.336756e-10
5.120000e+02 1.527373e-10
5.130000e+02 1.744234e-10
5.140000e+02 1.990821e-10
5.150000e+02 2.271032e-10
5.160000e+02 2.589386e-10
5.170000e+02 2.950646e-10
5.180000e+02 3.360855e-10
5.190000e+02 3.825936e-10
5.200000e+02 4.353129e-10
5.210000e+02 4.950417e-10
5.220000e+02 5.626081e-10
5.230000e+02 6.392336e-10
5.240000e+02 7.258405e-10
5.250000e+02 8.237749e-10
5.260000e+02 9.344503e-10
5.270000e+02 1.059470e-09
5.280000e+02 1.200625e-09
5.290000e+02 1.359543e-09
5.300000e+02 1.539600e-09
5.310000e+02 1.742179e-09
5.320000e+02 1.970471e-09
5.330000e+02 2.227603e-09
5.340000e+02 2.517090e-09
5.350000e+02 2.842850e-09
5.360000e+02 3.209234e-09
5.370000e+02 3.566161e-09
5.380000e+02 4.084047e-09
5.390000e+02 4.603988e-09
5.400000e+02 5.187919e-09
5.410000e+02 5.842627e-09
5.420000e+02 6.577960e-09
5.430000e+02 7.401928e-09
5.440000e+02 8.325364e-09
5.450000e+02 9.359820e-09
5.460000e+02 1.051616e-08
5.470000e+02 1.181456e-08
5.480000e+02 1.326491e-08
5.490000e+02 1.488688e-08
5.500000e+02 1.669985e-08
5.510000e+02 1.872555e-08
5.520000e+02 2.098791e-08
5.530000e+02 2.351354e-08
5.540000e+02 2.633189e-08
5.550000e+02 2.947557e-08
5.560000e+02 3.298070e-08
5.570000e+02 3.688719e-08
5.580000e+02 4.123924e-08
5.590000e+02 4.608566e-08
5.600000e+02 5.148043e-08
5.610000e+02 5.748318e-08
5.620000e+02 6.415974e-08
5.630000e+02 7.158273e-08
5.640000e+02 7.983235e-08
5.650000e+02 8.899679e-08
5.660000e+02 9.917428e-08
5.670000e+02 1.104714e-07
5.680000e+02 1.230071e-07
5.690000e+02 1.369115e-07
5.700000e+02 1.523278e-07
5.710000e+02 1.694149e-07
5.720000e+02 1.883456e-07
5.730000e+02 2.093113e-07
5.740000e+02 2.325220e-07
5.750000e+02 2.582133e-07
5.760000e+02 2.865801e-07
5.770000e+02 3.180528e-07
5.780000e+02 3.527893e-07
5.790000e+02 3.911740e-07
5.800000e+02 4.335744e-07
5.810000e+02 4.803935e-07
5.820000e+02 5.320720e-07
5.830000e+02 5.890882e-07
5.840000e+02 6.517614e-07
5.850000e+02 7.212942e-07
5.860000e+02 7.977984e-07
5.870000e+02 8.820410e-07
5.880000e+02 9.748283e-07
5.890000e+02 1.076970e-06
5.900000e+02 1.189447e-06
5.910000e+02 1.313177e-06
5.920000e+02 1.449287e-06
5.930000e+02 1.598944e-06
5.940000e+02 1.763447e-06
5.950000e+02 1.944135e-06
5.960000e+02 2.142770e-06
5.970000e+02 2.360808e-06
5.980000e+02 2.600157e-06
5.990000e+02 2.862810e-06
6.000000e+02 3.150943e-06
6.010000e+02 3.466035e-06
6.020000e+02 3.813332e-06
6.030000e+02 4.192963e-06
6.040000e+02 4.608900e-06
6.050000e+02 5.064438e-06
6.060000e+02 5.563189e-06
6.070000e+02 6.109108e-06
6.080000e+02 6.706437e-06
6.090000e+02 7.359821e-06
6.100000e+02 8.074281e-06
6.110000e+02 8.855338e-06
6.120000e+02 9.708875e-06
6.130000e+02 1.064135e-05
6.140000e+02 1.165976e-05
6.150000e+02 1.277167e-05
6.160000e+02 1.398531e-05
6.170000e+02 1.530959e-05
6.180000e+02 1.675414e-05
6.190000e+02 1.832943e-05
6.200000e+02 2.004677e-05
6.210000e+02 2.191841e-05
6.220000e+02 2.395764e-05
6.230000e+02 2.617880e-05
6.240000e+02 2.859741e-05
6.250000e+02 3.123026e-05
6.260000e+02 3.409549e-05
6.270000e+02 3.721273e-05
6.280000e+02 4.060316e-05
6.290000e+02 4.428967e-05
6.300000e+02 4.829701e-05
6.310000e+02 5.265042e-05
6.320000e+02 5.738299e-05
6.330000e+02 6.252137e-05
6.340000e+02 6.810096e-05
6.350000e+02 7.415741e-05
6.360000e+02 8.061568e-05
6.370000e+02 8.786059e-05
6.380000e+02 9.559456e-05
6.390000e+02 1.039806e-04
6.400000e+02 1.130714e-04
6.410000e+02 1.229233e-04
6.420000e+02 1.335973e-04
6.430000e+02 1.451589e-04
6.440000e+02 1.576786e-04
6.450000e+02 1.712321e-04
6.460000e+02 1.859013e-04
6.470000e+02 2.017734e-04
6.480000e+02 2.189430e-04
6.490000e+02 2.375110e-04
6.500000e+02 2.575862e-04
6.510000e+02 2.792855e-04
6.520000e+02 3.027344e-04
6.530000e+02 3.280672e-04
6.540000e+02 3.554288e-04
6.550000e+02 3.849737e-04
6.560000e+02 4.168686e-04
6.570000e+02 4.512804e-04
6.580000e+02 4.884339e-04
6.590000e+02 5.285005e-04
6.600000e+02 5.717078e-04
6.610000e+02 6.183003e-04
6.620000e+02 6.685209e-04
6.630000e+02 7.226425e-04
6.640000e+02 7.809542e-04
6.650000e+02 8.437622e-04
6.660000e+02 9.114062e-04
6.670000e+02 9.842311e-04
6.680000e+02 1.062620e-03
6.690000e+02 1.146977e-03
6.700000e+02 1.237735e-03
6.710000e+02 1.335357e-03
6.720000e+02 1.440336e-03
6.730000e+02 1.553208e-03
6.740000e+02 1.674529e-03
6.750000e+02 1.804906e-03
6.760000e+02 1.944981e-03
6.770000e+02 2.095443e-03
6.780000e+02 2.257025e-03
6.790000e+02 2.430510e-03
6.800000e+02 2.616733e-03
6.810000e+02 2.816583e-03
6.820000e+02 3.031012e-03
6.830000e+02 3.261031e-03
6.840000e+02 3.507721e-03
6.850000e+02 3.772204e-03
6.860000e+02 4.055785e-03
6.870000e+02 4.359659e-03
6.880000e+02 4.685334e-03
6.890000e+02 5.034200e-03
6.900000e+02 5.407860e-03
6.910000e+02 5.807997e-03
6.920000e+02 6.236389e-03
6.930000e+02 6.694937e-03
6.940000e+02 7.185661e-03
6.950000e+02 7.710707e-03
6.960000e+02 8.272359e-03
6.970000e+02 8.872910e-03
6.980000e+02 9.515342e-03
6.990000e+02 1.020200e-02
7.000000e+02 1.093591e-02
7.010000e+02 1.172019e-02
7.020000e+02 1.255812e-02
7.030000e+02 1.345318e-02
7.040000e+02 1.440907e-02
7.050000e+02 1.542973e-02
7.060000e+02 1.651929e-02
7.070000e+02 1.768228e-02
7.080000e+02 1.892329e-02
7.090000e+02 2.024718e-02
7.100000e+02 2.165968e-02
7.110000e+02 2.316594e-02
7.120000e+02 2.477203e-02
7.130000e+02 2.648424e-02
7.140000e+02 2.830923e-02
7.150000e+02 3.025402e-02
7.160000e+02 3.232618e-02
7.170000e+02 3.453339e-02
7.180000e+02 3.688395e-02
7.190000e+02 3.938787e-02
7.200000e+02 4.205312e-02
7.210000e+02 4.489016e-02
7.220000e+02 4.790949e-02
7.230000e+02 5.112224e-02
7.240000e+02 5.454014e-02
7.250000e+02 5.817563e-02
7.260000e+02 6.204163e-02
7.270000e+02 6.615275e-02
7.280000e+02 7.052293e-02
7.290000e+02 7.516794e-02
7.300000e+02 8.010418e-02
7.310000e+02 8.534896e-02
7.320000e+02 9.092056e-02
7.330000e+02 9.683830e-02
7.340000e+02 1.031226e-01
7.350000e+02 1.097949e-01
7.360000e+02 1.168779e-01
7.370000e+02 1.243958e-01
7.380000e+02 1.323737e-01
7.390000e+02 1.408383e-01
7.400000e+02 1.498169e-01
7.410000e+02 1.593416e-01
7.420000e+02 1.694403e-01
7.430000e+02 1.801498e-01
7.440000e+02 1.915019e-01
7.450000e+02 2.035342e-01
7.460000e+02 2.162853e-01
7.470000e+02 2.297959e-01
7.480000e+02 2.441087e-01
7.490000e+02 2.592690e-01
7.500000e+02 2.753242e-01
7.510000e+02 2.923244e-01
7.520000e+02 3.103221e-01
7.530000e+02 3.293728e-01
7.540000e+02 3.495349e-01
7.550000e+02 3.708696e-01
7.560000e+02 3.934417e-01
7.570000e+02 4.173033e-01
7.580000e+02 4.425723e-01
7.590000e+02 4.692754e-01
7.600000e+02 4.975131e-01
7.610000e+02 5.273631e-01
7.620000e+02 5.589139e-01
7.630000e+02 5.922566e-01
7.640000e+02 6.274880e-01
7.650000e+02 6.647086e-01
7.660000e+02 7.040267e-01
7.670000e+02 7.455519e-01
7.680000e+02 7.893973e-01
7.690000e+02 8.357008e-01
7.700000e+02 8.845766e-01
7.710000e+02 9.361649e-01
7.720000e+02 9.906087e-01
7.730000e+02 1.048057e+00
7.740000e+02 1.108666e+00
7.750000e+02 1.172600e+00
7.760000e+02 1.239824e+00
7.770000e+02 1.311144e+00
7.780000e+02 1.386123e+00
7.790000e+02 1.465170e+00
7.800000e+02 1.548491e+00
7.810000e+02 1.636306e+00
7.820000e+02 1.728844e+00
7.830000e+02 1.826343e+00
7.840000e+02 1.929057e+00
7.850000e+02 2.037247e+00
7.860000e+02 2.151185e+00
7.870000e+02 2.271179e+00
7.880000e+02 2.397506e+00
7.890000e+02 2.530493e+00
7.900000e+02 2.670470e+00
7.910000e+02 2.817785e+00
7.920000e+02 2.972801e+00
7.930000e+02 3.135897e+00
7.940000e+02 3.307470e+00
7.950000e+02 3.487937e+00
7.960000e+02 3.677731e+00
7.970000e+02 3.877308e+00
7.980000e+02 4.087142e+00
7.990000e+02 4.307730e+00
8.000000e+02 4.539596e+00
8.010000e+02 4.783261e+00
8.020000e+02 5.039347e+00
8.030000e+02 5.308395e+00
8.040000e+02 5.591042e+00
8.050000e+02 5.887936e+00
8.060000e+02 6.199752e+00
8.070000e+02 6.527200e+00
8.080000e+02 6.871016e+00
8.090000e+02 7.231970e+00
8.100000e+02 7.610869e+00
8.110000e+02 8.008552e+00
8.120000e+02 8.425892e+00
8.130000e+02 8.863811e+00
8.140000e+02 9.323262e+00
8.150000e+02 9.805226e+00
8.160000e+02 1.031079e+01
8.170000e+02 1.084097e+01
8.180000e+02 1.139697e+01
8.190000e+02 1.197992e+01
8.200000e+02 1.259106e+01
8.210000e+02 1.323168e+01
8.220000e+02 1.390311e+01
8.230000e+02 1.460676e+01
8.240000e+02 1.534407e+01
8.250000e+02 1.611656e+01
8.260000e+02 1.692580e+01
8.270000e+02 1.777345e+01
8.280000e+02 1.866122e+01
8.290000e+02 1.959088e+01
8.300000e+02 2.056431e+01
8.310000e+02 2.158344e+01
8.320000e+02 2.265028e+01
8.330000e+02 2.376693e+01
8.340000e+02 2.493558e+01
8.350000e+02 2.615615e+01
8.360000e+02 2.743795e+01
8.370000e+02 2.877676e+01
8.380000e+02 3.017644e+01
8.390000e+02 3.164181e+01
8.400000e+02 3.317363e+01
8.410000e+02 3.477544e+01
8.420000e+02 3.644961e+01
8.430000e+02 3.820126e+01
8.440000e+02 4.003163e+01
8.450000e+02 4.194477e+01
8.460000e+02 4.394419e+01
8.470000e+02 4.603355e+01
8.480000e+02 4.821664e+01
8.490000e+02 5.049741e+01
8.500000e+02 5.287996e+01
8.510000e+02 5.536856e+01
8.520000e+02 5.796749e+01
8.530000e+02 6.068174e+01
8.540000e+02 6.351606e+01
8.550000e+02 6.647488e+01
8.560000e+02 6.956367e+01
8.570000e+02 7.278780e+01
8.580000e+02 7.615279e+01
8.590000e+02 7.966447e+01
8.600000e+02 8.332880e+01
8.610000e+02 8.715199e+01
8.620000e+02 9.114052e+01
8.630000e+02 9.530089e+01
8.640000e+02 9.964060e+01
8.650000e+02 1.041659e+02
8.660000e+02 1.088858e+02
8.670000e+02 1.138066e+02
8.680000e+02 1.189370e+02
8.690000e+02 1.242853e+02
8.700000e+02 1.298601e+02
8.710000e+02 1.356704e+02
8.720000e+02 1.417255e+02
8.730000e+02 1.480352e+02
8.740000e+02 1.546094e+02
8.750000e+02 1.614585e+02
8.760000e+02 1.685932e+02
8.770000e+02 1.760240e+02
8.780000e+02 1.837646e+02
8.790000e+02 1.918249e+02
8.800000e+02 2.002178e+02
8.810000e+02 2.089565e+02
8.820000e+02 2.180540e+02
8.830000e+02 2.275242e+02
8.840000e+02 2.373814e+02
8.850000e+02 2.476405e+02
8.860000e+02 2.583166e+02
8.870000e+02 2.694256e+02
8.880000e+02 2.809841e+02
8.890000e+02 2.930089e+02
8.900000e+02 3.055177e+02
8.910000e+02 3.185287e+02
8.920000e+02 3.316302e+02
8.930000e+02 3.461331e+02
8.940000e+02 3.607662e+02
8.950000e+02 3.759807e+02
8.960000e+02 3.917989e+02
8.970000e+02 4.082423e+02
8.980000e+02 4.253344e+02
8.990000e+02 4.430989e+02
9.000000e+02 4.615607e+02
9.010000e+02 4.807452e+02
9.020000e+02 5.006790e+02
9.030000e+02 5.213889e+02
9.040000e+02 5.428983e+02
9.050000e+02 5.652511e+02
9.060000e+02 5.884662e+02
9.070000e+02 6.125615e+02
9.080000e+02 6.376105e+02
9.090000e+02 6.636073e+02
9.100000e+02 6.905993e+02
9.110000e+02 7.186252e+02
9.120000e+02 7.477354e+02
9.130000e+02 7.662361e+02
9.140000e+02 8.272158e+02
9.150000e+02 4.757945e+03
9.160000e+02 1.066945e+04
9.170000e+02 1.104915e+04
9.180000e+02 1.133555e+04
9.190000e+02 1.185776e+04
9.200000e+02 1.226397e+04
9.210000e+02 1.037661e+03
9.220000e+02 1.307694e+04
9.230000e+02 1.337323e+04
9.240000e+02 1.325546e+04
9.250000e+02 1.423802e+04
9.260000e+02 1.481120e+04
9.270000e+02 1.536325e+04
9.280000e+02 1.588872e+04
9.290000e+02 1.615235e+04
9.300000e+02 1.673329e+04
9.310000e+02 1.732798e+04
9.320000e+02 1.806076e+04
9.330000e+02 1.860086e+04
9.340000e+02 1.922174e+04
9.350000e+02 5.261017e+03
9.360000e+02 2.042872e+04
9.370000e+02 3.952524e+03
9.380000e+02 8.399094e+03
9.390000e+02 2.248403e+04
9.400000e+02 2.324322e+04
9.410000e+02 9.196812e+03
9.420000e+02 2.475003e+04
9.430000e+02 2.545862e+04
9.440000e+02 1.955630e+04
9.450000e+02 2.715447e+04
9.460000e+02 2.800789e+04
9.470000e+02 1.827673e+04
9.480000e+02 2.168145e+04
9.490000e+02 3.046980e+04
9.500000e+02 5.737928e+03
9.510000e+02 3.198990e+04
9.520000e+02 3.369200e+04
9.530000e+02 3.430697e+04
9.540000e+02 2.975173e+04
9.550000e+02 3.694614e+04
9.560000e+02 2.354925e+04
9.570000e+02 2.752579e+04
9.580000e+02 3.992829e+04
9.590000e+02 4.188116e+04
9.600000e+02 8.898180e+03
9.610000e+02 4.421861e+04
9.620000e+02 4.581443e+04
9.630000e+02 4.724602e+04
9.640000e+02 5.554613e+03
9.650000e+02 4.620975e+04
9.660000e+02 5.166416e+04
9.670000e+02 5.270938e+04
9.680000e+02 5.446176e+04
9.690000e+02 5.614718e+04
9.700000e+02 5.800450e+04
9.710000e+02 5.924564e+04
9.720000e+02 5.681444e+04
9.730000e+02 5.717404e+04
9.740000e+02 6.443755e+04
9.750000e+02 6.716006e+04
9.760000e+02 6.929159e+04
9.770000e+02 7.144325e+04
9.780000e+02 7.338255e+04
9.790000e+02 7.577770e+04
9.800000e+02 7.798246e+04
9.810000e+02 8.029185e+04
9.820000e+02 8.242494e+04
9.830000e+02 8.503250e+04
9.840000e+02 4.082645e+04
9.850000e+02 9.004545e+04
9.860000e+02 9.263507e+04
9.870000e+02 9.536417e+04
9.880000e+02 9.740969e+04
9.890000e+02 8.682660e+04
9.900000e+02 1.648695e+04
9.910000e+02 1.058711e+05
9.920000e+02 9.420481e+04
9.930000e+02 1.064986e+05
9.940000e+02 1.995186e+04
9.950000e+02 3.918002e+04
9.960000e+02 7.999048e+04
9.970000e+02 2.734849e+04
9.980000e+02 1.297582e+05
9.990000e+02 1.310530e+05
1.000000e+03 1.374659e+05
1.001000e+03 1.413476e+05
1.002000e+03 1.452704e+05
1.003000e+03 1.440545e+05
1.004000e+03 1.528919e+05
1.005000e+03 1.488455e+05
1.006000e+03 1.621695e+05
1.007000e+03 1.657350e+05
1.008000e+03 1.708725e+05
1.009000e+03 1.737520e+05
1.010000e+03 1.807863e+05
1.011000e+03 1.857341e+05
1.012000e+03 1.907942e+05
1.013000e+03 1.959855e+05
1.014000e+03 1.966504e+05
1.015000e+03 2.039414e+05
1.016000e+03 2.118228e+05
1.017000e+03 2.136361e+05
1.018000e+03 2.233418e+05
1.019000e+03 2.280197e+05
1.020000e+03 2.351755e+05
1.021000e+03 1.285380e+05
1.022000e+03 2.251570e+05
1.023000e+03 2.475722e+05
1.024000e+03 2.177235e+05
1.025000e+03 1.899209e+05
1.026000e+03 9.430971e+04
1.027000e+03 2.375112e+05
1.028000e+03 7.921102e+04
1.029000e+03 2.891325e+05
1.030000e+03 2.996201e+05
1.031000e+03 3.136278e+05
1.032000e+03 3.201725e+05
1.033000e+03 1.587601e+05
1.034000e+03 3.409669e+05
1.035000e+03 8.031319e+04
1.036000e+03 3.225779e+05
1.037000e+03 6.727731e+04
1.038000e+03 3.789288e+05
1.039000e+03 3.857578e+05
1.040000e+03 3.990453e+05
1.041000e+03 4.036407e+05
1.042000e+03 4.186309e+05
1.043000e+03 4.162512e+05
1.044000e+03 4.417343e+05
1.045000e+03 4.529098e+05
1.046000e+03 4.654588e+05
1.047000e+03 4.770920e+05
1.048000e+03 4.869791e+05
1.049000e+03 4.801147e+05
1.050000e+03 5.147266e+05
1.051000e+03 5.277691e+05
1.052000e+03 5.415770e+05
1.053000e+03 5.526514e+05
1.054000e+03 5.533164e+05
1.055000e+03 5.545744e+05
1.056000e+03 5.985051e+05
1.057000e+03 6.133426e+05
1.058000e+03 6.284500e+05
1.059000e+03 6.432631e+05
1.060000e+03 6.583082e+05
1.061000e+03 6.771914e+05
1.062000e+03 6.936506e+05
1.063000e+03 2.328082e+05
1.064000e+03 1.635236e+05
1.065000e+03 7.374628e+05
1.066000e+03 5.155298e+05
1.067000e+03 7.764572e+05
1.068000e+03 8.059815e+05
1.069000e+03 7.966296e+05
1.070000e+03 8.423428e+05
1.071000e+03 8.669998e+05
1.072000e+03 8.881134e+05
1.073000e+03 8.997562e+05
1.074000e+03 9.315396e+05
1.075000e+03 9.539024e+05
1.076000e+03 9.775266e+05
1.077000e+03 9.981609e+05
1.078000e+03 1.024599e+06
1.079000e+03 1.047996e+06
1.080000e+03 1.074877e+06
1.081000e+03 1.100803e+06
1.082000e+03 1.126613e+06
1.083000e+03 1.153031e+06
1.084000e+03 1.180713e+06
1.085000e+03 8.526609e+05
1.086000e+03 1.238144e+06
1.087000e+03 1.264327e+06
1.088000e+03 1.293517e+06
1.089000e+03 1.327490e+06
1.090000e+03 1.357056e+06
1.091000e+03 1.384033e+06
1.092000e+03 1.422652e+06
1.093000e+03 1.454874e+06
1.094000e+03 1.489649e+06
1.095000e+03 1.523828e+06
1.096000e+03 1.559094e+06
1.097000e+03 1.535130e+06
1.098000e+03 1.592510e+06
1.099000e+03 1.668778e+06
1.100000e+03 1.581825e+06
1.101000e+03 1.595676e+06
1.102000e+03 3.524537e+06
1.103000e+03 1.089958e+07
1.104000e+03 4.763492e+06
1.105000e+03 1.748566e+06
1.106000e+03 2.724762e+07
1.107000e+03 2.105469e+07
1.108000e+03 2.726427e+07
1.109000e+03 1.594518e+07
1.110000e+03 8.344671e+06
1.111000e+03 4.147918e+06
1.112000e+03 2.433602e+07
1.113000e+03 3.121694e+07
1.114000e+03 1.444440e+06
1.115000e+03 3.010189e+07
1.116000e+03 3.091603e+07
1.117000e+03 1.713082e+06
1.118000e+03 2.043382e+07
1.119000e+03 3.429271e+07
1.120000e+03 3.340639e+07
1.121000e+03 3.322005e+07
1.122000e+03 6.463100e+05
1.123000e+03 2.970542e+06
1.124000e+03 3.737281e+07
1.125000e+03 2.140951e+07
1.126000e+03 3.884945e+07
1.127000e+03 3.811485e+07
1.128000e+03 2.038702e+07
1.129000e+03 3.959562e+07
1.130000e+03 3.165935e+07
1.131000e+03 4.241145e+07
1.132000e+03 1.870288e+06
1.133000e+03 3.459999e+07
1.134000e+03 4.039184e+07
1.135000e+03 1.036052e+06
1.136000e+03 4.512773e+07
1.137000e+03 4.693235e+07
1.138000e+03 4.751426e+07
1.139000e+03 4.737848e+07
1.140000e+03 1.228464e+06
1.141000e+03 5.029560e+07
1.142000e+03 5.071773e+07
1.143000e+03 5.190469e+07
1.144000e+03 5.294860e+07
1.145000e+03 4.107077e+07
1.146000e+03 5.472833e+07
1.147000e+03 5.487378e+07
1.148000e+03 5.396022e+07
1.149000e+03 5.747899e+07
1.150000e+03 5.783369e+07
1.151000e+03 5.914010e+07
1.152000e+03 6.043053e+07
1.153000e+03 2.085718e+07
1.154000e+03 4.723160e+06
1.155000e+03 4.400168e+07
1.156000e+03 1.080169e+07
1.157000e+03 6.544146e+07
1.158000e+03 1.850974e+06
1.159000e+03 5.137233e+07
1.160000e+03 6.723218e+07
1.161000e+03 7.034076e+07
1.162000e+03 2.014126e+07
1.163000e+03 7.161470e+07
1.164000e+03 2.858936e+06
1.165000e+03 7.515352e+07
1.166000e+03 7.621458e+07
1.167000e+03 7.713631e+07
1.168000e+03 7.952096e+07
1.169000e+03 7.821657e+07
1.170000e+03 8.241754e+07
1.171000e+03 8.399131e+07
1.172000e+03 8.466805e+07
1.173000e+03 8.701187e+07
1.174000e+03 8.346138e+07
1.175000e+03 3.447616e+06
1.176000e+03 2.903392e+06
1.177000e+03 9.327658e+07
1.178000e+03 9.213350e+07
1.179000e+03 9.654168e+07
1.180000e+03 8.044719e+07
1.181000e+03 9.942198e+07
1.182000e+03 1.015901e+08
1.183000e+03 1.030593e+08
1.184000e+03 1.045606e+08
1.185000e+03 1.050556e+08
1.186000e+03 1.063433e+08
1.187000e+03 1.090439e+08
1.188000e+03 1.095284e+08
1.189000e+03 3.623896e+06
1.190000e+03 1.158744e+07
1.191000e+03 1.120398e+08
1.192000e+03 1.130795e+08
1.193000e+03 3.387848e+06
1.194000e+03 4.220536e+06
1.195000e+03 9.350739e+07
1.196000e+03 1.161031e+08
1.197000e+03 1.613780e+08
1.198000e+03 1.608420e+08
1.199000e+03 1.583273e+08
1.200000e+03 1.418986e+08
1.201000e+03 1.488415e+08
1.202000e+03 1.467847e+08
1.203000e+03 1.740336e+08
1.204000e+03 1.572528e+08
1.205000e+03 1.467147e+08
1.206000e+03 1.349589e+08
1.207000e+03 2.324843e+07
1.208000e+03 1.006360e+08
1.209000e+03 7.679033e+07
1.210000e+03 6.413268e+06
1.211000e+03 4.466546e+07
1.212000e+03 2.800092e+07
1.213000e+03 1.780595e+07
1.214000e+03 1.028931e+07
1.215000e+03 6.437030e+06
1.216000e+03 5.829793e+06
1.217000e+03 9.090945e+06
1.218000e+03 1.622230e+07
1.219000e+03 2.852064e+07
1.220000e+03 4.614479e+07
1.221000e+03 6.848846e+07
1.222000e+03 9.432243e+07
1.223000e+03 1.226329e+08
1.224000e+03 1.530285e+08
1.225000e+03 1.821271e+08
1.226000e+03 2.159332e+08
1.227000e+03 2.454464e+08
1.228000e+03 2.795384e+08
1.229000e+03 3.129935e+08
1.230000e+03 3.406885e+08
1.231000e+03 3.724881e+08
1.232000e+03 4.085237e+08
1.233000e+03 4.392138e+08
1.234000e+03 2.816938e+08
1.235000e+03 4.977292e+08
1.236000e+03 5.168858e+08
1.237000e+03 5.540510e+08
1.238000e+03 5.805366e+08
1.239000e+03 6.065909e+08
1.240000e+03 5.779329e+08
1.241000e+03 9.985304e+08
1.242000e+03 5.803995e+08
1.243000e+03 8.300769e+08
1.244000e+03 3.727219e+08
1.245000e+03 5.445955e+08
1.246000e+03 1.567822e+09
1.247000e+03 1.582133e+09
1.248000e+03 4.041478e+08
1.249000e+03 4.962783e+08
1.250000e+03 1.918342e+09
1.251000e+03 2.009783e+09
1.252000e+03 2.064142e+09
1.253000e+03 2.198575e+09
1.254000e+03 2.239395e+09
1.255000e+03 2.340564e+09
1.256000e+03 2.378884e+09
1.257000e+03 2.513987e+09
1.258000e+03 2.446982e+09
1.259000e+03 2.498273e+09
1.260000e+03 1.959434e+09
1.261000e+03 1.459563e+07
1.262000e+03 2.549080e+08
1.263000e+03 2.816104e+09
1.264000e+03 2.451290e+09
1.265000e+03 1.491315e+07
1.266000e+03 3.030329e+09
1.267000e+03 3.170166e+09
