# wavelength_A flux
5.000000e+02 7.153850e-05
5.010000e+02 7.988559e-05
5.020000e+02 8.916570e-05
5.030000e+02 9.947845e-05
5.040000e+02 1.109337e-04
5.050000e+02 1.257268e-04
5.060000e+02 1.400615e-04
5.070000e+02 1.559613e-04
5.080000e+02 1.735895e-04
5.090000e+02 1.931286e-04
5.100000e+02 2.147698e-04
5.110000e+02 2.387326e-04
5.120000e+02 2.652547e-04
5.130000e+02 2.945970e-04
5.140000e+02 3.270458e-04
5.150000e+02 3.629128e-04
5.160000e+02 4.025490e-04
5.170000e+02 4.463127e-04
5.180000e+02 4.946547e-04
5.190000e+02 5.479915e-04
5.200000e+02 6.068299e-04
5.210000e+02 6.717104e-04
5.220000e+02 7.431701e-04
5.230000e+02 8.220228e-04
5.240000e+02 9.088062e-04
5.250000e+02 1.004365e-03
5.260000e+02 1.109521e-03
5.270000e+02 1.225202e-03
5.280000e+02 1.352413e-03
5.290000e+02 1.492028e-03
5.300000e+02 1.645908e-03
5.310000e+02 1.814688e-03
5.320000e+02 2.000011e-03
5.330000e+02 2.203416e-03
5.340000e+02 2.426586e-03
5.350000e+02 2.671351e-03
5.360000e+02 2.939689e-03
5.370000e+02 3.206349e-03
5.380000e+02 3.555970e-03
5.390000e+02 3.908894e-03
5.400000e+02 4.295222e-03
5.410000e+02 4.717763e-03
5.420000e+02 5.180486e-03
5.430000e+02 5.686326e-03
5.440000e+02 6.239282e-03
5.450000e+02 6.843568e-03
5.460000e+02 7.502869e-03
5.470000e+02 8.224656e-03
5.480000e+02 9.011678e-03
5.490000e+02 9.870608e-03
5.500000e+02 1.080764e-02
5.510000e+02 1.182954e-02
5.520000e+02 1.294363e-02
5.530000e+02 1.415782e-02
5.540000e+02 1.548066e-02
5.550000e+02 1.692138e-02
5.560000e+02 1.848999e-02
5.570000e+02 2.019726e-02
5.580000e+02 2.205487e-02
5.590000e+02 2.407537e-02
5.600000e+02 2.627236e-02
5.610000e+02 2.866047e-02
5.620000e+02 3.125552e-02
5.630000e+02 3.407453e-02
5.640000e+02 3.713586e-02
5.650000e+02 4.045928e-02
5.660000e+02 4.406618e-02
5.670000e+02 4.797943e-02
5.680000e+02 5.222379e-02
5.690000e+02 5.682584e-02
5.700000e+02 6.181413e-02
5.710000e+02 6.721967e-02
5.720000e+02 7.307534e-02
5.730000e+02 7.941682e-02
5.740000e+02 8.628234e-02
5.750000e+02 9.371395e-02
5.760000e+02 1.017467e-01
5.770000e+02 1.104506e-01
5.780000e+02 1.198549e-01
5.790000e+02 1.300212e-01
5.800000e+02 1.410083e-01
5.810000e+02 1.528789e-01
5.820000e+02 1.657003e-01
5.830000e+02 1.795437e-01
5.840000e+02 1.944531e-01
5.850000e+02 2.106102e-01
5.860000e+02 2.280204e-01
5.870000e+02 2.467905e-01
5.880000e+02 2.670292e-01
5.890000e+02 2.888438e-01
5.900000e+02 3.123581e-01
5.910000e+02 3.376899e-01
5.920000e+02 3.649748e-01
5.930000e+02 3.943556e-01
5.940000e+02 4.259847e-01
5.950000e+02 4.600179e-01
5.960000e+02 4.966506e-01
5.970000e+02 5.360475e-01
5.980000e+02 5.784141e-01
5.990000e+02 6.239624e-01
6.000000e+02 6.729184e-01
6.010000e+02 7.255113e-01
6.020000e+02 7.820350e-01
6.030000e+02 8.427274e-01
6.040000e+02 9.078931e-01
6.050000e+02 9.778453e-01
6.060000e+02 1.052913e+00
6.070000e+02 1.133457e+00
6.080000e+02 1.219847e+00
6.090000e+02 1.312490e+00
6.100000e+02 1.411810e+00
6.110000e+02 1.518264e+00
6.120000e+02 1.632337e+00
6.130000e+02 1.754543e+00
6.140000e+02 1.885430e+00
6.150000e+02 2.025583e+00
6.160000e+02 2.175619e+00
6.170000e+02 2.336198e+00
6.180000e+02 2.508019e+00
6.190000e+02 2.691825e+00
6.200000e+02 2.888408e+00
6.210000e+02 3.098605e+00
6.220000e+02 3.323306e+00
6.230000e+02 3.563457e+00
6.240000e+02 3.820060e+00
6.250000e+02 4.094179e+00
6.260000e+02 4.386943e+00
6.270000e+02 4.699549e+00
6.280000e+02 5.033266e+00
6.290000e+02 5.389439e+00
6.300000e+02 5.769493e+00
6.310000e+02 6.174662e+00
6.320000e+02 6.607378e+00
6.330000e+02 7.068494e+00
6.340000e+02 7.560113e+00
6.350000e+02 8.084093e+00
6.360000e+02 8.637836e+00
6.370000e+02 9.237390e+00
6.380000e+02 9.871066e+00
6.390000e+02 1.054590e+01
6.400000e+02 1.126440e+01
6.410000e+02 1.202925e+01
6.420000e+02 1.284324e+01
6.430000e+02 1.370937e+01
6.440000e+02 1.463077e+01
6.450000e+02 1.561075e+01
6.460000e+02 1.665287e+01
6.470000e+02 1.776076e+01
6.480000e+02 1.893842e+01
6.490000e+02 2.018992e+01
6.500000e+02 2.151964e+01
6.510000e+02 2.293217e+01
6.520000e+02 2.443239e+01
6.530000e+02 2.602539e+01
6.540000e+02 2.771660e+01
6.550000e+02 2.951170e+01
6.560000e+02 3.141669e+01
6.570000e+02 3.343756e+01
6.580000e+02 3.558202e+01
6.590000e+02 3.785606e+01
6.600000e+02 4.026739e+01
6.610000e+02 4.282390e+01
6.620000e+02 4.553371e+01
6.630000e+02 4.840550e+01
6.640000e+02 5.144838e+01
6.650000e+02 5.467186e+01
6.660000e+02 5.808618e+01
6.670000e+02 6.170179e+01
6.680000e+02 6.552989e+01
6.690000e+02 6.958223e+01
6.700000e+02 7.387112e+01
6.710000e+02 7.840955e+01
6.720000e+02 8.321074e+01
6.730000e+02 8.829023e+01
6.740000e+02 9.366187e+01
6.750000e+02 9.934187e+01
6.760000e+02 1.053469e+02
6.770000e+02 1.116943e+02
6.780000e+02 1.184025e+02
6.790000e+02 1.254907e+02
6.800000e+02 1.329791e+02
6.810000e+02 1.408889e+02
6.820000e+02 1.492423e+02
6.830000e+02 1.580627e+02
6.840000e+02 1.673745e+02
6.850000e+02 1.772034e+02
6.860000e+02 1.875765e+02
6.870000e+02 1.985212e+02
6.880000e+02 2.100690e+02
6.890000e+02 2.222490e+02
6.900000e+02 2.350943e+02
6.910000e+02 2.486394e+02
6.920000e+02 2.629195e+02
6.930000e+02 2.779721e+02
6.940000e+02 2.938364e+02
6.950000e+02 3.105533e+02
6.960000e+02 3.281659e+02
6.970000e+02 3.467156e+02
6.980000e+02 3.662595e+02
6.990000e+02 3.868368e+02
7.000000e+02 4.085023e+02
7.010000e+02 4.313099e+02
7.020000e+02 4.553160e+02
7.030000e+02 4.805793e+02
7.040000e+02 5.071616e+02
7.050000e+02 5.351273e+02
7.060000e+02 5.645436e+02
7.070000e+02 5.954811e+02
7.080000e+02 6.280131e+02
7.090000e+02 6.622159e+02
7.100000e+02 6.981720e+02
7.110000e+02 7.359630e+02
7.120000e+02 7.756772e+02
7.130000e+02 8.174061e+02
7.140000e+02 8.612452e+02
7.150000e+02 9.072942e+02
7.160000e+02 9.556572e+02
7.170000e+02 1.006441e+03
7.180000e+02 1.059756e+03
7.190000e+02 1.115740e+03
7.200000e+02 1.174494e+03
7.210000e+02 1.236154e+03
7.220000e+02 1.300854e+03
7.230000e+02 1.368735e+03
7.240000e+02 1.439942e+03
7.250000e+02 1.514628e+03
7.260000e+02 1.592950e+03
7.270000e+02 1.675075e+03
7.280000e+02 1.761174e+03
7.290000e+02 1.851428e+03
7.300000e+02 1.946022e+03
7.310000e+02 2.045151e+03
7.320000e+02 2.149019e+03
7.330000e+02 2.257837e+03
7.340000e+02 2.371823e+03
7.350000e+02 2.491208e+03
7.360000e+02 2.616228e+03
7.370000e+02 2.747135e+03
7.380000e+02 2.884183e+03
7.390000e+02 3.027642e+03
7.400000e+02 3.177787e+03
7.410000e+02 3.334921e+03
7.420000e+02 3.499330e+03
7.430000e+02 3.671345e+03
7.440000e+02 3.851280e+03
7.450000e+02 4.039479e+03
7.460000e+02 4.236296e+03
7.470000e+02 4.442098e+03
7.480000e+02 4.657266e+03
7.490000e+02 4.882197e+03
7.500000e+02 5.117303e+03
7.510000e+02 5.363013e+03
7.520000e+02 5.619771e+03
7.530000e+02 5.888039e+03
7.540000e+02 6.168297e+03
7.550000e+02 6.461042e+03
7.560000e+02 6.766796e+03
7.570000e+02 7.086041e+03
7.580000e+02 7.419482e+03
7.590000e+02 7.767539e+03
7.600000e+02 8.130906e+03
7.610000e+02 8.510165e+03
7.620000e+02 8.905972e+03
7.630000e+02 9.318996e+03
7.640000e+02 9.749936e+03
7.650000e+02 1.019951e+04
7.660000e+02 1.066847e+04
7.670000e+02 1.115759e+04
7.680000e+02 1.166765e+04
7.690000e+02 1.219957e+04
7.700000e+02 1.275412e+04
7.710000e+02 1.333224e+04
7.720000e+02 1.393484e+04
7.730000e+02 1.456290e+04
7.740000e+02 1.521740e+04
7.750000e+02 1.589939e+04
7.760000e+02 1.660944e+04
7.770000e+02 1.735012e+04
7.780000e+02 1.812112e+04
7.790000e+02 1.892412e+04
7.800000e+02 1.976034e+04
7.810000e+02 2.063107e+04
7.820000e+02 2.153762e+04
7.830000e+02 2.248135e+04
7.840000e+02 2.346369e+04
7.850000e+02 2.448608e+04
7.860000e+02 2.555004e+04
7.870000e+02 2.665718e+04
7.880000e+02 2.780904e+04
7.890000e+02 2.900734e+04
7.900000e+02 3.025379e+04
7.910000e+02 3.155021e+04
7.920000e+02 3.289843e+04
7.930000e+02 3.430038e+04
7.940000e+02 3.575804e+04
7.950000e+02 3.727344e+04
7.960000e+02 3.884872e+04
7.970000e+02 4.048605e+04
7.980000e+02 4.218770e+04
7.990000e+02 4.395600e+04
8.000000e+02 4.579338e+04
8.010000e+02 4.770228e+04
8.020000e+02 4.968536e+04
8.030000e+02 5.174520e+04
8.040000e+02 5.388461e+04
8.050000e+02 5.610639e+04
8.060000e+02 5.841348e+04
8.070000e+02 6.080890e+04
8.080000e+02 6.329578e+04
8.090000e+02 6.587734e+04
8.100000e+02 6.855692e+04
8.110000e+02 7.133793e+04
8.120000e+02 7.422395e+04
8.130000e+02 7.721860e+04
8.140000e+02 8.032567e+04
8.150000e+02 8.354897e+04
8.160000e+02 8.689277e+04
8.170000e+02 9.036090e+04
8.180000e+02 9.395783e+04
8.190000e+02 9.768791e+04
8.200000e+02 1.015557e+05
8.210000e+02 1.055658e+05
8.220000e+02 1.097232e+05
8.230000e+02 1.140327e+05
8.240000e+02 1.184996e+05
8.250000e+02 1.231291e+05
8.260000e+02 1.279267e+05
8.270000e+02 1.328980e+05
8.280000e+02 1.380487e+05
8.290000e+02 1.433849e+05
8.300000e+02 1.489127e+05
8.310000e+02 1.546383e+05
8.320000e+02 1.605685e+05
8.330000e+02 1.667098e+05
8.340000e+02 1.730692e+05
8.350000e+02 1.796451e+05
8.360000e+02 1.864704e+05
8.370000e+02 1.935281e+05
8.380000e+02 2.008330e+05
8.390000e+02 2.083942e+05
8.400000e+02 2.162194e+05
8.410000e+02 2.243170e+05
8.420000e+02 2.326936e+05
8.430000e+02 2.413655e+05
8.440000e+02 2.503344e+05
8.450000e+02 2.596124e+05
8.460000e+02 2.692092e+05
8.470000e+02 2.791350e+05
8.480000e+02 2.894000e+05
8.490000e+02 3.000149e+05
8.500000e+02 3.109907e+05
8.510000e+02 3.223386e+05
8.520000e+02 3.340700e+05
8.530000e+02 3.461973e+05
8.540000e+02 3.587333e+05
8.550000e+02 3.716888e+05
8.560000e+02 3.850778e+05
8.570000e+02 3.989133e+05
8.580000e+02 4.132092e+05
8.590000e+02 4.279795e+05
8.600000e+02 4.432386e+05
8.610000e+02 4.590013e+05
8.620000e+02 4.752829e+05
8.630000e+02 4.920988e+05
8.640000e+02 5.094658e+05
8.650000e+02 5.273993e+05
8.660000e+02 5.459176e+05
8.670000e+02 5.650371e+05
8.680000e+02 5.847759e+05
8.690000e+02 6.051519e+05
8.700000e+02 6.261843e+05
8.710000e+02 6.478944e+05
8.720000e+02 6.702996e+05
8.730000e+02 6.934210e+05
8.740000e+02 7.172797e+05
8.750000e+02 7.418971e+05
8.760000e+02 7.672954e+05
8.770000e+02 7.934962e+05
8.780000e+02 8.205256e+05
8.790000e+02 8.484047e+05
8.800000e+02 8.771587e+05
8.810000e+02 9.068130e+05
8.820000e+02 9.373932e+05
8.830000e+02 9.689256e+05
8.840000e+02 1.001438e+06
8.850000e+02 1.034957e+06
8.860000e+02 1.069511e+06
8.870000e+02 1.105131e+06
8.880000e+02 1.141846e+06
8.890000e+02 1.179686e+06
8.900000e+02 1.218683e+06
8.910000e+02 1.258870e+06
8.920000e+02 1.299370e+06
8.930000e+02 1.342945e+06
8.940000e+02 1.386902e+06
8.950000e+02 1.432185e+06
8.960000e+02 1.478833e+06
8.970000e+02 1.526881e+06
8.980000e+02 1.576368e+06
8.990000e+02 1.627333e+06
9.000000e+02 1.679818e+06
9.010000e+02 1.733862e+06
9.020000e+02 1.789509e+06
9.030000e+02 1.846801e+06
9.040000e+02 1.905775e+06
9.050000e+02 1.966499e+06
9.060000e+02 2.028999e+06
9.070000e+02 2.093313e+06
9.080000e+02 2.159534e+06
9.090000e+02 2.227668e+06
9.100000e+02 2.297781e+06
9.110000e+02 2.369931e+06
9.120000e+02 2.444188e+06
9.130000e+02 2.505212e+06
9.140000e+02 2.613676e+06
9.150000e+02 5.050856e+06
9.160000e+02 1.093239e+07
9.170000e+02 1.169651e+07
9.180000e+02 9.361904e+06
9.190000e+02 2.010581e+07
9.200000e+02 2.694305e+07
9.210000e+02 3.166233e+06
9.220000e+02 3.166372e+07
9.230000e+02 1.208336e+07
9.240000e+02 2.928925e+07
9.250000e+02 3.518643e+07
9.260000e+02 1.807557e+07
9.270000e+02 3.452224e+07
9.280000e+02 4.037668e+07
9.290000e+02 3.616443e+07
9.300000e+02 3.773797e+07
9.310000e+02 2.191345e+07
9.320000e+02 4.370445e+07
9.330000e+02 4.619036e+07
9.340000e+02 4.761248e+07
9.350000e+02 1.117091e+07
9.360000e+02 4.448651e+07
9.370000e+02 8.764918e+06
9.380000e+02 1.874475e+07
9.390000e+02 4.787152e+07
9.400000e+02 5.453550e+07
9.410000e+02 2.363403e+07
9.420000e+02 5.776518e+07
9.430000e+02 5.580911e+07
9.440000e+02 4.210933e+07
9.450000e+02 6.192760e+07
9.460000e+02 6.288862e+07
9.470000e+02 5.297492e+07
9.480000e+02 5.787136e+07
9.490000e+02 5.898282e+07
9.500000e+02 1.309713e+07
9.510000e+02 6.494263e+07
9.520000e+02 7.140937e+07
9.530000e+02 6.033381e+07
9.540000e+02 5.994846e+07
9.550000e+02 7.612214e+07
9.560000e+02 7.074747e+07
9.570000e+02 5.159350e+07
9.580000e+02 6.026617e+07
9.590000e+02 8.569250e+07
9.600000e+02 1.634356e+07
9.610000e+02 8.868654e+07
9.620000e+02 8.881247e+07
9.630000e+02 9.226396e+07
9.640000e+02 1.146121e+07
9.650000e+02 8.178073e+07
9.660000e+02 9.760734e+07
9.670000e+02 9.470733e+07
9.680000e+02 8.632157e+07
9.690000e+02 1.033944e+08
9.700000e+02 1.049346e+08
9.710000e+02 9.791764e+07
9.720000e+02 8.408886e+07
9.730000e+02 8.145490e+07
9.740000e+02 1.125861e+08
9.750000e+02 1.171333e+08
9.760000e+02 1.239675e+08
9.770000e+02 1.263734e+08
9.780000e+02 1.264834e+08
9.790000e+02 1.334830e+08
9.800000e+02 1.364392e+08
9.810000e+02 1.372302e+08
9.820000e+02 1.329595e+08
9.830000e+02 1.453007e+08
9.840000e+02 6.460557e+07
9.850000e+02 1.481902e+08
9.860000e+02 1.499251e+08
9.870000e+02 1.581176e+08
9.880000e+02 1.365132e+08
9.890000e+02 1.252923e+08
9.900000e+02 2.654424e+07
9.910000e+02 1.474596e+08
9.920000e+02 1.140282e+08
9.930000e+02 1.724253e+08
9.940000e+02 2.980181e+07
9.950000e+02 5.576437e+07
9.960000e+02 1.041866e+08
9.970000e+02 4.610744e+07
9.980000e+02 1.970760e+08
9.990000e+02 1.871014e+08
1.000000e+03 2.079991e+08
1.001000e+03 2.126248e+08
1.002000e+03 2.164696e+08
1.003000e+03 1.928184e+08
1.004000e+03 1.999705e+08
1.005000e+03 2.007177e+08
1.006000e+03 2.349129e+08
1.007000e+03 2.399971e+08
1.008000e+03 2.438468e+08
1.009000e+03 2.336705e+08
1.010000e+03 2.538693e+08
1.011000e+03 2.596619e+08
1.012000e+03 2.638027e+08
1.013000e+03 2.685656e+08
1.014000e+03 1.724297e+08
1.015000e+03 2.256675e+08
1.016000e+03 2.646783e+08
1.017000e+03 1.936559e+08
1.018000e+03 2.837768e+08
1.019000e+03 2.527741e+08
1.020000e+03 3.093497e+08
1.021000e+03 1.796085e+08
1.022000e+03 2.749779e+08
1.023000e+03 2.565725e+08
1.024000e+03 3.058387e+08
1.025000e+03 1.767565e+08
1.026000e+03 1.158957e+08
1.027000e+03 3.023833e+08
1.028000e+03 8.927016e+07
1.029000e+03 2.475188e+08
1.030000e+03 3.651290e+08
1.031000e+03 3.588718e+08
1.032000e+03 3.875938e+08
1.033000e+03 1.657760e+08
1.034000e+03 4.011260e+08
1.035000e+03 8.922502e+07
1.036000e+03 2.851504e+08
1.037000e+03 1.002383e+08
1.038000e+03 4.426381e+08
1.039000e+03 4.455781e+08
1.040000e+03 4.569884e+08
1.041000e+03 4.664205e+08
1.042000e+03 4.681500e+08
1.043000e+03 4.694093e+08
1.044000e+03 4.961227e+08
1.045000e+03 5.040787e+08
1.046000e+03 5.162021e+08
1.047000e+03 5.096553e+08
1.048000e+03 4.532450e+08
1.049000e+03 5.332979e+08
1.050000e+03 5.459485e+08
1.051000e+03 5.412914e+08
1.052000e+03 5.753116e+08
1.053000e+03 5.797573e+08
1.054000e+03 3.861908e+08
1.055000e+03 6.099232e+08
1.056000e+03 6.229668e+08
1.057000e+03 6.218268e+08
1.058000e+03 6.342701e+08
1.059000e+03 5.759475e+08
1.060000e+03 5.775028e+08
1.061000e+03 6.707328e+08
1.062000e+03 6.711189e+08
1.063000e+03 2.957527e+08
1.064000e+03 1.564592e+08
1.065000e+03 5.160961e+08
1.066000e+03 6.565668e+08
1.067000e+03 6.409545e+08
1.068000e+03 7.825108e+08
1.069000e+03 5.744200e+08
1.070000e+03 7.894859e+08
1.071000e+03 8.258787e+08
1.072000e+03 8.395548e+08
1.073000e+03 6.387868e+08
1.074000e+03 8.393821e+08
1.075000e+03 8.437036e+08
1.076000e+03 9.017715e+08
1.077000e+03 8.649777e+08
1.078000e+03 9.072868e+08
1.079000e+03 9.318472e+08
1.080000e+03 9.539132e+08
1.081000e+03 9.734320e+08
1.082000e+03 9.928415e+08
1.083000e+03 1.005348e+09
1.084000e+03 1.035684e+09
1.085000e+03 8.663174e+08
1.086000e+03 1.075468e+09
1.087000e+03 9.709027e+08
1.088000e+03 1.111419e+09
1.089000e+03 1.132835e+09
1.090000e+03 1.097247e+09
1.091000e+03 1.104756e+09
1.092000e+03 1.191632e+09
1.093000e+03 1.211143e+09
1.094000e+03 1.224346e+09
1.095000e+03 1.253545e+09
1.096000e+03 1.272781e+09
1.097000e+03 1.278700e+09
1.098000e+03 1.304549e+09
1.099000e+03 1.323297e+09
1.100000e+03 1.167022e+09
1.101000e+03 1.186370e+09
1.102000e+03 2.271913e+09
1.103000e+03 7.408577e+09
1.104000e+03 3.214026e+09
1.105000e+03 1.373025e+09
1.106000e+03 1.031671e+10
1.107000e+03 2.214824e+09
1.108000e+03 1.275022e+10
1.109000e+03 4.424223e+09
1.110000e+03 3.732978e+09
1.111000e+03 2.911209e+09
1.112000e+03 1.153428e+10
1.113000e+03 1.565374e+10
1.114000e+03 1.101121e+09
1.115000e+03 8.214898e+09
1.116000e+03 6.785693e+09
1.117000e+03 1.176211e+09
1.118000e+03 5.808182e+09
1.119000e+03 1.382878e+10
1.120000e+03 7.916657e+09
1.121000e+03 1.389946e+10
1.122000e+03 4.463749e+08
1.123000e+03 2.524183e+09
1.124000e+03 1.631447e+10
1.125000e+03 9.128618e+09
1.126000e+03 1.849180e+10
1.127000e+03 1.764855e+10
1.128000e+03 6.453435e+09
1.129000e+03 1.460108e+10
1.130000e+03 1.564966e+10
1.131000e+03 1.907407e+10
1.132000e+03 1.345464e+09
1.133000e+03 7.262885e+09
1.134000e+03 1.519796e+10
1.135000e+03 7.827978e+08
1.136000e+03 1.213519e+10
1.137000e+03 2.012355e+10
1.138000e+03 1.571369e+10
1.139000e+03 2.020196e+10
1.140000e+03 7.656131e+08
1.141000e+03 2.028205e+10
1.142000e+03 2.133528e+10
1.143000e+03 2.044462e+10
1.144000e+03 2.277279e+10
1.145000e+03 6.345539e+09
1.146000e+03 2.350578e+10
1.147000e+03 2.246384e+10
1.148000e+03 1.091001e+10
1.149000e+03 2.313352e+10
1.150000e+03 1.896837e+10
1.151000e+03 2.470643e+10
1.152000e+03 2.372413e+10
1.153000e+03 8.724658e+09
1.154000e+03 3.243457e+09
1.155000e+03 2.131821e+10
1.156000e+03 8.851915e+09
1.157000e+03 2.651852e+10
1.158000e+03 1.141554e+09
1.159000e+03 2.231243e+10
1.160000e+03 1.953867e+10
1.161000e+03 2.704618e+10
1.162000e+03 6.280638e+09
1.163000e+03 1.869571e+10
1.164000e+03 1.395036e+09
1.165000e+03 2.867697e+10
1.166000e+03 2.699531e+10
1.167000e+03 2.512109e+10
1.168000e+03 3.018005e+10
1.169000e+03 2.996673e+10
1.170000e+03 2.941497e+10
1.171000e+03 2.899921e+10
1.172000e+03 2.175454e+10
1.173000e+03 3.171731e+10
1.174000e+03 1.444284e+10
1.175000e+03 1.570454e+09
1.176000e+03 1.378163e+09
1.177000e+03 3.353410e+10
1.178000e+03 3.200571e+10
1.179000e+03 3.367760e+10
1.180000e+03 2.217984e+10
1.181000e+03 3.492534e+10
1.182000e+03 3.390939e+10
1.183000e+03 3.292055e+10
1.184000e+03 3.217980e+10
1.185000e+03 3.435318e+10
1.186000e+03 2.636363e+10
1.187000e+03 3.464786e+10
1.188000e+03 2.754320e+10
1.189000e+03 1.736042e+09
1.190000e+03 7.873645e+09
1.191000e+03 3.387140e+10
1.192000e+03 3.677546e+10
1.193000e+03 1.598597e+09
1.194000e+03 1.957226e+09
1.195000e+03 2.582491e+10
1.196000e+03 3.607811e+10
1.197000e+03 4.787372e+10
1.198000e+03 3.804320e+10
1.199000e+03 4.708367e+10
1.200000e+03 3.466227e+10
1.201000e+03 4.436968e+10
1.202000e+03 3.722094e+10
1.203000e+03 4.756841e+10
1.204000e+03 3.117885e+10
1.205000e+03 4.054421e+10
1.206000e+03 3.621941e+10
1.207000e+03 1.006628e+10
1.208000e+03 3.058940e+10
1.209000e+03 2.462521e+10
1.210000e+03 2.539915e+09
1.211000e+03 1.584709e+10
1.212000e+03 1.109926e+10
1.213000e+03 7.378308e+09
1.214000e+03 4.424739e+09
1.215000e+03 2.724165e+09
1.216000e+03 2.445231e+09
1.217000e+03 3.856111e+09
1.218000e+03 6.694501e+09
1.219000e+03 1.092972e+10
1.220000e+03 1.532661e+10
1.221000e+03 2.229706e+10
1.222000e+03 2.812634e+10
1.223000e+03 3.522059e+10
1.224000e+03 4.257086e+10
1.225000e+03 3.681538e+10
1.226000e+03 5.550974e+10
1.227000e+03 6.119352e+10
1.228000e+03 5.560413e+10
1.229000e+03 6.757679e+10
1.230000e+03 6.676115e+10
1.231000e+03 6.499653e+10
1.232000e+03 9.063822e+10
1.233000e+03 9.651251e+10
1.234000e+03 7.407618e+10
1.235000e+03 1.037210e+11
1.236000e+03 7.534670e+10
1.237000e+03 1.123557e+11
1.238000e+03 1.054983e+11
1.239000e+03 1.103204e+11
1.240000e+03 1.115835e+11
1.241000e+03 1.415681e+11
1.242000e+03 1.018097e+11
1.243000e+03 1.517581e+11
1.244000e+03 7.378300e+10
1.245000e+03 1.005315e+11
1.246000e+03 2.045884e+11
1.247000e+03 1.991222e+11
1.248000e+03 7.645191e+10
1.249000e+03 9.651196e+10
1.250000e+03 2.386471e+11
1.251000e+03 2.709451e+11
1.252000e+03 2.444854e+11
1.253000e+03 2.692572e+11
1.254000e+03 2.402843e+11
1.255000e+03 2.905624e+11
1.256000e+03 2.551703e+11
1.257000e+03 2.890376e+11
1.258000e+03 2.133248e+11
1.259000e+03 2.649102e+11
1.260000e+03 2.804715e+11
1.261000e+03 4.893945e+09
1.262000e+03 4.450699e+10
1.263000e+03 3.196166e+11
1.264000e+03 2.309400e+11
1.265000e+03 4.982948e+09
1.266000e+03 3.016777e+11
1.267000e+03 2.642260e+11
