# wavelength_A flux
5.000000e+02 1.390417e-10
5.010000e+02 1.593207e-10
5.020000e+02 1.824549e-10
5.030000e+02 2.088318e-10
5.040000e+02 2.388897e-10
5.050000e+02 2.889194e-10
5.060000e+02 3.300371e-10
5.070000e+02 3.768028e-10
5.080000e+02 4.299636e-10
5.090000e+02 4.904131e-10
5.100000e+02 5.590024e-10
5.110000e+02 6.368519e-10
5.120000e+02 7.251621e-10
5.130000e+02 8.252859e-10
5.140000e+02 9.387469e-10
5.150000e+02 1.067239e-09
5.160000e+02 1.212735e-09
5.170000e+02 1.377173e-09
5.180000e+02 1.563476e-09
5.190000e+02 1.773893e-09
5.200000e+02 2.011619e-09
5.210000e+02 2.280058e-09
5.220000e+02 2.582409e-09
5.230000e+02 2.924837e-09
5.240000e+02 3.310241e-09
5.250000e+02 3.744715e-09
5.260000e+02 4.234067e-09
5.270000e+02 4.785062e-09
5.280000e+02 5.405097e-09
5.290000e+02 6.098932e-09
5.300000e+02 6.886971e-09
5.310000e+02 7.768438e-09
5.320000e+02 8.758638e-09
5.330000e+02 9.870442e-09
5.340000e+02 1.111821e-08
5.350000e+02 1.251794e-08
5.360000e+02 1.408724e-08
5.370000e+02 1.539760e-08
5.380000e+02 1.781600e-08
5.390000e+02 2.002394e-08
5.400000e+02 2.249410e-08
5.410000e+02 2.525356e-08
5.420000e+02 2.834741e-08
5.430000e+02 3.180298e-08
5.440000e+02 3.566314e-08
5.450000e+02 3.997443e-08
5.460000e+02 4.477022e-08
5.470000e+02 5.015857e-08
5.480000e+02 5.614875e-08
5.490000e+02 6.282872e-08
5.500000e+02 7.027360e-08
5.510000e+02 7.856755e-08
5.520000e+02 8.780296e-08
5.530000e+02 9.808402e-08
5.540000e+02 1.095235e-07
5.550000e+02 1.222469e-07
5.560000e+02 1.363924e-07
5.570000e+02 1.521128e-07
5.580000e+02 1.695738e-07
5.590000e+02 1.889661e-07
5.600000e+02 2.104915e-07
5.610000e+02 2.343758e-07
5.620000e+02 2.608667e-07
5.630000e+02 2.902374e-07
5.640000e+02 3.227882e-07
5.650000e+02 3.588498e-07
5.660000e+02 3.987856e-07
5.670000e+02 4.429944e-07
5.680000e+02 4.919078e-07
5.690000e+02 5.460196e-07
5.700000e+02 6.058564e-07
5.710000e+02 6.719931e-07
5.720000e+02 7.450741e-07
5.730000e+02 8.257946e-07
5.740000e+02 9.149195e-07
5.750000e+02 1.013326e-06
5.760000e+02 1.121706e-06
5.770000e+02 1.241560e-06
5.780000e+02 1.373539e-06
5.790000e+02 1.518995e-06
5.800000e+02 1.679251e-06
5.810000e+02 1.855747e-06
5.820000e+02 2.050053e-06
5.830000e+02 2.263850e-06
5.840000e+02 2.497468e-06
5.850000e+02 2.757539e-06
5.860000e+02 3.042462e-06
5.870000e+02 3.355213e-06
5.880000e+02 3.698764e-06
5.890000e+02 4.076073e-06
5.900000e+02 4.490384e-06
5.910000e+02 4.945133e-06
5.920000e+02 5.444065e-06
5.930000e+02 5.991314e-06
5.940000e+02 6.591363e-06
5.950000e+02 7.248341e-06
5.960000e+02 7.969799e-06
5.970000e+02 8.759282e-06
5.980000e+02 9.623809e-06
5.990000e+02 1.057021e-05
6.000000e+02 1.160590e-05
6.010000e+02 1.273895e-05
6.020000e+02 1.397814e-05
6.030000e+02 1.533295e-05
6.040000e+02 1.681370e-05
6.050000e+02 1.843148e-05
6.060000e+02 2.019857e-05
6.070000e+02 2.212843e-05
6.080000e+02 2.423491e-05
6.090000e+02 2.653370e-05
6.100000e+02 2.904158e-05
6.110000e+02 3.177672e-05
6.120000e+02 3.475882e-05
6.130000e+02 3.800918e-05
6.140000e+02 4.155090e-05
6.150000e+02 4.540897e-05
6.160000e+02 4.961036e-05
6.170000e+02 5.418428e-05
6.180000e+02 5.916234e-05
6.190000e+02 6.457863e-05
6.200000e+02 7.047007e-05
6.210000e+02 7.687580e-05
6.220000e+02 8.383975e-05
6.230000e+02 9.140842e-05
6.240000e+02 9.963159e-05
6.250000e+02 1.085634e-04
6.260000e+02 1.182621e-04
6.270000e+02 1.287905e-04
6.280000e+02 1.402167e-04
6.290000e+02 1.526133e-04
6.300000e+02 1.660598e-04
6.310000e+02 1.806383e-04
6.320000e+02 1.964468e-04
6.330000e+02 2.135772e-04
6.340000e+02 2.321376e-04
6.350000e+02 2.522416e-04
6.360000e+02 2.731869e-04
6.370000e+02 2.975791e-04
6.380000e+02 3.230882e-04
6.390000e+02 3.506898e-04
6.400000e+02 3.805477e-04
6.410000e+02 4.128378e-04
6.420000e+02 4.477494e-04
6.430000e+02 4.854854e-04
6.440000e+02 5.262638e-04
6.450000e+02 5.703174e-04
6.460000e+02 6.178998e-04
6.470000e+02 6.692770e-04
6.480000e+02 7.247416e-04
6.490000e+02 7.846029e-04
6.500000e+02 8.491825e-04
6.510000e+02 9.188533e-04
6.520000e+02 9.939829e-04
6.530000e+02 1.074992e-03
6.540000e+02 1.162312e-03
6.550000e+02 1.256412e-03
6.560000e+02 1.357795e-03
6.570000e+02 1.466963e-03
6.580000e+02 1.584589e-03
6.590000e+02 1.711191e-03
6.600000e+02 1.847459e-03
6.610000e+02 1.994094e-03
6.620000e+02 2.151849e-03
6.630000e+02 2.321525e-03
6.640000e+02 2.503962e-03
6.650000e+02 2.700116e-03
6.660000e+02 2.910949e-03
6.670000e+02 3.137506e-03
6.680000e+02 3.380902e-03
6.690000e+02 3.642330e-03
6.700000e+02 3.923056e-03
6.710000e+02 4.224449e-03
6.720000e+02 4.547755e-03
6.730000e+02 4.895089e-03
6.740000e+02 5.267529e-03
6.750000e+02 5.667018e-03
6.760000e+02 6.095425e-03
6.770000e+02 6.554740e-03
6.780000e+02 7.047016e-03
6.790000e+02 7.574650e-03
6.800000e+02 8.139927e-03
6.810000e+02 8.745512e-03
6.820000e+02 9.394078e-03
6.830000e+02 1.008854e-02
6.840000e+02 1.083196e-02
6.850000e+02 1.162762e-02
6.860000e+02 1.247905e-02
6.870000e+02 1.338968e-02
6.880000e+02 1.436422e-02
6.890000e+02 1.540601e-02
6.900000e+02 1.652008e-02
6.910000e+02 1.771066e-02
6.920000e+02 1.898324e-02
6.930000e+02 2.034298e-02
6.940000e+02 2.179557e-02
6.950000e+02 2.334697e-02
6.960000e+02 2.500373e-02
6.970000e+02 2.677115e-02
6.980000e+02 2.866047e-02
6.990000e+02 3.067533e-02
7.000000e+02 3.282515e-02
7.010000e+02 3.511853e-02
7.020000e+02 3.756456e-02
7.030000e+02 4.017245e-02
7.040000e+02 4.295327e-02
7.050000e+02 4.591744e-02
7.060000e+02 4.907610e-02
7.070000e+02 5.244205e-02
7.080000e+02 5.602785e-02
7.090000e+02 5.984711e-02
7.100000e+02 6.391428e-02
7.110000e+02 6.824458e-02
7.120000e+02 7.285420e-02
7.130000e+02 7.776022e-02
7.140000e+02 8.298068e-02
7.150000e+02 8.853476e-02
7.160000e+02 9.444161e-02
7.170000e+02 1.007241e-01
7.180000e+02 1.074022e-01
7.190000e+02 1.145078e-01
7.200000e+02 1.220570e-01
7.210000e+02 1.300798e-01
7.220000e+02 1.386043e-01
7.230000e+02 1.476602e-01
7.240000e+02 1.572789e-01
7.250000e+02 1.674935e-01
7.260000e+02 1.783389e-01
7.270000e+02 1.898512e-01
7.280000e+02 2.020713e-01
7.290000e+02 2.150392e-01
7.300000e+02 2.287959e-01
7.310000e+02 2.433929e-01
7.320000e+02 2.588742e-01
7.330000e+02 2.752914e-01
7.340000e+02 2.926983e-01
7.350000e+02 3.111512e-01
7.360000e+02 3.307087e-01
7.370000e+02 3.514364e-01
7.380000e+02 3.733975e-01
7.390000e+02 3.966624e-01
7.400000e+02 4.213043e-01
7.410000e+02 4.474008e-01
7.420000e+02 4.750326e-01
7.430000e+02 5.042856e-01
7.440000e+02 5.352494e-01
7.450000e+02 5.680188e-01
7.460000e+02 6.026934e-01
7.470000e+02 6.393778e-01
7.480000e+02 6.781821e-01
7.490000e+02 7.192228e-01
7.500000e+02 7.626212e-01
7.510000e+02 8.085055e-01
7.520000e+02 8.570099e-01
7.530000e+02 9.082699e-01
7.540000e+02 9.624469e-01
7.550000e+02 1.019690e+00
7.560000e+02 1.080165e+00
7.570000e+02 1.144040e+00
7.580000e+02 1.211504e+00
7.590000e+02 1.282735e+00
7.600000e+02 1.357949e+00
7.610000e+02 1.437342e+00
7.620000e+02 1.521138e+00
7.630000e+02 1.609565e+00
7.640000e+02 1.702868e+00
7.650000e+02 1.801299e+00
7.660000e+02 1.905126e+00
7.670000e+02 2.014627e+00
7.680000e+02 2.130076e+00
7.690000e+02 2.251837e+00
7.700000e+02 2.380175e+00
7.710000e+02 2.515445e+00
7.720000e+02 2.658002e+00
7.730000e+02 2.808213e+00
7.740000e+02 2.966444e+00
7.750000e+02 3.133150e+00
7.760000e+02 3.308668e+00
7.770000e+02 3.493638e+00
7.780000e+02 3.688335e+00
7.790000e+02 3.893307e+00
7.800000e+02 4.109069e+00
7.810000e+02 4.336158e+00
7.820000e+02 4.575131e+00
7.830000e+02 4.826577e+00
7.840000e+02 5.091107e+00
7.850000e+02 5.369366e+00
7.860000e+02 5.662021e+00
7.870000e+02 5.969815e+00
7.880000e+02 6.293410e+00
7.890000e+02 6.633608e+00
7.900000e+02 6.991170e+00
7.910000e+02 7.367046e+00
7.920000e+02 7.762016e+00
7.930000e+02 8.177022e+00
7.940000e+02 8.613021e+00
7.950000e+02 9.070943e+00
7.960000e+02 9.551975e+00
7.970000e+02 1.005714e+01
7.980000e+02 1.058755e+01
7.990000e+02 1.114446e+01
8.000000e+02 1.172906e+01
8.010000e+02 1.234265e+01
8.020000e+02 1.298660e+01
8.030000e+02 1.366231e+01
8.040000e+02 1.437127e+01
8.050000e+02 1.511501e+01
8.060000e+02 1.589513e+01
8.070000e+02 1.671329e+01
8.080000e+02 1.757128e+01
8.090000e+02 1.847084e+01
8.100000e+02 1.941397e+01
8.110000e+02 2.040261e+01
8.120000e+02 2.143875e+01
8.130000e+02 2.252476e+01
8.140000e+02 2.366245e+01
8.150000e+02 2.485459e+01
8.160000e+02 2.610358e+01
8.170000e+02 2.741172e+01
8.180000e+02 2.878186e+01
8.190000e+02 3.021668e+01
8.200000e+02 3.171901e+01
8.210000e+02 3.329188e+01
8.220000e+02 3.493837e+01
8.230000e+02 3.666173e+01
8.240000e+02 3.846536e+01
8.250000e+02 4.035272e+01
8.260000e+02 4.232750e+01
8.270000e+02 4.439348e+01
8.280000e+02 4.655462e+01
8.290000e+02 4.881503e+01
8.300000e+02 5.117901e+01
8.310000e+02 5.365099e+01
8.320000e+02 5.623561e+01
8.330000e+02 5.893718e+01
8.340000e+02 6.176171e+01
8.350000e+02 6.469638e+01
8.360000e+02 6.779778e+01
8.370000e+02 7.102307e+01
8.380000e+02 7.439171e+01
8.390000e+02 7.791090e+01
8.400000e+02 8.158704e+01
8.410000e+02 8.542661e+01
8.420000e+02 8.943053e+01
8.430000e+02 9.362414e+01
8.440000e+02 9.799633e+01
8.450000e+02 1.025610e+02
8.460000e+02 1.073259e+02
8.470000e+02 1.122995e+02
8.480000e+02 1.174896e+02
8.490000e+02 1.229066e+02
8.500000e+02 1.285586e+02
8.510000e+02 1.344555e+02
8.520000e+02 1.406057e+02
8.530000e+02 1.470225e+02
8.540000e+02 1.537165e+02
8.550000e+02 1.606958e+02
8.560000e+02 1.679736e+02
8.570000e+02 1.755617e+02
8.580000e+02 1.834724e+02
8.590000e+02 1.917188e+02
8.600000e+02 2.003140e+02
8.610000e+02 2.092719e+02
8.620000e+02 2.186069e+02
8.630000e+02 2.283335e+02
8.640000e+02 2.384677e+02
8.650000e+02 2.490249e+02
8.660000e+02 2.600219e+02
8.670000e+02 2.714757e+02
8.680000e+02 2.834041e+02
8.690000e+02 2.958228e+02
8.700000e+02 3.087534e+02
8.710000e+02 3.222213e+02
8.720000e+02 3.362387e+02
8.730000e+02 3.508295e+02
8.740000e+02 3.660155e+02
8.750000e+02 3.818195e+02
8.760000e+02 3.982651e+02
8.770000e+02 4.153758e+02
8.780000e+02 4.331790e+02
8.790000e+02 4.516986e+02
8.800000e+02 4.709622e+02
8.810000e+02 4.909977e+02
8.820000e+02 5.118341e+02
8.830000e+02 5.335015e+02
8.840000e+02 5.560305e+02
8.850000e+02 5.794504e+02
8.860000e+02 6.037943e+02
8.870000e+02 6.291046e+02
8.880000e+02 6.554111e+02
8.890000e+02 6.827509e+02
8.900000e+02 7.111614e+02
8.910000e+02 7.406819e+02
8.920000e+02 7.681518e+02
8.930000e+02 8.032162e+02
8.940000e+02 8.363151e+02
8.950000e+02 8.706938e+02
8.960000e+02 9.063995e+02
8.970000e+02 9.434791e+02
8.980000e+02 9.819820e+02
8.990000e+02 1.021959e+03
9.000000e+02 1.063464e+03
9.010000e+02 1.106549e+03
9.020000e+02 1.151272e+03
9.030000e+02 1.197679e+03
9.040000e+02 1.245818e+03
9.050000e+02 1.295843e+03
9.060000e+02 1.347715e+03
9.070000e+02 1.401518e+03
9.080000e+02 1.457368e+03
9.090000e+02 1.515288e+03
9.100000e+02 1.575365e+03
9.110000e+02 1.637690e+03
9.120000e+02 1.702401e+03
9.130000e+02 1.711399e+03
9.140000e+02 1.930202e+03
9.150000e+02 2.826845e+04
9.160000e+02 9.211293e+04
9.170000e+02 9.679722e+04
9.180000e+02 9.875216e+04
9.190000e+02 1.031850e+05
9.200000e+02 1.063869e+05
9.210000e+02 2.260300e+03
9.220000e+02 1.127005e+05
9.230000e+02 1.148046e+05
9.240000e+02 9.406704e+04
9.250000e+02 1.200867e+05
9.260000e+02 1.258172e+05
9.270000e+02 1.302474e+05
9.280000e+02 1.344185e+05
9.290000e+02 1.046288e+05
9.300000e+02 1.397432e+05
9.310000e+02 1.443751e+05
9.320000e+02 1.510694e+05
9.330000e+02 1.552655e+05
9.340000e+02 1.599402e+05
9.350000e+02 4.420576e+04
9.360000e+02 1.684024e+05
9.370000e+02 3.134747e+04
9.380000e+02 1.344542e+05
9.390000e+02 1.843653e+05
9.400000e+02 1.898550e+05
9.410000e+02 1.471089e+05
9.420000e+02 2.010296e+05
9.430000e+02 2.067491e+05
9.440000e+02 1.533624e+05
9.450000e+02 2.184610e+05
9.460000e+02 2.247998e+05
9.470000e+02 1.511621e+05
9.480000e+02 2.358819e+05
9.490000e+02 2.402638e+05
9.500000e+02 5.509774e+04
9.510000e+02 2.394527e+05
9.520000e+02 2.654655e+05
9.530000e+02 2.726824e+05
9.540000e+02 2.101602e+05
9.550000e+02 2.888157e+05
9.560000e+02 2.985959e+05
9.570000e+02 2.412310e+05
9.580000e+02 3.090499e+05
9.590000e+02 3.240431e+05
9.600000e+02 6.440219e+04
9.610000e+02 3.429820e+05
9.620000e+02 3.517812e+05
9.630000e+02 3.620018e+05
9.640000e+02 1.341909e+04
9.650000e+02 3.281935e+05
9.660000e+02 3.923087e+05
9.670000e+02 4.027361e+05
9.680000e+02 4.093638e+05
9.690000e+02 4.205002e+05
9.700000e+02 4.342154e+05
9.710000e+02 4.398794e+05
9.720000e+02 3.910008e+05
9.730000e+02 3.834373e+05
9.740000e+02 4.726769e+05
9.750000e+02 4.955990e+05
9.760000e+02 5.109850e+05
9.770000e+02 5.251543e+05
9.780000e+02 5.385452e+05
9.790000e+02 5.542632e+05
9.800000e+02 5.689985e+05
9.810000e+02 5.843644e+05
9.820000e+02 5.949716e+05
9.830000e+02 6.151051e+05
9.840000e+02 1.282502e+05
9.850000e+02 6.481804e+05
9.860000e+02 6.650909e+05
9.870000e+02 6.821575e+05
9.880000e+02 6.969288e+05
9.890000e+02 4.294209e+05
9.900000e+02 4.015996e+04
9.910000e+02 7.465638e+05
9.920000e+02 7.560014e+05
9.930000e+02 7.537627e+05
9.940000e+02 8.451512e+04
9.950000e+02 9.931464e+04
9.960000e+02 3.079031e+05
9.970000e+02 1.801758e+05
9.980000e+02 8.960519e+05
9.990000e+02 9.121003e+05
1.000000e+03 9.496833e+05
1.001000e+03 9.737496e+05
1.002000e+03 9.979382e+05
1.003000e+03 9.050024e+05
1.004000e+03 1.048910e+06
1.005000e+03 9.812783e+05
1.006000e+03 1.102224e+06
1.007000e+03 1.129706e+06
1.008000e+03 1.156938e+06
1.009000e+03 1.131141e+06
1.010000e+03 1.215432e+06
1.011000e+03 1.245200e+06
1.012000e+03 1.275494e+06
1.013000e+03 1.306766e+06
1.014000e+03 1.336817e+06
1.015000e+03 1.332161e+06
1.016000e+03 1.400299e+06
1.017000e+03 1.433464e+06
1.018000e+03 1.468191e+06
1.019000e+03 1.500055e+06
1.020000e+03 1.531135e+06
1.021000e+03 1.379053e+06
1.022000e+03 1.535025e+06
1.023000e+03 1.574061e+06
1.024000e+03 1.482098e+06
1.025000e+03 9.285150e+05
1.026000e+03 3.000079e+05
1.027000e+03 1.435447e+06
1.028000e+03 4.592562e+05
1.029000e+03 1.849106e+06
1.030000e+03 1.902149e+06
1.031000e+03 1.989174e+06
1.032000e+03 2.034059e+06
1.033000e+03 1.085064e+06
1.034000e+03 2.154151e+06
1.035000e+03 4.003988e+05
1.036000e+03 2.240643e+06
1.037000e+03 1.816202e+05
1.038000e+03 2.371184e+06
1.039000e+03 2.417112e+06
1.040000e+03 2.488368e+06
1.041000e+03 2.543755e+06
1.042000e+03 2.556614e+06
1.043000e+03 2.639646e+06
1.044000e+03 2.727482e+06
1.045000e+03 2.792272e+06
1.046000e+03 2.860912e+06
1.047000e+03 2.927913e+06
1.048000e+03 2.982710e+06
1.049000e+03 3.054615e+06
1.050000e+03 3.135788e+06
1.051000e+03 3.207868e+06
1.052000e+03 3.281546e+06
1.053000e+03 3.308966e+06
1.054000e+03 3.429139e+06
1.055000e+03 3.510839e+06
1.056000e+03 3.591383e+06
1.057000e+03 3.672308e+06
1.058000e+03 3.755637e+06
1.059000e+03 3.840349e+06
1.060000e+03 3.926483e+06
1.061000e+03 4.015650e+06
1.062000e+03 4.105599e+06
1.063000e+03 3.528012e+06
1.064000e+03 6.710648e+05
1.065000e+03 4.419241e+06
1.066000e+03 4.508516e+06
1.067000e+03 4.494456e+06
1.068000e+03 4.720879e+06
1.069000e+03 4.820824e+06
1.070000e+03 4.893670e+06
1.071000e+03 5.047892e+06
1.072000e+03 5.158355e+06
1.073000e+03 5.268578e+06
1.074000e+03 5.387329e+06
1.075000e+03 5.503128e+06
1.076000e+03 5.625514e+06
1.077000e+03 5.742784e+06
1.078000e+03 5.873454e+06
1.079000e+03 5.965981e+06
1.080000e+03 6.126930e+06
1.081000e+03 6.263237e+06
1.082000e+03 6.390847e+06
1.083000e+03 6.536149e+06
1.084000e+03 6.525552e+06
1.085000e+03 6.240888e+06
1.086000e+03 6.965164e+06
1.087000e+03 7.111877e+06
1.088000e+03 7.225108e+06
1.089000e+03 7.418239e+06
1.090000e+03 7.573204e+06
1.091000e+03 7.736234e+06
1.092000e+03 7.897220e+06
1.093000e+03 8.053922e+06
1.094000e+03 8.235946e+06
1.095000e+03 8.397443e+06
1.096000e+03 8.583435e+06
1.097000e+03 8.669131e+06
1.098000e+03 8.911056e+06
1.099000e+03 9.127494e+06
1.100000e+03 9.146352e+06
1.101000e+03 8.494448e+06
1.102000e+03 2.377325e+07
1.103000e+03 1.058293e+08
1.104000e+03 2.556360e+07
1.105000e+03 9.623136e+06
1.106000e+03 3.143340e+08
1.107000e+03 3.033677e+08
1.108000e+03 3.251640e+08
1.109000e+03 2.191047e+08
1.110000e+03 4.014380e+07
1.111000e+03 2.488035e+07
1.112000e+03 3.100332e+08
1.113000e+03 3.505278e+08
1.114000e+03 7.528256e+06
1.115000e+03 3.447696e+08
1.116000e+03 3.570148e+08
1.117000e+03 6.434080e+06
1.118000e+03 3.443092e+08
1.119000e+03 3.751348e+08
1.120000e+03 3.796569e+08
1.121000e+03 2.508022e+08
1.122000e+03 1.489184e+06
1.123000e+03 3.644638e+07
1.124000e+03 4.014772e+08
1.125000e+03 1.603259e+08
1.126000e+03 4.170688e+08
1.127000e+03 3.857326e+08
1.128000e+03 1.813634e+08
1.129000e+03 4.209726e+08
1.130000e+03 3.272557e+08
1.131000e+03 4.511742e+08
1.132000e+03 5.863296e+06
1.133000e+03 4.487580e+08
1.134000e+03 4.356964e+08
1.135000e+03 5.408208e+06
1.136000e+03 4.772785e+08
1.137000e+03 4.887942e+08
1.138000e+03 5.002370e+08
1.139000e+03 4.855397e+08
1.140000e+03 3.463392e+06
1.141000e+03 5.229725e+08
1.142000e+03 5.037970e+08
1.143000e+03 5.349412e+08
1.144000e+03 5.441140e+08
1.145000e+03 3.529561e+08
1.146000e+03 5.607445e+08
1.147000e+03 5.450938e+08
1.148000e+03 5.554920e+08
1.149000e+03 5.812045e+08
1.150000e+03 5.501131e+08
1.151000e+03 5.874241e+08
1.152000e+03 6.016560e+08
1.153000e+03 1.506773e+08
1.154000e+03 9.781696e+06
1.155000e+03 5.550644e+08
1.156000e+03 2.307643e+08
1.157000e+03 6.441948e+08
1.158000e+03 9.278554e+06
1.159000e+03 5.278146e+08
1.160000e+03 6.770438e+08
1.161000e+03 6.893927e+08
1.162000e+03 5.305395e+07
1.163000e+03 6.907553e+08
1.164000e+03 1.524250e+07
1.165000e+03 7.248603e+08
1.166000e+03 7.214015e+08
1.167000e+03 6.786084e+08
1.168000e+03 7.545129e+08
1.169000e+03 7.177353e+08
1.170000e+03 7.741640e+08
1.171000e+03 7.838213e+08
1.172000e+03 7.520485e+08
1.173000e+03 8.013997e+08
1.174000e+03 7.945654e+08
1.175000e+03 1.409754e+07
1.176000e+03 9.198400e+06
1.177000e+03 8.286371e+08
1.178000e+03 7.864331e+08
1.179000e+03 8.501631e+08
1.180000e+03 6.616915e+08
1.181000e+03 8.368184e+08
1.182000e+03 8.686500e+08
1.183000e+03 8.726051e+08
1.184000e+03 8.768726e+08
1.185000e+03 8.590681e+08
1.186000e+03 8.800477e+08
1.187000e+03 8.808796e+08
1.188000e+03 8.602550e+08
1.189000e+03 9.525504e+06
1.190000e+03 1.938884e+08
1.191000e+03 8.332742e+08
1.192000e+03 8.296164e+08
1.193000e+03 7.302944e+06
1.194000e+03 1.096326e+07
1.195000e+03 3.779724e+08
1.196000e+03 7.839120e+08
1.197000e+03 8.453110e+08
1.198000e+03 8.484873e+08
1.199000e+03 7.999376e+08
1.200000e+03 6.659894e+08
1.201000e+03 7.033345e+08
1.202000e+03 6.832842e+08
1.203000e+03 6.700170e+08
1.204000e+03 5.933153e+08
1.205000e+03 5.288334e+08
1.206000e+03 4.329953e+08
1.207000e+03 2.070726e+08
1.208000e+03 3.142457e+08
1.209000e+03 2.352772e+08
1.210000e+03 2.079890e+07
1.211000e+03 1.259277e+08
1.212000e+03 8.032677e+07
1.213000e+03 4.665846e+07
1.214000e+03 2.507180e+07
1.215000e+03 1.385429e+07
1.216000e+03 1.175990e+07
1.217000e+03 2.133727e+07
1.218000e+03 4.151890e+07
1.219000e+03 7.645654e+07
1.220000e+03 1.278157e+08
1.221000e+03 1.954150e+08
1.222000e+03 2.779726e+08
1.223000e+03 3.737701e+08
1.224000e+03 4.809506e+08
1.225000e+03 5.975989e+08
1.226000e+03 7.196446e+08
1.227000e+03 8.426139e+08
1.228000e+03 9.894313e+08
1.229000e+03 1.128321e+09
1.230000e+03 1.268524e+09
1.231000e+03 1.413964e+09
1.232000e+03 1.559088e+09
1.233000e+03 1.703307e+09
1.234000e+03 9.580632e+08
1.235000e+03 1.987893e+09
1.236000e+03 2.128502e+09
1.237000e+03 2.266170e+09
1.238000e+03 2.405246e+09
1.239000e+03 2.540360e+09
1.240000e+03 2.424871e+09
1.241000e+03 4.080515e+09
1.242000e+03 2.335870e+09
1.243000e+03 3.722940e+09
1.244000e+03 1.532678e+09
1.245000e+03 2.280458e+09
1.246000e+03 6.829110e+09
1.247000e+03 7.369264e+09
1.248000e+03 1.623158e+09
1.249000e+03 2.257797e+09
1.250000e+03 8.794644e+09
1.251000e+03 9.218120e+09
1.252000e+03 9.592088e+09
1.253000e+03 1.032137e+10
1.254000e+03 1.059481e+10
1.255000e+03 1.127040e+10
1.256000e+03 1.169043e+10
1.257000e+03 1.234767e+10
1.258000e+03 1.258624e+10
1.259000e+03 1.180003e+10
1.260000e+03 8.503503e+09
1.261000e+03 3.135021e+07
1.262000e+03 9.725583e+08
1.263000e+03 1.435922e+10
1.264000e+03 1.168179e+10
1.265000e+03 2.716416e+07
1.266000e+03 1.529450e+10
1.267000e+03 1.737620e+10
