# wavelength_A flux
5.000000e+02 8.865460e-12
5.010000e+02 1.021780e-11
5.020000e+02 1.176954e-11
5.030000e+02 1.354906e-11
5.040000e+02 1.558863e-11
5.050000e+02 1.843727e-11
5.060000e+02 2.118493e-11
5.070000e+02 2.432829e-11
5.080000e+02 2.792234e-11
5.090000e+02 3.203037e-11
5.100000e+02 3.672119e-11
5.110000e+02 4.207596e-11
5.120000e+02 4.818496e-11
5.130000e+02 5.515081e-11
5.140000e+02 6.308941e-11
5.150000e+02 7.213086e-11
5.160000e+02 8.242595e-11
5.170000e+02 9.413487e-11
5.180000e+02 1.074595e-10
5.190000e+02 1.226002e-10
5.200000e+02 1.398009e-10
5.210000e+02 1.593314e-10
5.220000e+02 1.814741e-10
5.230000e+02 2.066383e-10
5.240000e+02 2.351434e-10
5.250000e+02 2.674465e-10
5.260000e+02 3.040310e-10
5.270000e+02 3.454459e-10
5.280000e+02 3.923062e-10
5.290000e+02 4.451807e-10
5.300000e+02 5.052058e-10
5.310000e+02 5.728870e-10
5.320000e+02 6.493201e-10
5.330000e+02 7.355899e-10
5.340000e+02 8.329186e-10
5.350000e+02 9.426711e-10
5.360000e+02 1.066367e-09
5.370000e+02 1.188178e-09
5.380000e+02 1.362650e-09
5.390000e+02 1.539286e-09
5.400000e+02 1.738049e-09
5.410000e+02 1.961368e-09
5.420000e+02 2.212678e-09
5.430000e+02 2.494894e-09
5.440000e+02 2.811794e-09
5.450000e+02 3.167508e-09
5.460000e+02 3.565942e-09
5.470000e+02 4.014192e-09
5.480000e+02 4.515912e-09
5.490000e+02 5.078110e-09
5.500000e+02 5.707754e-09
5.510000e+02 6.412662e-09
5.520000e+02 7.201469e-09
5.530000e+02 8.083790e-09
5.540000e+02 9.070289e-09
5.550000e+02 1.017280e-08
5.560000e+02 1.140445e-08
5.570000e+02 1.277977e-08
5.580000e+02 1.431489e-08
5.590000e+02 1.602768e-08
5.600000e+02 1.793788e-08
5.610000e+02 2.006740e-08
5.620000e+02 2.244043e-08
5.630000e+02 2.508375e-08
5.640000e+02 2.802695e-08
5.650000e+02 3.130266e-08
5.660000e+02 3.494724e-08
5.670000e+02 3.900031e-08
5.680000e+02 4.350607e-08
5.690000e+02 4.851299e-08
5.700000e+02 5.407461e-08
5.710000e+02 6.025024e-08
5.720000e+02 6.710470e-08
5.730000e+02 7.470983e-08
5.740000e+02 8.314456e-08
5.750000e+02 9.249754e-08
5.760000e+02 1.028448e-07
5.770000e+02 1.143423e-07
5.780000e+02 1.270566e-07
5.790000e+02 1.411313e-07
5.800000e+02 1.567060e-07
5.810000e+02 1.739343e-07
5.820000e+02 1.929844e-07
5.830000e+02 2.140393e-07
5.840000e+02 2.372285e-07
5.850000e+02 2.629911e-07
5.860000e+02 2.913894e-07
5.870000e+02 3.227156e-07
5.880000e+02 3.572788e-07
5.890000e+02 3.953932e-07
5.900000e+02 4.374346e-07
5.910000e+02 4.837628e-07
5.920000e+02 5.348119e-07
5.930000e+02 5.910383e-07
5.940000e+02 6.529471e-07
5.950000e+02 7.210668e-07
5.960000e+02 7.960680e-07
5.970000e+02 8.785397e-07
5.980000e+02 9.692229e-07
5.990000e+02 1.068902e-06
6.000000e+02 1.178433e-06
6.010000e+02 1.298471e-06
6.020000e+02 1.430866e-06
6.030000e+02 1.575895e-06
6.040000e+02 1.735053e-06
6.050000e+02 1.909650e-06
6.060000e+02 2.101121e-06
6.070000e+02 2.311039e-06
6.080000e+02 2.541098e-06
6.090000e+02 2.793152e-06
6.100000e+02 3.069211e-06
6.110000e+02 3.371484e-06
6.120000e+02 3.702337e-06
6.130000e+02 4.064364e-06
6.140000e+02 4.460380e-06
6.150000e+02 4.893442e-06
6.160000e+02 5.366868e-06
6.170000e+02 5.884263e-06
6.180000e+02 6.449536e-06
6.190000e+02 7.066929e-06
6.200000e+02 7.741047e-06
6.210000e+02 8.476877e-06
6.220000e+02 9.279828e-06
6.230000e+02 1.015576e-05
6.240000e+02 1.111103e-05
6.250000e+02 1.215251e-05
6.260000e+02 1.328764e-05
6.270000e+02 1.452449e-05
6.280000e+02 1.587178e-05
6.290000e+02 1.733895e-05
6.300000e+02 1.893620e-05
6.310000e+02 2.067385e-05
6.320000e+02 2.256598e-05
6.330000e+02 2.462326e-05
6.340000e+02 2.686052e-05
6.350000e+02 2.929260e-05
6.360000e+02 3.189871e-05
6.370000e+02 3.480775e-05
6.380000e+02 3.792723e-05
6.390000e+02 4.131470e-05
6.400000e+02 4.499216e-05
6.410000e+02 4.898335e-05
6.420000e+02 5.331388e-05
6.430000e+02 5.801132e-05
6.440000e+02 6.310536e-05
6.450000e+02 6.862800e-05
6.460000e+02 7.461377e-05
6.470000e+02 8.109967e-05
6.480000e+02 8.812578e-05
6.490000e+02 9.573496e-05
6.500000e+02 1.039735e-04
6.510000e+02 1.128910e-04
6.520000e+02 1.225412e-04
6.530000e+02 1.329814e-04
6.540000e+02 1.442733e-04
6.550000e+02 1.564835e-04
6.560000e+02 1.696830e-04
6.570000e+02 1.839443e-04
6.580000e+02 1.993624e-04
6.590000e+02 2.160127e-04
6.600000e+02 2.339931e-04
6.610000e+02 2.534083e-04
6.620000e+02 2.743642e-04
6.630000e+02 2.969787e-04
6.640000e+02 3.213770e-04
6.650000e+02 3.476925e-04
6.660000e+02 3.760721e-04
6.670000e+02 4.066668e-04
6.680000e+02 4.396430e-04
6.690000e+02 4.751773e-04
6.700000e+02 5.134590e-04
6.710000e+02 5.546910e-04
6.720000e+02 5.990892e-04
6.730000e+02 6.468876e-04
6.740000e+02 6.983326e-04
6.750000e+02 7.536900e-04
6.760000e+02 8.132436e-04
6.770000e+02 8.772967e-04
6.780000e+02 9.461732e-04
6.790000e+02 1.020220e-03
6.800000e+02 1.099806e-03
6.810000e+02 1.185327e-03
6.820000e+02 1.277204e-03
6.830000e+02 1.375888e-03
6.840000e+02 1.481859e-03
6.850000e+02 1.595622e-03
6.860000e+02 1.717749e-03
6.870000e+02 1.848787e-03
6.880000e+02 1.989399e-03
6.890000e+02 2.140217e-03
6.900000e+02 2.301956e-03
6.910000e+02 2.475373e-03
6.920000e+02 2.661268e-03
6.930000e+02 2.860498e-03
6.940000e+02 3.073972e-03
6.950000e+02 3.302661e-03
6.960000e+02 3.547596e-03
6.970000e+02 3.809823e-03
6.980000e+02 4.090672e-03
6.990000e+02 4.391226e-03
7.000000e+02 4.712863e-03
7.010000e+02 5.056988e-03
7.020000e+02 5.425099e-03
7.030000e+02 5.818786e-03
7.040000e+02 6.239740e-03
7.050000e+02 6.689757e-03
7.060000e+02 7.170736e-03
7.070000e+02 7.684736e-03
7.080000e+02 8.233879e-03
7.090000e+02 8.820406e-03
7.100000e+02 9.446911e-03
7.110000e+02 1.011580e-02
7.120000e+02 1.082988e-02
7.130000e+02 1.159202e-02
7.140000e+02 1.240533e-02
7.150000e+02 1.327305e-02
7.160000e+02 1.419866e-02
7.170000e+02 1.518577e-02
7.180000e+02 1.623821e-02
7.190000e+02 1.736058e-02
7.200000e+02 1.855668e-02
7.210000e+02 1.983134e-02
7.220000e+02 2.118946e-02
7.230000e+02 2.263623e-02
7.240000e+02 2.417715e-02
7.250000e+02 2.581804e-02
7.260000e+02 2.756498e-02
7.270000e+02 2.942472e-02
7.280000e+02 3.140394e-02
7.290000e+02 3.350999e-02
7.300000e+02 3.575060e-02
7.310000e+02 3.813393e-02
7.320000e+02 4.066861e-02
7.330000e+02 4.336376e-02
7.340000e+02 4.622904e-02
7.350000e+02 4.927462e-02
7.360000e+02 5.251123e-02
7.370000e+02 5.595038e-02
7.380000e+02 5.960394e-02
7.390000e+02 6.348466e-02
7.400000e+02 6.760561e-02
7.410000e+02 7.198188e-02
7.420000e+02 7.662706e-02
7.430000e+02 8.155842e-02
7.440000e+02 8.679137e-02
7.450000e+02 9.234387e-02
7.460000e+02 9.823442e-02
7.470000e+02 1.044825e-01
7.480000e+02 1.111087e-01
7.490000e+02 1.181348e-01
7.500000e+02 1.255835e-01
7.510000e+02 1.334790e-01
7.520000e+02 1.418468e-01
7.530000e+02 1.507134e-01
7.540000e+02 1.601072e-01
7.550000e+02 1.700579e-01
7.560000e+02 1.805966e-01
7.570000e+02 1.917503e-01
7.580000e+02 2.035718e-01
7.590000e+02 2.160785e-01
7.600000e+02 2.293175e-01
7.610000e+02 2.433270e-01
7.620000e+02 2.581500e-01
7.630000e+02 2.738310e-01
7.640000e+02 2.904173e-01
7.650000e+02 3.079582e-01
7.660000e+02 3.265063e-01
7.670000e+02 3.461157e-01
7.680000e+02 3.668420e-01
7.690000e+02 3.887520e-01
7.700000e+02 4.119029e-01
7.710000e+02 4.363633e-01
7.720000e+02 4.622035e-01
7.730000e+02 4.894970e-01
7.740000e+02 5.183212e-01
7.750000e+02 5.487573e-01
7.760000e+02 5.808069e-01
7.770000e+02 6.148103e-01
7.780000e+02 6.506110e-01
7.790000e+02 6.883906e-01
7.800000e+02 7.282528e-01
7.810000e+02 7.703063e-01
7.820000e+02 8.146647e-01
7.830000e+02 8.614472e-01
7.840000e+02 9.107802e-01
7.850000e+02 9.627938e-01
7.860000e+02 1.017624e+00
7.870000e+02 1.075424e+00
7.880000e+02 1.136334e+00
7.890000e+02 1.200516e+00
7.900000e+02 1.268138e+00
7.910000e+02 1.339372e+00
7.920000e+02 1.414402e+00
7.930000e+02 1.493418e+00
7.940000e+02 1.576621e+00
7.950000e+02 1.664219e+00
7.960000e+02 1.756432e+00
7.970000e+02 1.853489e+00
7.980000e+02 1.955632e+00
7.990000e+02 2.063111e+00
8.000000e+02 2.176189e+00
8.010000e+02 2.295135e+00
8.020000e+02 2.420258e+00
8.030000e+02 2.551837e+00
8.040000e+02 2.690197e+00
8.050000e+02 2.835664e+00
8.060000e+02 2.988585e+00
8.070000e+02 3.149318e+00
8.080000e+02 3.318242e+00
8.090000e+02 3.495750e+00
8.100000e+02 3.682252e+00
8.110000e+02 3.878178e+00
8.120000e+02 4.083978e+00
8.130000e+02 4.300121e+00
8.140000e+02 4.527097e+00
8.150000e+02 4.765411e+00
8.160000e+02 5.015615e+00
8.170000e+02 5.278244e+00
8.180000e+02 5.553905e+00
8.190000e+02 5.843187e+00
8.200000e+02 6.146731e+00
8.210000e+02 6.465200e+00
8.220000e+02 6.799285e+00
8.230000e+02 7.149707e+00
8.240000e+02 7.517220e+00
8.250000e+02 7.902607e+00
8.260000e+02 8.306687e+00
8.270000e+02 8.730314e+00
8.280000e+02 9.174379e+00
8.290000e+02 9.639808e+00
8.300000e+02 1.012757e+01
8.310000e+02 1.063868e+01
8.320000e+02 1.117418e+01
8.330000e+02 1.173516e+01
8.340000e+02 1.232278e+01
8.350000e+02 1.293718e+01
8.360000e+02 1.358266e+01
8.370000e+02 1.425756e+01
8.380000e+02 1.496385e+01
8.390000e+02 1.570374e+01
8.400000e+02 1.647793e+01
8.410000e+02 1.728819e+01
8.420000e+02 1.813580e+01
8.430000e+02 1.902330e+01
8.440000e+02 1.995152e+01
8.450000e+02 2.092252e+01
8.460000e+02 2.193817e+01
8.470000e+02 2.300039e+01
8.480000e+02 2.411120e+01
8.490000e+02 2.527267e+01
8.500000e+02 2.648698e+01
8.510000e+02 2.775639e+01
8.520000e+02 2.908319e+01
8.530000e+02 3.046999e+01
8.540000e+02 3.191931e+01
8.550000e+02 3.343356e+01
8.560000e+02 3.501562e+01
8.570000e+02 3.666835e+01
8.580000e+02 3.839470e+01
8.590000e+02 4.019778e+01
8.600000e+02 4.208075e+01
8.610000e+02 4.404696e+01
8.620000e+02 4.609985e+01
8.630000e+02 4.824294e+01
8.640000e+02 5.048018e+01
8.650000e+02 5.281503e+01
8.660000e+02 5.525210e+01
8.670000e+02 5.779507e+01
8.680000e+02 6.044841e+01
8.690000e+02 6.321664e+01
8.700000e+02 6.610440e+01
8.710000e+02 6.911655e+01
8.720000e+02 7.225812e+01
8.730000e+02 7.553429e+01
8.740000e+02 7.895051e+01
8.750000e+02 8.251236e+01
8.760000e+02 8.622566e+01
8.770000e+02 9.009619e+01
8.780000e+02 9.413104e+01
8.790000e+02 9.833587e+01
8.800000e+02 1.027177e+02
8.810000e+02 1.072834e+02
8.820000e+02 1.120404e+02
8.830000e+02 1.169961e+02
8.840000e+02 1.221582e+02
8.850000e+02 1.275349e+02
8.860000e+02 1.331345e+02
8.870000e+02 1.389656e+02
8.880000e+02 1.450372e+02
8.890000e+02 1.513586e+02
8.900000e+02 1.579393e+02
8.910000e+02 1.647895e+02
8.920000e+02 1.717256e+02
8.930000e+02 1.793396e+02
8.940000e+02 1.870613e+02
8.950000e+02 1.950958e+02
8.960000e+02 2.034552e+02
8.970000e+02 2.121517e+02
8.980000e+02 2.211978e+02
8.990000e+02 2.306069e+02
9.000000e+02 2.403926e+02
9.010000e+02 2.505689e+02
9.020000e+02 2.611504e+02
9.030000e+02 2.721520e+02
9.040000e+02 2.835875e+02
9.050000e+02 2.954788e+02
9.060000e+02 3.078382e+02
9.070000e+02 3.206772e+02
9.080000e+02 3.340312e+02
9.090000e+02 3.479020e+02
9.100000e+02 3.623143e+02
9.110000e+02 3.772893e+02
9.120000e+02 3.928531e+02
9.130000e+02 4.041546e+02
9.140000e+02 4.346671e+02
9.150000e+02 2.661382e+03
9.160000e+02 5.330303e+03
9.170000e+02 5.520569e+03
9.180000e+02 5.675877e+03
9.190000e+02 5.928569e+03
9.200000e+02 6.135480e+03
9.210000e+02 5.528627e+02
9.220000e+02 6.553963e+03
9.230000e+02 6.718580e+03
9.240000e+02 6.675404e+03
9.250000e+02 7.155171e+03
9.260000e+02 7.450832e+03
9.270000e+02 7.729740e+03
9.280000e+02 8.000097e+03
9.290000e+02 8.182491e+03
9.300000e+02 8.447914e+03
9.310000e+02 8.751677e+03
9.320000e+02 9.122391e+03
9.330000e+02 9.405729e+03
9.340000e+02 9.727815e+03
9.350000e+02 2.548606e+03
9.360000e+02 9.849212e+03
9.370000e+02 1.972391e+03
9.380000e+02 4.718053e+03
9.390000e+02 1.141690e+04
9.400000e+02 1.181390e+04
9.410000e+02 4.565019e+03
9.420000e+02 1.259913e+04
9.430000e+02 1.298367e+04
9.440000e+02 1.015911e+04
9.450000e+02 1.385612e+04
9.460000e+02 1.430161e+04
9.470000e+02 1.031518e+04
9.480000e+02 1.121242e+04
9.490000e+02 1.560058e+04
9.500000e+02 2.955459e+03
9.510000e+02 1.641410e+04
9.520000e+02 1.728530e+04
9.530000e+02 1.761374e+04
9.540000e+02 1.553073e+04
9.550000e+02 1.899719e+04
9.560000e+02 1.254864e+04
9.570000e+02 1.371865e+04
9.580000e+02 2.051555e+04
9.590000e+02 2.160064e+04
9.600000e+02 4.520773e+03
9.610000e+02 2.288864e+04
9.620000e+02 2.369062e+04
9.630000e+02 2.443931e+04
9.640000e+02 3.013670e+03
9.650000e+02 2.400072e+04
9.660000e+02 2.678563e+04
9.670000e+02 2.737042e+04
9.680000e+02 2.826311e+04
9.690000e+02 2.918162e+04
9.700000e+02 3.016967e+04
9.710000e+02 3.083281e+04
9.720000e+02 2.967120e+04
9.730000e+02 2.990980e+04
9.740000e+02 3.364349e+04
9.750000e+02 3.505832e+04
9.760000e+02 3.620339e+04
9.770000e+02 3.734883e+04
9.780000e+02 3.839608e+04
9.790000e+02 3.967227e+04
9.800000e+02 4.085689e+04
9.810000e+02 4.209446e+04
9.820000e+02 4.324257e+04
9.830000e+02 4.464865e+04
9.840000e+02 2.165163e+04
9.850000e+02 4.734321e+04
9.860000e+02 4.873942e+04
9.870000e+02 5.021675e+04
9.880000e+02 5.127681e+04
9.890000e+02 4.604146e+04
9.900000e+02 9.027898e+03
9.910000e+02 5.589760e+04
9.920000e+02 5.020148e+04
9.930000e+02 5.647194e+04
9.940000e+02 1.068120e+04
9.950000e+02 2.111378e+04
9.960000e+02 4.745579e+04
9.970000e+02 1.475055e+04
9.980000e+02 6.885959e+04
9.990000e+02 6.966762e+04
1.000000e+03 7.305261e+04
1.001000e+03 7.516896e+04
1.002000e+03 7.730998e+04
1.003000e+03 7.689188e+04
1.004000e+03 8.140108e+04
1.005000e+03 7.970477e+04
1.006000e+03 8.654106e+04
1.007000e+03 8.866323e+04
1.008000e+03 9.133712e+04
1.009000e+03 9.302133e+04
1.010000e+03 9.674166e+04
1.011000e+03 9.945781e+04
1.012000e+03 1.022374e+05
1.013000e+03 1.050900e+05
1.014000e+03 1.050093e+05
1.015000e+03 1.093691e+05
1.016000e+03 1.137996e+05
1.017000e+03 1.143516e+05
1.018000e+03 1.201529e+05
1.019000e+03 1.226039e+05
1.020000e+03 1.267220e+05
1.021000e+03 6.806677e+04
1.022000e+03 1.205702e+05
1.023000e+03 1.335873e+05
1.024000e+03 1.196494e+05
1.025000e+03 1.033545e+05
1.026000e+03 5.246442e+04
1.027000e+03 1.299133e+05
1.028000e+03 4.214588e+04
1.029000e+03 1.561395e+05
1.030000e+03 1.628435e+05
1.031000e+03 1.702308e+05
1.032000e+03 1.741232e+05
1.033000e+03 8.255999e+04
1.034000e+03 1.853731e+05
1.035000e+03 4.364030e+04
1.036000e+03 1.751195e+05
1.037000e+03 4.153531e+04
1.038000e+03 2.065525e+05
1.039000e+03 2.105375e+05
1.040000e+03 2.177937e+05
1.041000e+03 2.204805e+05
1.042000e+03 2.288799e+05
1.043000e+03 2.269605e+05
1.044000e+03 2.417612e+05
1.045000e+03 2.480247e+05
1.046000e+03 2.550149e+05
1.047000e+03 2.615593e+05
1.048000e+03 2.670175e+05
1.049000e+03 2.647186e+05
1.050000e+03 2.827128e+05
1.051000e+03 2.900359e+05
1.052000e+03 2.978465e+05
1.053000e+03 3.043632e+05
1.054000e+03 3.037318e+05
1.055000e+03 3.092038e+05
1.056000e+03 3.299825e+05
1.057000e+03 3.383692e+05
1.058000e+03 3.469162e+05
1.059000e+03 3.552054e+05
1.060000e+03 3.636072e+05
1.061000e+03 3.745198e+05
1.062000e+03 3.838014e+05
1.063000e+03 1.300871e+05
1.064000e+03 9.186028e+04
1.065000e+03 4.072927e+05
1.066000e+03 2.922201e+05
1.067000e+03 4.312531e+05
1.068000e+03 4.474981e+05
1.069000e+03 4.446381e+05
1.070000e+03 4.685722e+05
1.071000e+03 4.822483e+05
1.072000e+03 4.942926e+05
1.073000e+03 4.998631e+05
1.074000e+03 5.190616e+05
1.075000e+03 5.318294e+05
1.076000e+03 5.453712e+05
1.077000e+03 5.568248e+05
1.078000e+03 5.722484e+05
1.079000e+03 5.857612e+05
1.080000e+03 6.010982e+05
1.081000e+03 6.159721e+05
1.082000e+03 6.307873e+05
1.083000e+03 6.460775e+05
1.084000e+03 6.620801e+05
1.085000e+03 4.873303e+05
1.086000e+03 6.948312e+05
1.087000e+03 7.096728e+05
1.088000e+03 7.268072e+05
1.089000e+03 7.462575e+05
1.090000e+03 7.632714e+05
1.091000e+03 7.796691e+05
1.092000e+03 8.011138e+05
1.093000e+03 8.197418e+05
1.094000e+03 8.397794e+05
1.095000e+03 8.595652e+05
1.096000e+03 8.798546e+05
1.097000e+03 8.765934e+05
1.098000e+03 9.050165e+05
1.099000e+03 9.434536e+05
1.100000e+03 9.140002e+05
1.101000e+03 9.036649e+05
1.102000e+03 1.990541e+06
1.103000e+03 6.193746e+06
1.104000e+03 2.631007e+06
1.105000e+03 9.946150e+05
1.106000e+03 1.471826e+07
1.107000e+03 1.106172e+07
1.108000e+03 1.491805e+07
1.109000e+03 9.419028e+06
1.110000e+03 4.826698e+06
1.111000e+03 2.337535e+06
1.112000e+03 1.370700e+07
1.113000e+03 1.692557e+07
1.114000e+03 8.316440e+05
1.115000e+03 1.630253e+07
1.116000e+03 1.668779e+07
1.117000e+03 9.647710e+05
1.118000e+03 1.173880e+07
1.119000e+03 1.864511e+07
1.120000e+03 1.804782e+07
1.121000e+03 1.819302e+07
1.122000e+03 3.801460e+05
1.123000e+03 1.791265e+06
1.124000e+03 2.037457e+07
1.125000e+03 1.221195e+07
1.126000e+03 2.119645e+07
1.127000e+03 2.085239e+07
1.128000e+03 1.102861e+07
1.129000e+03 2.170219e+07
1.130000e+03 1.831179e+07
1.131000e+03 2.318637e+07
1.132000e+03 1.101546e+06
1.133000e+03 1.946007e+07
1.134000e+03 2.264126e+07
1.135000e+03 6.284120e+05
1.136000e+03 2.470829e+07
1.137000e+03 2.572785e+07
1.138000e+03 2.604676e+07
1.139000e+03 2.602318e+07
1.140000e+03 7.231900e+05
1.141000e+03 2.761969e+07
1.142000e+03 2.791879e+07
1.143000e+03 2.853115e+07
1.144000e+03 2.911915e+07
1.145000e+03 2.247691e+07
1.146000e+03 3.013415e+07
1.147000e+03 3.024225e+07
1.148000e+03 2.960983e+07
1.149000e+03 3.168446e+07
1.150000e+03 3.192341e+07
1.151000e+03 3.264101e+07
1.152000e+03 3.337251e+07
1.153000e+03 1.232814e+07
1.154000e+03 3.125700e+06
1.155000e+03 2.674842e+07
1.156000e+03 7.026526e+06
1.157000e+03 3.623895e+07
1.158000e+03 1.118084e+06
1.159000e+03 3.000780e+07
1.160000e+03 3.744833e+07
1.161000e+03 3.898737e+07
1.162000e+03 1.202709e+07
1.163000e+03 3.973088e+07
1.164000e+03 1.631934e+06
1.165000e+03 4.173926e+07
1.166000e+03 4.239021e+07
1.167000e+03 4.295942e+07
1.168000e+03 4.425665e+07
1.169000e+03 4.379205e+07
1.170000e+03 4.592876e+07
1.171000e+03 4.683268e+07
1.172000e+03 4.726608e+07
1.173000e+03 4.860417e+07
1.174000e+03 4.640016e+07
1.175000e+03 1.984776e+06
1.176000e+03 1.706164e+06
1.177000e+03 5.224685e+07
1.178000e+03 5.188536e+07
1.179000e+03 5.413832e+07
1.180000e+03 4.520527e+07
1.181000e+03 5.585307e+07
1.182000e+03 5.711869e+07
1.183000e+03 5.798309e+07
1.184000e+03 5.887247e+07
1.185000e+03 5.934251e+07
1.186000e+03 5.986379e+07
1.187000e+03 6.155792e+07
1.188000e+03 6.190152e+07
1.189000e+03 2.186320e+06
1.190000e+03 7.477976e+06
1.191000e+03 6.355165e+07
1.192000e+03 6.420804e+07
1.193000e+03 2.058148e+06
1.194000e+03 2.543568e+06
1.195000e+03 5.418001e+07
1.196000e+03 6.622065e+07
1.197000e+03 9.451002e+07
1.198000e+03 9.403525e+07
1.199000e+03 9.287982e+07
1.200000e+03 8.337764e+07
1.201000e+03 8.755081e+07
1.202000e+03 8.639076e+07
1.203000e+03 1.047394e+08
1.204000e+03 9.445932e+07
1.205000e+03 8.833357e+07
1.206000e+03 8.199494e+07
1.207000e+03 1.328255e+07
1.208000e+03 6.096836e+07
1.209000e+03 4.655368e+07
1.210000e+03 3.809870e+06
1.211000e+03 2.712387e+07
1.212000e+03 1.716051e+07
1.213000e+03 1.085774e+07
1.214000e+03 6.296624e+06
1.215000e+03 3.954473e+06
1.216000e+03 3.587645e+06
1.217000e+03 5.576658e+06
1.218000e+03 9.921776e+06
1.219000e+03 1.740848e+07
1.220000e+03 2.813045e+07
1.221000e+03 4.173824e+07
1.222000e+03 5.747706e+07
1.223000e+03 7.475761e+07
1.224000e+03 9.334145e+07
1.225000e+03 1.108880e+08
1.226000e+03 1.320440e+08
1.227000e+03 1.503190e+08
1.228000e+03 1.710838e+08
1.229000e+03 1.921544e+08
1.230000e+03 2.094462e+08
1.231000e+03 2.286320e+08
1.232000e+03 2.520544e+08
1.233000e+03 2.713555e+08
1.234000e+03 1.714786e+08
1.235000e+03 3.084252e+08
1.236000e+03 3.192696e+08
1.237000e+03 3.442069e+08
1.238000e+03 3.610129e+08
1.239000e+03 3.775384e+08
1.240000e+03 3.594565e+08
1.241000e+03 6.145309e+08
1.242000e+03 3.600540e+08
1.243000e+03 5.196097e+08
1.244000e+03 2.333616e+08
1.245000e+03 3.405170e+08
1.246000e+03 9.645818e+08
1.247000e+03 9.792142e+08
1.248000e+03 2.529576e+08
1.249000e+03 3.130434e+08
1.250000e+03 1.175726e+09
1.251000e+03 1.235928e+09
1.252000e+03 1.269324e+09
1.253000e+03 1.349457e+09
1.254000e+03 1.374954e+09
1.255000e+03 1.434849e+09
1.256000e+03 1.458028e+09
1.257000e+03 1.540139e+09
1.258000e+03 1.494317e+09
1.259000e+03 1.533580e+09
1.260000e+03 1.211411e+09
1.261000e+03 9.097957e+06
1.262000e+03 1.611890e+08
1.263000e+03 1.727068e+09
1.264000e+03 1.506554e+09
1.265000e+03 9.342528e+06
1.266000e+03 1.860451e+09
1.267000e+03 1.937228e+09
