# wavelength_A flux
5.000000e+02 1.280410e-39
5.010000e+02 1.677693e-39
5.020000e+02 2.195835e-39
5.030000e+02 2.870871e-39
5.040000e+02 3.749359e-39
5.050000e+02 4.892390e-39
5.060000e+02 6.375703e-39
5.070000e+02 8.299873e-39
5.080000e+02 1.079339e-38
5.090000e+02 1.402124e-38
5.100000e+02 1.819244e-38
5.110000e+02 2.358767e-38
5.120000e+02 3.054633e-38
5.130000e+02 3.951753e-38
5.140000e+02 5.107120e-38
5.150000e+02 6.593584e-38
5.160000e+02 8.504112e-38
5.170000e+02 1.095724e-37
5.180000e+02 1.410393e-37
5.190000e+02 1.813630e-37
5.200000e+02 2.329857e-37
5.210000e+02 2.990091e-37
5.220000e+02 3.833680e-37
5.230000e+02 4.910524e-37
5.240000e+02 6.283783e-37
5.250000e+02 8.033386e-37
5.260000e+02 1.026036e-36
5.270000e+02 1.309230e-36
5.280000e+02 1.669015e-36
5.290000e+02 2.125681e-36
5.300000e+02 2.704781e-36
5.310000e+02 3.438463e-36
5.320000e+02 4.367139e-36
5.330000e+02 5.541567e-36
5.340000e+02 7.025433e-36
5.350000e+02 8.898583e-36
5.360000e+02 1.126103e-35
5.370000e+02 1.423743e-35
5.380000e+02 1.798580e-35
5.390000e+02 2.270014e-35
5.400000e+02 2.862499e-35
5.410000e+02 3.606471e-35
5.420000e+02 4.539855e-35
5.430000e+02 5.709867e-35
5.440000e+02 7.175242e-35
5.450000e+02 9.008983e-35
5.460000e+02 1.130175e-34
5.470000e+02 1.416603e-34
5.480000e+02 1.774131e-34
5.490000e+02 2.220034e-34
5.500000e+02 2.775700e-34
5.510000e+02 3.467577e-34
5.520000e+02 4.328350e-34
5.530000e+02 5.398377e-34
5.540000e+02 6.727453e-34
5.550000e+02 8.376964e-34
5.560000e+02 1.042253e-33
5.570000e+02 1.295722e-33
5.580000e+02 1.609550e-33
5.590000e+02 1.997807e-33
5.600000e+02 2.477766e-33
5.610000e+02 3.070625e-33
5.620000e+02 3.802375e-33
5.630000e+02 4.704857e-33
5.640000e+02 5.817054e-33
5.650000e+02 7.186655e-33
5.660000e+02 8.871953e-33
5.670000e+02 1.094415e-32
5.680000e+02 1.349017e-32
5.690000e+02 1.661600e-32
5.700000e+02 2.045086e-32
5.710000e+02 2.515208e-32
5.720000e+02 3.091118e-32
5.730000e+02 3.796103e-32
5.740000e+02 4.658466e-32
5.750000e+02 5.712577e-32
5.760000e+02 7.000145e-32
5.770000e+02 8.571750e-32
5.780000e+02 1.048869e-31
5.790000e+02 1.282518e-31
5.800000e+02 1.567105e-31
5.810000e+02 1.913493e-31
5.820000e+02 2.334807e-31
5.830000e+02 2.846901e-31
5.840000e+02 3.468904e-31
5.850000e+02 4.223891e-31
5.860000e+02 5.139664e-31
5.870000e+02 6.249714e-31
5.880000e+02 7.594346e-31
5.890000e+02 9.222039e-31
5.900000e+02 1.119107e-30
5.910000e+02 1.357142e-30
5.920000e+02 1.644712e-30
5.930000e+02 1.991897e-30
5.940000e+02 2.410781e-30
5.950000e+02 2.915840e-30
5.960000e+02 3.524410e-30
5.970000e+02 4.257231e-30
5.980000e+02 5.139105e-30
5.990000e+02 6.199673e-30
6.000000e+02 7.474332e-30
6.010000e+02 9.005333e-30
6.020000e+02 1.084307e-29
6.030000e+02 1.304762e-29
6.040000e+02 1.569055e-29
6.050000e+02 1.885708e-29
6.060000e+02 2.264859e-29
6.070000e+02 2.718566e-29
6.080000e+02 3.261158e-29
6.090000e+02 3.909655e-29
6.100000e+02 4.684258e-29
6.110000e+02 5.608936e-29
6.120000e+02 6.712104e-29
6.130000e+02 8.027432e-29
6.140000e+02 9.594795e-29
6.150000e+02 1.146138e-28
6.160000e+02 1.368302e-28
6.170000e+02 1.632571e-28
6.180000e+02 1.946740e-28
6.190000e+02 2.320018e-28
6.200000e+02 2.763270e-28
6.210000e+02 3.289312e-28
6.220000e+02 3.913252e-28
6.230000e+02 4.652891e-28
6.240000e+02 5.529188e-28
6.250000e+02 6.566810e-28
6.260000e+02 7.794771e-28
6.270000e+02 9.247178e-28
6.280000e+02 1.096411e-27
6.290000e+02 1.299262e-27
6.300000e+02 1.538794e-27
6.310000e+02 1.821487e-27
6.320000e+02 2.154936e-27
6.330000e+02 2.548041e-27
6.340000e+02 3.011228e-27
6.350000e+02 3.556698e-27
6.360000e+02 4.198726e-27
6.370000e+02 4.954005e-27
6.380000e+02 5.842044e-27
6.390000e+02 6.885632e-27
6.400000e+02 8.111373e-27
6.410000e+02 9.550314e-27
6.420000e+02 1.123866e-26
6.430000e+02 1.321863e-26
6.440000e+02 1.553940e-26
6.450000e+02 1.825825e-26
6.460000e+02 2.144183e-26
6.470000e+02 2.516771e-26
6.480000e+02 2.952606e-26
6.490000e+02 3.462170e-26
6.500000e+02 4.057639e-26
6.510000e+02 4.753150e-26
6.520000e+02 5.565111e-26
6.530000e+02 6.512552e-26
6.540000e+02 7.617540e-26
6.550000e+02 8.905644e-26
6.560000e+02 1.040648e-25
6.570000e+02 1.215435e-25
6.580000e+02 1.418893e-25
6.590000e+02 1.655611e-25
6.600000e+02 1.930897e-25
6.610000e+02 2.250882e-25
6.620000e+02 2.622649e-25
6.630000e+02 3.054376e-25
6.640000e+02 3.555498e-25
6.650000e+02 4.136900e-25
6.660000e+02 4.811132e-25
6.670000e+02 5.592655e-25
6.680000e+02 6.498125e-25
6.690000e+02 7.546725e-25
6.700000e+02 8.760526e-25
6.710000e+02 1.016492e-24
6.720000e+02 1.178910e-24
6.730000e+02 1.366663e-24
6.740000e+02 1.583604e-24
6.750000e+02 1.834162e-24
6.760000e+02 2.123417e-24
6.770000e+02 2.457199e-24
6.780000e+02 2.842192e-24
6.790000e+02 3.286061e-24
6.800000e+02 3.797588e-24
6.810000e+02 4.386830e-24
6.820000e+02 5.065303e-24
6.830000e+02 5.846184e-24
6.840000e+02 6.744547e-24
6.850000e+02 7.777629e-24
6.860000e+02 8.965130e-24
6.870000e+02 1.032956e-23
6.880000e+02 1.189661e-23
6.890000e+02 1.369564e-23
6.900000e+02 1.576012e-23
6.910000e+02 1.812824e-23
6.920000e+02 2.084355e-23
6.930000e+02 2.395565e-23
6.940000e+02 2.752110e-23
6.950000e+02 3.160426e-23
6.960000e+02 3.627842e-23
6.970000e+02 4.162696e-23
6.980000e+02 4.774472e-23
6.990000e+02 5.473956e-23
7.000000e+02 6.273402e-23
7.010000e+02 7.186734e-23
7.020000e+02 8.229766e-23
7.030000e+02 9.420448e-23
7.040000e+02 1.077915e-22
7.050000e+02 1.232898e-22
7.060000e+02 1.409613e-22
7.070000e+02 1.611032e-22
7.080000e+02 1.840517e-22
7.090000e+02 2.101882e-22
7.100000e+02 2.399440e-22
7.110000e+02 2.738076e-22
7.120000e+02 3.123314e-22
7.130000e+02 3.561404e-22
7.140000e+02 4.059409e-22
7.150000e+02 4.625314e-22
7.160000e+02 5.268137e-22
7.170000e+02 5.998063e-22
7.180000e+02 6.826589e-22
7.190000e+02 7.766690e-22
7.200000e+02 8.833003e-22
7.210000e+02 1.004203e-21
7.220000e+02 1.141238e-21
7.230000e+02 1.296502e-21
7.240000e+02 1.472356e-21
7.250000e+02 1.671460e-21
7.260000e+02 1.896808e-21
7.270000e+02 2.151768e-21
7.280000e+02 2.440130e-21
7.290000e+02 2.766155e-21
7.300000e+02 3.134634e-21
7.310000e+02 3.550949e-21
7.320000e+02 4.021148e-21
7.330000e+02 4.552021e-21
7.340000e+02 5.151191e-21
7.350000e+02 5.827214e-21
7.360000e+02 6.589685e-21
7.370000e+02 7.449368e-21
7.380000e+02 8.418329e-21
7.390000e+02 9.510091e-21
7.400000e+02 1.073980e-20
7.410000e+02 1.212444e-20
7.420000e+02 1.368298e-20
7.430000e+02 1.543671e-20
7.440000e+02 1.740941e-20
7.450000e+02 1.962769e-20
7.460000e+02 2.212130e-20
7.470000e+02 2.492351e-20
7.480000e+02 2.807149e-20
7.490000e+02 3.160675e-20
7.500000e+02 3.557566e-20
7.510000e+02 4.002999e-20
7.520000e+02 4.502751e-20
7.530000e+02 5.063267e-20
7.540000e+02 5.691735e-20
7.550000e+02 6.396172e-20
7.560000e+02 7.185512e-20
7.570000e+02 8.069711e-20
7.580000e+02 9.059860e-20
7.590000e+02 1.016831e-19
7.600000e+02 1.140881e-19
7.610000e+02 1.279667e-19
7.620000e+02 1.434890e-19
7.630000e+02 1.608446e-19
7.640000e+02 1.802440e-19
7.650000e+02 2.019213e-19
7.660000e+02 2.261366e-19
7.670000e+02 2.531790e-19
7.680000e+02 2.833695e-19
7.690000e+02 3.170644e-19
7.700000e+02 3.546595e-19
7.710000e+02 3.965936e-19
7.720000e+02 4.433539e-19
7.730000e+02 4.954803e-19
7.740000e+02 5.535718e-19
7.750000e+02 6.182919e-19
7.760000e+02 6.903763e-19
7.770000e+02 7.706395e-19
7.780000e+02 8.599838e-19
7.790000e+02 9.594081e-19
7.800000e+02 1.070018e-18
7.810000e+02 1.193037e-18
7.820000e+02 1.329818e-18
7.830000e+02 1.481859e-18
7.840000e+02 1.650812e-18
7.850000e+02 1.838509e-18
7.860000e+02 2.046968e-18
7.870000e+02 2.278424e-18
7.880000e+02 2.535341e-18
7.890000e+02 2.820441e-18
7.900000e+02 3.136729e-18
7.910000e+02 3.487522e-18
7.920000e+02 3.876475e-18
7.930000e+02 4.307625e-18
7.940000e+02 4.785419e-18
7.950000e+02 5.314759e-18
7.960000e+02 5.901051e-18
7.970000e+02 6.550247e-18
7.980000e+02 7.268904e-18
7.990000e+02 8.064243e-18
8.000000e+02 8.944215e-18
8.010000e+02 9.917565e-18
8.020000e+02 1.099392e-17
8.030000e+02 1.218388e-17
8.040000e+02 1.349907e-17
8.050000e+02 1.495231e-17
8.060000e+02 1.655767e-17
8.070000e+02 1.833062e-17
8.080000e+02 2.028814e-17
8.090000e+02 2.244890e-17
8.100000e+02 2.483339e-17
8.110000e+02 2.746412e-17
8.120000e+02 3.036577e-17
8.130000e+02 3.356544e-17
8.140000e+02 3.709284e-17
8.150000e+02 4.098059e-17
8.160000e+02 4.526441e-17
8.170000e+02 4.998349e-17
8.180000e+02 5.518078e-17
8.190000e+02 6.090330e-17
8.200000e+02 6.720260e-17
8.210000e+02 7.413512e-17
8.220000e+02 8.176265e-17
8.230000e+02 9.015283e-17
8.240000e+02 9.937968e-17
8.250000e+02 1.095242e-16
8.260000e+02 1.206749e-16
8.270000e+02 1.329288e-16
8.280000e+02 1.463917e-16
8.290000e+02 1.611795e-16
8.300000e+02 1.774185e-16
8.310000e+02 1.952472e-16
8.320000e+02 2.148164e-16
8.330000e+02 2.362912e-16
8.340000e+02 2.598514e-16
8.350000e+02 2.856938e-16
8.360000e+02 3.140326e-16
8.370000e+02 3.451021e-16
8.380000e+02 3.791573e-16
8.390000e+02 4.164768e-16
8.400000e+02 4.573640e-16
8.410000e+02 5.021499e-16
8.420000e+02 5.511951e-16
8.430000e+02 6.048926e-16
8.440000e+02 6.636704e-16
8.450000e+02 7.279948e-16
8.460000e+02 7.983734e-16
8.470000e+02 8.753590e-16
8.480000e+02 9.595531e-16
8.490000e+02 1.051610e-15
8.500000e+02 1.152243e-15
8.510000e+02 1.262226e-15
8.520000e+02 1.382401e-15
8.530000e+02 1.513685e-15
8.540000e+02 1.657073e-15
8.550000e+02 1.813647e-15
8.560000e+02 1.984584e-15
8.570000e+02 2.171161e-15
8.580000e+02 2.374764e-15
8.590000e+02 2.596901e-15
8.600000e+02 2.839207e-15
8.610000e+02 3.103457e-15
8.620000e+02 3.391578e-15
8.630000e+02 3.705662e-15
8.640000e+02 4.047973e-15
8.650000e+02 4.420974e-15
8.660000e+02 4.827329e-15
8.670000e+02 5.269931e-15
8.680000e+02 5.751912e-15
8.690000e+02 6.276669e-15
8.700000e+02 6.847880e-15
8.710000e+02 7.469531e-15
8.720000e+02 8.145939e-15
8.730000e+02 8.881777e-15
8.740000e+02 9.682104e-15
8.750000e+02 1.055240e-14
8.760000e+02 1.149859e-14
8.770000e+02 1.252708e-14
8.780000e+02 1.364481e-14
8.790000e+02 1.485929e-14
8.800000e+02 1.617863e-14
8.810000e+02 1.761159e-14
8.820000e+02 1.916766e-14
8.830000e+02 2.085708e-14
8.840000e+02 2.269093e-14
8.850000e+02 2.468115e-14
8.860000e+02 2.684067e-14
8.870000e+02 2.918344e-14
8.880000e+02 3.172451e-14
8.890000e+02 3.448015e-14
8.900000e+02 3.746789e-14
8.910000e+02 4.070668e-14
8.920000e+02 4.421693e-14
8.930000e+02 4.802068e-14
8.940000e+02 5.214169e-14
8.950000e+02 5.660559e-14
8.960000e+02 6.144000e-14
8.970000e+02 6.667469e-14
8.980000e+02 7.234176e-14
8.990000e+02 7.847577e-14
9.000000e+02 8.511398e-14
9.010000e+02 9.229650e-14
9.020000e+02 1.000665e-13
9.030000e+02 1.084706e-13
9.040000e+02 1.175588e-13
9.050000e+02 1.273851e-13
9.060000e+02 1.380073e-13
9.070000e+02 1.494880e-13
9.080000e+02 1.618943e-13
9.090000e+02 1.752984e-13
9.100000e+02 1.897779e-13
9.110000e+02 2.054165e-13
9.120000e+02 2.223037e-13
9.130000e+02 2.405362e-13
9.140000e+02 2.645592e-13
9.150000e+02 8.214192e-11
9.160000e+02 6.859021e-10
9.170000e+02 1.136379e-10
9.180000e+02 1.085757e-10
9.190000e+02 2.202527e-09
9.200000e+02 7.366142e-09
9.210000e+02 4.490362e-13
9.220000e+02 9.824190e-09
9.230000e+02 3.853215e-11
9.240000e+02 2.675495e-10
9.250000e+02 4.237264e-09
9.260000e+02 1.684236e-10
9.270000e+02 2.506096e-10
9.280000e+02 6.130369e-08
9.290000e+02 5.715661e-08
9.300000e+02 9.388812e-09
9.310000e+02 1.025761e-10
9.320000e+02 4.297681e-08
9.330000e+02 4.846502e-08
9.340000e+02 2.175588e-08
9.350000e+02 8.268443e-11
9.360000e+02 1.276972e-09
9.370000e+02 2.255757e-11
9.380000e+02 3.696831e-11
9.390000e+02 3.593922e-09
9.400000e+02 1.240829e-07
9.410000e+02 2.204967e-09
9.420000e+02 2.320852e-07
9.430000e+02 9.068586e-09
9.440000e+02 2.661590e-07
9.450000e+02 2.611905e-07
9.460000e+02 1.346030e-07
9.470000e+02 7.105783e-11
9.480000e+02 4.795714e-08
9.490000e+02 4.238571e-09
9.500000e+02 3.196265e-11
9.510000e+02 2.785886e-08
9.520000e+02 1.304666e-07
9.530000e+02 1.465908e-09
9.540000e+02 8.232126e-11
9.550000e+02 2.139535e-08
9.560000e+02 2.528773e-07
9.570000e+02 5.221750e-09
9.580000e+02 2.589928e-11
9.590000e+02 5.431305e-07
9.600000e+02 1.552252e-10
9.610000e+02 3.633398e-07
9.620000e+02 1.482334e-07
9.630000e+02 8.136169e-09
9.640000e+02 1.157588e-09
9.650000e+02 2.867182e-10
9.660000e+02 2.650131e-08
9.670000e+02 2.610761e-09
9.680000e+02 1.727585e-09
9.690000e+02 1.267355e-07
9.700000e+02 1.446125e-07
9.710000e+02 3.575712e-09
9.720000e+02 4.686280e-10
9.730000e+02 7.775580e-10
9.740000e+02 4.179412e-08
9.750000e+02 4.845067e-08
9.760000e+02 6.601276e-07
9.770000e+02 7.845307e-07
9.780000e+02 5.328393e-07
9.790000e+02 1.791969e-06
9.800000e+02 2.062876e-06
9.810000e+02 4.038371e-07
9.820000e+02 5.046013e-08
9.830000e+02 2.560128e-06
9.840000e+02 3.964825e-08
9.850000e+02 1.466916e-07
9.860000e+02 1.649651e-07
9.870000e+02 3.128432e-06
9.880000e+02 1.043645e-09
9.890000e+02 2.050319e-06
9.900000e+02 1.666076e-06
9.910000e+02 5.035477e-08
9.920000e+02 1.907554e-10
9.930000e+02 3.321078e-06
9.940000e+02 1.341505e-10
9.950000e+02 1.114139e-07
9.960000e+02 5.657967e-09
9.970000e+02 6.976865e-09
9.980000e+02 4.257949e-06
9.990000e+02 7.480882e-08
1.000000e+03 6.760850e-06
1.001000e+03 6.089993e-06
1.002000e+03 7.599222e-06
1.003000e+03 7.793494e-08
1.004000e+03 1.702574e-09
1.005000e+03 4.842941e-07
1.006000e+03 8.380172e-06
1.007000e+03 9.385585e-06
1.008000e+03 7.850065e-06
1.009000e+03 8.429240e-08
1.010000e+03 7.897069e-06
1.011000e+03 8.618932e-06
1.012000e+03 9.593178e-06
1.013000e+03 9.520473e-06
1.014000e+03 8.058123e-10
1.015000e+03 3.718924e-09
1.016000e+03 4.386438e-07
1.017000e+03 5.966285e-10
1.018000e+03 1.126982e-07
1.019000e+03 3.374225e-09
1.020000e+03 6.243179e-06
1.021000e+03 1.271469e-07
1.022000e+03 3.054715e-07
1.023000e+03 1.248497e-08
1.024000e+03 2.374426e-07
1.025000e+03 7.179564e-10
1.026000e+03 9.186011e-10
1.027000e+03 1.009315e-07
1.028000e+03 6.963603e-09
1.029000e+03 1.422450e-09
1.030000e+03 1.982095e-06
1.031000e+03 6.695218e-06
1.032000e+03 2.082884e-05
1.033000e+03 1.164353e-07
1.034000e+03 9.234191e-06
1.035000e+03 3.532477e-09
1.036000e+03 3.783498e-09
1.037000e+03 8.809081e-05
1.038000e+03 1.338545e-04
1.039000e+03 1.021461e-04
1.040000e+03 9.216268e-05
1.041000e+03 1.552509e-04
1.042000e+03 1.746041e-04
1.043000e+03 1.030594e-04
1.044000e+03 2.320641e-04
1.045000e+03 5.503196e-09
1.046000e+03 1.010661e-04
1.047000e+03 4.408158e-05
1.048000e+03 2.417510e-07
1.049000e+03 4.170794e-05
1.050000e+03 4.726739e-06
1.051000e+03 1.829467e-06
1.052000e+03 3.108890e-04
1.053000e+03 3.688848e-04
1.054000e+03 7.305061e-09
1.055000e+03 3.269774e-04
1.056000e+03 3.806854e-04
1.057000e+03 1.236281e-04
1.058000e+03 2.101849e-06
1.059000e+03 9.537616e-07
1.060000e+03 2.927845e-07
1.061000e+03 2.977967e-04
1.062000e+03 9.546870e-07
1.063000e+03 8.526646e-07
1.064000e+03 1.053559e-08
1.065000e+03 1.257285e-08
1.066000e+03 1.158014e-04
1.067000e+03 1.739940e-06
1.068000e+03 7.070557e-04
1.069000e+03 2.744986e-07
1.070000e+03 4.205306e-05
1.071000e+03 6.545107e-04
1.072000e+03 8.455917e-04
1.073000e+03 3.905734e-08
1.074000e+03 2.051467e-04
1.075000e+03 1.124781e-04
1.076000e+03 4.750990e-04
1.077000e+03 4.044850e-07
1.078000e+03 3.036228e-06
1.079000e+03 2.725854e-05
1.080000e+03 1.560029e-04
1.081000e+03 9.151548e-04
1.082000e+03 5.917742e-04
1.083000e+03 3.376376e-04
1.084000e+03 1.338484e-03
1.085000e+03 4.103035e-05
1.086000e+03 1.569016e-03
1.087000e+03 4.583620e-06
1.088000e+03 1.712201e-03
1.089000e+03 1.769975e-03
1.090000e+03 3.218522e-05
1.091000e+03 6.505277e-05
1.092000e+03 1.787117e-03
1.093000e+03 1.992503e-03
1.094000e+03 5.894298e-04
1.095000e+03 2.271783e-03
1.096000e+03 3.875548e-05
1.097000e+03 2.109177e-03
1.098000e+03 2.363241e-03
1.099000e+03 1.298285e-04
1.100000e+03 6.973132e-07
1.101000e+03 2.496319e-06
1.102000e+03 1.054034e-04
1.103000e+03 3.055539e-03
1.104000e+03 3.237396e-03
1.105000e+03 3.333436e-03
1.106000e+03 7.182749e-04
1.107000e+03 1.921551e-06
1.108000e+03 3.149692e-03
1.109000e+03 4.481920e-05
1.110000e+03 3.849749e-03
1.111000e+03 3.644020e-03
1.112000e+03 2.366814e-03
1.113000e+03 3.036313e-03
1.114000e+03 1.235075e-03
1.115000e+03 4.048517e-05
1.116000e+03 9.302496e-06
1.117000e+03 4.989051e-03
1.118000e+03 8.278643e-05
1.119000e+03 2.509178e-03
1.120000e+03 1.990702e-05
1.121000e+03 5.347039e-03
1.122000e+03 6.501413e-03
1.123000e+03 8.101090e-03
1.124000e+03 9.735483e-03
1.125000e+03 7.764905e-03
1.126000e+03 8.804647e-03
1.127000e+03 7.468722e-03
1.128000e+03 6.207059e-03
1.129000e+03 4.821396e-03
1.130000e+03 7.004520e-03
1.131000e+03 5.609718e-03
1.132000e+03 3.353786e-05
1.133000e+03 7.558027e-04
1.134000e+03 5.234143e-03
1.135000e+03 3.464426e-03
1.136000e+03 1.255399e-03
1.137000e+03 4.849832e-03
1.138000e+03 4.346069e-03
1.139000e+03 5.910402e-03
1.140000e+03 5.658208e-03
1.141000e+03 5.448809e-03
1.142000e+03 5.785029e-03
1.143000e+03 3.958264e-03
1.144000e+03 5.538824e-03
1.145000e+03 1.806067e-05
1.146000e+03 6.033680e-03
1.147000e+03 6.050997e-03
1.148000e+03 2.678582e-04
1.149000e+03 5.777598e-03
1.150000e+03 5.728070e-03
1.151000e+03 5.903715e-03
1.152000e+03 5.742895e-03
1.153000e+03 5.662618e-03
1.154000e+03 5.523676e-03
1.155000e+03 5.321411e-03
1.156000e+03 4.095935e-03
1.157000e+03 5.162821e-03
1.158000e+03 4.229031e-03
1.159000e+03 5.301501e-03
1.160000e+03 4.593785e-03
1.161000e+03 4.871793e-03
1.162000e+03 1.017214e-03
1.163000e+03 2.784794e-03
1.164000e+03 9.047333e-06
1.165000e+03 2.721308e-03
1.166000e+03 1.393786e-03
1.167000e+03 8.982019e-04
1.168000e+03 5.528837e-03
1.169000e+03 5.612541e-03
1.170000e+03 9.347638e-04
1.171000e+03 2.475679e-03
1.172000e+03 1.954125e-03
1.173000e+03 1.668349e-03
1.174000e+03 1.324513e-04
1.175000e+03 8.679926e-06
1.176000e+03 2.786750e-06
1.177000e+03 7.222395e-03
1.178000e+03 6.810458e-03
1.179000e+03 6.456344e-03
1.180000e+03 5.783325e-03
1.181000e+03 5.816216e-03
1.182000e+03 5.619606e-03
1.183000e+03 5.196059e-03
1.184000e+03 5.003836e-03
1.185000e+03 4.839116e-03
1.186000e+03 7.411424e-04
1.187000e+03 4.630338e-03
1.188000e+03 4.273311e-03
1.189000e+03 4.422328e-03
1.190000e+03 4.291247e-03
1.191000e+03 4.037791e-03
1.192000e+03 3.636038e-03
1.193000e+03 3.583289e-03
1.194000e+03 3.477768e-03
1.195000e+03 3.315346e-03
1.196000e+03 5.872488e-02
1.197000e+03 5.601457e-02
1.198000e+03 4.490029e-03
1.199000e+03 4.800069e-02
1.200000e+03 1.515017e-02
1.201000e+03 3.821776e-02
1.202000e+03 3.093660e-02
1.203000e+03 2.821371e-02
1.204000e+03 1.199376e-02
1.205000e+03 1.848144e-02
1.206000e+03 1.419308e-02
1.207000e+03 1.647503e-03
1.208000e+03 6.395874e-03
1.209000e+03 4.651207e-03
1.210000e+03 1.668138e-05
1.211000e+03 1.569816e-03
1.212000e+03 7.471243e-04
1.213000e+03 2.986813e-04
1.214000e+03 8.096682e-05
1.215000e+03 1.356134e-05
1.216000e+03 1.200724e-05
1.217000e+03 4.993980e-05
1.218000e+03 2.439725e-04
1.219000e+03 7.248459e-04
1.220000e+03 1.620866e-03
1.221000e+03 3.409720e-03
1.222000e+03 6.302800e-03
1.223000e+03 1.011890e-02
1.224000e+03 1.463164e-02
1.225000e+03 5.436588e-03
1.226000e+03 3.216602e-02
1.227000e+03 4.396188e-02
1.228000e+03 4.157874e-02
1.229000e+03 7.115349e-02
1.230000e+03 5.810998e-02
1.231000e+03 3.505933e-02
1.232000e+03 1.194749e-01
1.233000e+03 1.384357e-01
1.234000e+03 1.238359e-01
1.235000e+03 1.748421e-01
1.236000e+03 1.262831e-01
1.237000e+03 2.124094e-01
1.238000e+03 2.312331e-01
1.239000e+03 2.359200e-01
1.240000e+03 3.208187e-02
1.241000e+03 2.526960e-01
1.242000e+03 3.031877e-01
1.243000e+03 3.237505e-01
1.244000e+03 3.435785e-01
1.245000e+03 3.588678e-01
1.246000e+03 3.677920e-01
1.247000e+03 3.892574e-01
1.248000e+03 2.670477e-01
1.249000e+03 4.272071e-01
1.250000e+03 3.785368e-01
1.251000e+03 4.706889e-01
1.252000e+03 4.620597e-01
1.253000e+03 4.973795e-01
1.254000e+03 4.933220e-01
1.255000e+03 1.100535e-01
1.256000e+03 4.563875e-01
1.257000e+03 3.359695e-01
1.258000e+03 4.987744e-01
1.259000e+03 5.343459e-01
1.260000e+03 5.834346e-01
1.261000e+03 1.265758e-02
1.262000e+03 6.069037e-01
1.263000e+03 5.356685e-01
1.264000e+03 5.749924e-01
1.265000e+03 3.171965e-01
1.266000e+03 7.225695e-01
1.267000e+03 7.570646e-01
