# wavelength_A flux
5.000000e+02 2.732683e-11
5.010000e+02 3.142103e-11
5.020000e+02 3.610786e-11
5.030000e+02 4.147004e-11
5.040000e+02 4.760150e-11
5.050000e+02 5.668006e-11
5.060000e+02 6.497426e-11
5.070000e+02 7.444068e-11
5.080000e+02 8.523925e-11
5.090000e+02 9.755582e-11
5.100000e+02 1.115847e-10
5.110000e+02 1.275627e-10
5.120000e+02 1.457493e-10
5.130000e+02 1.664393e-10
5.140000e+02 1.899651e-10
5.150000e+02 2.166974e-10
5.160000e+02 2.470697e-10
5.170000e+02 2.815304e-10
5.180000e+02 3.206671e-10
5.190000e+02 3.650341e-10
5.200000e+02 4.153255e-10
5.210000e+02 4.723023e-10
5.220000e+02 5.367344e-10
5.230000e+02 6.098451e-10
5.240000e+02 6.924578e-10
5.250000e+02 7.858758e-10
5.260000e+02 8.914439e-10
5.270000e+02 1.010693e-09
5.280000e+02 1.145330e-09
5.290000e+02 1.296810e-09
5.300000e+02 1.468647e-09
5.310000e+02 1.661864e-09
5.320000e+02 1.879606e-09
5.330000e+02 2.124849e-09
5.340000e+02 2.400948e-09
5.350000e+02 2.711637e-09
5.360000e+02 3.061057e-09
5.370000e+02 3.386677e-09
5.380000e+02 3.895360e-09
5.390000e+02 4.391209e-09
5.400000e+02 4.948141e-09
5.410000e+02 5.572411e-09
5.420000e+02 6.273786e-09
5.430000e+02 7.059573e-09
5.440000e+02 7.940211e-09
5.450000e+02 8.926713e-09
5.460000e+02 1.002893e-08
5.470000e+02 1.126762e-08
5.480000e+02 1.265070e-08
5.490000e+02 1.419744e-08
5.500000e+02 1.592626e-08
5.510000e+02 1.785797e-08
5.520000e+02 2.001533e-08
5.530000e+02 2.242373e-08
5.540000e+02 2.511125e-08
5.550000e+02 2.810898e-08
5.560000e+02 3.145135e-08
5.570000e+02 3.517643e-08
5.580000e+02 3.932634e-08
5.590000e+02 4.394765e-08
5.600000e+02 4.909181e-08
5.610000e+02 5.481568e-08
5.620000e+02 6.118200e-08
5.630000e+02 6.825997e-08
5.640000e+02 7.612612e-08
5.650000e+02 8.486455e-08
5.660000e+02 9.456906e-08
5.670000e+02 1.053410e-07
5.680000e+02 1.172940e-07
5.690000e+02 1.305519e-07
5.700000e+02 1.452514e-07
5.710000e+02 1.615441e-07
5.720000e+02 1.795946e-07
5.730000e+02 1.995854e-07
5.740000e+02 2.217167e-07
5.750000e+02 2.462146e-07
5.760000e+02 2.732480e-07
5.770000e+02 3.032710e-07
5.780000e+02 3.363915e-07
5.790000e+02 3.729910e-07
5.800000e+02 4.134193e-07
5.810000e+02 4.580606e-07
5.820000e+02 5.073350e-07
5.830000e+02 5.616968e-07
5.840000e+02 6.213916e-07
5.850000e+02 6.877389e-07
5.860000e+02 7.607005e-07
5.870000e+02 8.410265e-07
5.880000e+02 9.294977e-07
5.890000e+02 1.026882e-06
5.900000e+02 1.134134e-06
5.910000e+02 1.252108e-06
5.920000e+02 1.381889e-06
5.930000e+02 1.524586e-06
5.940000e+02 1.681438e-06
5.950000e+02 1.853683e-06
5.960000e+02 2.043120e-06
5.970000e+02 2.251020e-06
5.980000e+02 2.479238e-06
5.990000e+02 2.729676e-06
6.000000e+02 3.004409e-06
6.010000e+02 3.304559e-06
6.020000e+02 3.636000e-06
6.030000e+02 3.997978e-06
6.040000e+02 4.394583e-06
6.050000e+02 4.828943e-06
6.060000e+02 5.304508e-06
6.070000e+02 5.825054e-06
6.080000e+02 6.394620e-06
6.090000e+02 7.017632e-06
6.100000e+02 7.698883e-06
6.110000e+02 8.443648e-06
6.120000e+02 9.257524e-06
6.130000e+02 1.014667e-05
6.140000e+02 1.111776e-05
6.150000e+02 1.217802e-05
6.160000e+02 1.333529e-05
6.170000e+02 1.459805e-05
6.180000e+02 1.597550e-05
6.190000e+02 1.747763e-05
6.200000e+02 1.911522e-05
6.210000e+02 2.089997e-05
6.220000e+02 2.284452e-05
6.230000e+02 2.496255e-05
6.240000e+02 2.726889e-05
6.250000e+02 2.977953e-05
6.260000e+02 3.251178e-05
6.270000e+02 3.548432e-05
6.280000e+02 3.871744e-05
6.290000e+02 4.223290e-05
6.300000e+02 4.605432e-05
6.310000e+02 5.020612e-05
6.320000e+02 5.471878e-05
6.330000e+02 5.961889e-05
6.340000e+02 6.493968e-05
6.350000e+02 7.071532e-05
6.360000e+02 7.681283e-05
6.370000e+02 8.378324e-05
6.380000e+02 9.115871e-05
6.390000e+02 9.915601e-05
6.400000e+02 1.078254e-04
6.410000e+02 1.172208e-04
6.420000e+02 1.274003e-04
6.430000e+02 1.384263e-04
6.440000e+02 1.503660e-04
6.450000e+02 1.632918e-04
6.460000e+02 1.772817e-04
6.470000e+02 1.924189e-04
6.480000e+02 2.087936e-04
6.490000e+02 2.265021e-04
6.500000e+02 2.456483e-04
6.510000e+02 2.663434e-04
6.520000e+02 2.887074e-04
6.530000e+02 3.128683e-04
6.540000e+02 3.389642e-04
6.550000e+02 3.671428e-04
6.560000e+02 3.975627e-04
6.570000e+02 4.303800e-04
6.580000e+02 4.658194e-04
6.590000e+02 5.040339e-04
6.600000e+02 5.452433e-04
6.610000e+02 5.896828e-04
6.620000e+02 6.375826e-04
6.630000e+02 6.892040e-04
6.640000e+02 7.448223e-04
6.650000e+02 8.047288e-04
6.660000e+02 8.692502e-04
6.670000e+02 9.387134e-04
6.680000e+02 1.013484e-03
6.690000e+02 1.093948e-03
6.700000e+02 1.180518e-03
6.710000e+02 1.273636e-03
6.720000e+02 1.373769e-03
6.730000e+02 1.481438e-03
6.740000e+02 1.597165e-03
6.750000e+02 1.721530e-03
6.760000e+02 1.855148e-03
6.770000e+02 1.998673e-03
6.780000e+02 2.152809e-03
6.790000e+02 2.318301e-03
6.800000e+02 2.495945e-03
6.810000e+02 2.686591e-03
6.820000e+02 2.891145e-03
6.830000e+02 3.110575e-03
6.840000e+02 3.345908e-03
6.850000e+02 3.598208e-03
6.860000e+02 3.868748e-03
6.870000e+02 4.158624e-03
6.880000e+02 4.469329e-03
6.890000e+02 4.802144e-03
6.900000e+02 5.158619e-03
6.910000e+02 5.540360e-03
6.920000e+02 5.949053e-03
6.930000e+02 6.386526e-03
6.940000e+02 6.854699e-03
6.950000e+02 7.355622e-03
6.960000e+02 7.891475e-03
6.970000e+02 8.464400e-03
6.980000e+02 9.077379e-03
6.990000e+02 9.732507e-03
7.000000e+02 1.043274e-02
7.010000e+02 1.118103e-02
7.020000e+02 1.198050e-02
7.030000e+02 1.283450e-02
7.040000e+02 1.374655e-02
7.050000e+02 1.472041e-02
7.060000e+02 1.576001e-02
7.070000e+02 1.686968e-02
7.080000e+02 1.805382e-02
7.090000e+02 1.931699e-02
7.100000e+02 2.066484e-02
7.110000e+02 2.210210e-02
7.120000e+02 2.363465e-02
7.130000e+02 2.526844e-02
7.140000e+02 2.700988e-02
7.150000e+02 2.886566e-02
7.160000e+02 3.084302e-02
7.170000e+02 3.294917e-02
7.180000e+02 3.519209e-02
7.190000e+02 3.758170e-02
7.200000e+02 4.012511e-02
7.210000e+02 4.283246e-02
7.220000e+02 4.571382e-02
7.230000e+02 4.877977e-02
7.240000e+02 5.204154e-02
7.250000e+02 5.551099e-02
7.260000e+02 5.920035e-02
7.270000e+02 6.312392e-02
7.280000e+02 6.729464e-02
7.290000e+02 7.172769e-02
7.300000e+02 7.643881e-02
7.310000e+02 8.144438e-02
7.320000e+02 8.676191e-02
7.330000e+02 9.240973e-02
7.340000e+02 9.840757e-02
7.350000e+02 1.047758e-01
7.360000e+02 1.115360e-01
7.370000e+02 1.187114e-01
7.380000e+02 1.263260e-01
7.390000e+02 1.344051e-01
7.400000e+02 1.429746e-01
7.410000e+02 1.520661e-01
7.420000e+02 1.617049e-01
7.430000e+02 1.719277e-01
7.440000e+02 1.827635e-01
7.450000e+02 1.942486e-01
7.460000e+02 2.064200e-01
7.470000e+02 2.193165e-01
7.480000e+02 2.329790e-01
7.490000e+02 2.474505e-01
7.500000e+02 2.627765e-01
7.510000e+02 2.790047e-01
7.520000e+02 2.961853e-01
7.530000e+02 3.143714e-01
7.540000e+02 3.336186e-01
7.550000e+02 3.539853e-01
7.560000e+02 3.755336e-01
7.570000e+02 3.983071e-01
7.580000e+02 4.224364e-01
7.590000e+02 4.479277e-01
7.600000e+02 4.748865e-01
7.610000e+02 5.033845e-01
7.620000e+02 5.335064e-01
7.630000e+02 5.653391e-01
7.640000e+02 5.989755e-01
7.650000e+02 6.345111e-01
7.660000e+02 6.720503e-01
7.670000e+02 7.116968e-01
7.680000e+02 7.535571e-01
7.690000e+02 7.977687e-01
7.700000e+02 8.444349e-01
7.710000e+02 8.936915e-01
7.720000e+02 9.456740e-01
7.730000e+02 1.000527e+00
7.740000e+02 1.058398e+00
7.750000e+02 1.119446e+00
7.760000e+02 1.183552e+00
7.770000e+02 1.251735e+00
7.780000e+02 1.323332e+00
7.790000e+02 1.398812e+00
7.800000e+02 1.478376e+00
7.810000e+02 1.562230e+00
7.820000e+02 1.650596e+00
7.830000e+02 1.743700e+00
7.840000e+02 1.841787e+00
7.850000e+02 1.945104e+00
7.860000e+02 2.053908e+00
7.870000e+02 2.168505e+00
7.880000e+02 2.289145e+00
7.890000e+02 2.416147e+00
7.900000e+02 2.549827e+00
7.910000e+02 2.690512e+00
7.920000e+02 2.838557e+00
7.930000e+02 2.994320e+00
7.940000e+02 3.158182e+00
7.950000e+02 3.330539e+00
7.960000e+02 3.511807e+00
7.970000e+02 3.702420e+00
7.980000e+02 3.902833e+00
7.990000e+02 4.113520e+00
8.000000e+02 4.334980e+00
8.010000e+02 4.567699e+00
8.020000e+02 4.812305e+00
8.030000e+02 5.069287e+00
8.040000e+02 5.339262e+00
8.050000e+02 5.622848e+00
8.060000e+02 5.920692e+00
8.070000e+02 6.233469e+00
8.080000e+02 6.561877e+00
8.090000e+02 6.906669e+00
8.100000e+02 7.268605e+00
8.110000e+02 7.648489e+00
8.120000e+02 8.047155e+00
8.130000e+02 8.465488e+00
8.140000e+02 8.904392e+00
8.150000e+02 9.364805e+00
8.160000e+02 9.847773e+00
8.170000e+02 1.035425e+01
8.180000e+02 1.088542e+01
8.190000e+02 1.144233e+01
8.200000e+02 1.202619e+01
8.210000e+02 1.263819e+01
8.220000e+02 1.327966e+01
8.230000e+02 1.395191e+01
8.240000e+02 1.465634e+01
8.250000e+02 1.539438e+01
8.260000e+02 1.616755e+01
8.270000e+02 1.697742e+01
8.280000e+02 1.782563e+01
8.290000e+02 1.871387e+01
8.300000e+02 1.964396e+01
8.310000e+02 2.061771e+01
8.320000e+02 2.163706e+01
8.330000e+02 2.270402e+01
8.340000e+02 2.382068e+01
8.350000e+02 2.498600e+01
8.360000e+02 2.621171e+01
8.370000e+02 2.749106e+01
8.380000e+02 2.882822e+01
8.390000e+02 3.022880e+01
8.400000e+02 3.169254e+01
8.410000e+02 3.322323e+01
8.420000e+02 3.482275e+01
8.430000e+02 3.649693e+01
8.440000e+02 3.824609e+01
8.450000e+02 4.007436e+01
8.460000e+02 4.198512e+01
8.470000e+02 4.398184e+01
8.480000e+02 4.606817e+01
8.490000e+02 4.824788e+01
8.500000e+02 5.052489e+01
8.510000e+02 5.290327e+01
8.520000e+02 5.538705e+01
8.530000e+02 5.798122e+01
8.540000e+02 6.069018e+01
8.550000e+02 6.351811e+01
8.560000e+02 6.647028e+01
8.570000e+02 6.955187e+01
8.580000e+02 7.276799e+01
8.590000e+02 7.612451e+01
8.600000e+02 7.962695e+01
8.610000e+02 8.328129e+01
8.620000e+02 8.709370e+01
8.630000e+02 9.107034e+01
8.640000e+02 9.521864e+01
8.650000e+02 9.954414e+01
8.660000e+02 1.040560e+02
8.670000e+02 1.087599e+02
8.680000e+02 1.136642e+02
8.690000e+02 1.187768e+02
8.700000e+02 1.241059e+02
8.710000e+02 1.296604e+02
8.720000e+02 1.354489e+02
8.730000e+02 1.414806e+02
8.740000e+02 1.477655e+02
8.750000e+02 1.543132e+02
8.760000e+02 1.611340e+02
8.770000e+02 1.682378e+02
8.780000e+02 1.756385e+02
8.790000e+02 1.833445e+02
8.800000e+02 1.913688e+02
8.810000e+02 1.997236e+02
8.820000e+02 2.084216e+02
8.830000e+02 2.174762e+02
8.840000e+02 2.269008e+02
8.850000e+02 2.367097e+02
8.860000e+02 2.469176e+02
8.870000e+02 2.575395e+02
8.880000e+02 2.685913e+02
8.890000e+02 2.800892e+02
8.900000e+02 2.920500e+02
8.910000e+02 3.044911e+02
8.920000e+02 3.168234e+02
8.930000e+02 3.308871e+02
8.940000e+02 3.448799e+02
8.950000e+02 3.594287e+02
8.960000e+02 3.745551e+02
8.970000e+02 3.902796e+02
8.980000e+02 4.066245e+02
8.990000e+02 4.236128e+02
9.000000e+02 4.412680e+02
9.010000e+02 4.596148e+02
9.020000e+02 4.786782e+02
9.030000e+02 4.984833e+02
9.040000e+02 5.190497e+02
9.050000e+02 5.404305e+02
9.060000e+02 5.626342e+02
9.070000e+02 5.856727e+02
9.080000e+02 6.096362e+02
9.090000e+02 6.344993e+02
9.100000e+02 6.603154e+02
9.110000e+02 6.871223e+02
9.120000e+02 7.149744e+02
9.130000e+02 7.260073e+02
9.140000e+02 7.980789e+02
9.150000e+02 5.103415e+03
9.160000e+02 1.253528e+04
9.170000e+02 1.299379e+04
9.180000e+02 1.336404e+04
9.190000e+02 1.390495e+04
9.200000e+02 1.437050e+04
9.210000e+02 9.717015e+02
9.220000e+02 1.530679e+04
9.230000e+02 1.570600e+04
9.240000e+02 1.540433e+04
9.250000e+02 1.662259e+04
9.260000e+02 1.733180e+04
9.270000e+02 1.794981e+04
9.280000e+02 1.855890e+04
9.290000e+02 1.738790e+04
9.300000e+02 1.949742e+04
9.310000e+02 2.022270e+04
9.320000e+02 2.106666e+04
9.330000e+02 2.168050e+04
9.340000e+02 2.239783e+04
9.350000e+02 6.718943e+03
9.360000e+02 2.378652e+04
9.370000e+02 4.773528e+03
9.380000e+02 8.963614e+03
9.390000e+02 2.619694e+04
9.400000e+02 2.703386e+04
9.410000e+02 1.181323e+04
9.420000e+02 2.876755e+04
9.430000e+02 2.957301e+04
9.440000e+02 2.193425e+04
9.450000e+02 3.152705e+04
9.460000e+02 3.250933e+04
9.470000e+02 1.825885e+04
9.480000e+02 2.692051e+04
9.490000e+02 3.528972e+04
9.500000e+02 6.682193e+03
9.510000e+02 3.696436e+04
9.520000e+02 3.901388e+04
9.530000e+02 3.977851e+04
9.540000e+02 3.362946e+04
9.550000e+02 4.274607e+04
9.560000e+02 2.894677e+04
9.570000e+02 3.386846e+04
9.580000e+02 4.650480e+04
9.590000e+02 4.838450e+04
9.600000e+02 1.065662e+04
9.610000e+02 5.097626e+04
9.620000e+02 5.287278e+04
9.630000e+02 5.451912e+04
9.640000e+02 5.423152e+03
9.650000e+02 5.286286e+04
9.660000e+02 5.955063e+04
9.670000e+02 6.070294e+04
9.680000e+02 6.285566e+04
9.690000e+02 6.459449e+04
9.700000e+02 6.673040e+04
9.710000e+02 6.816141e+04
9.720000e+02 6.474116e+04
9.730000e+02 6.491482e+04
9.740000e+02 7.389863e+04
9.750000e+02 7.713033e+04
9.760000e+02 7.953354e+04
9.770000e+02 8.199448e+04
9.780000e+02 8.418208e+04
9.790000e+02 8.690905e+04
9.800000e+02 8.940309e+04
9.810000e+02 9.203931e+04
9.820000e+02 9.448370e+04
9.830000e+02 9.738405e+04
9.840000e+02 4.369180e+04
9.850000e+02 1.030898e+05
9.860000e+02 1.060335e+05
9.870000e+02 1.090703e+05
9.880000e+02 1.117340e+05
9.890000e+02 9.758404e+04
9.900000e+02 1.657549e+04
9.910000e+02 1.210487e+05
9.920000e+02 1.066445e+05
9.930000e+02 1.206926e+05
9.940000e+02 2.186864e+04
9.950000e+02 4.087856e+04
9.960000e+02 7.371604e+04
9.970000e+02 3.028138e+04
9.980000e+02 1.478420e+05
9.990000e+02 1.490920e+05
1.000000e+03 1.565567e+05
1.001000e+03 1.609143e+05
1.002000e+03 1.653234e+05
1.003000e+03 1.633202e+05
1.004000e+03 1.743401e+05
1.005000e+03 1.681533e+05
1.006000e+03 1.843202e+05
1.007000e+03 1.880810e+05
1.008000e+03 1.940237e+05
1.009000e+03 1.970910e+05
1.010000e+03 2.052154e+05
1.011000e+03 2.107581e+05
1.012000e+03 2.164333e+05
1.013000e+03 2.222516e+05
1.014000e+03 2.262464e+05
1.015000e+03 2.319857e+05
1.016000e+03 2.401591e+05
1.017000e+03 2.449631e+05
1.018000e+03 2.529526e+05
1.019000e+03 2.590015e+05
1.020000e+03 2.659420e+05
1.021000e+03 1.575206e+05
1.022000e+03 2.589428e+05
1.023000e+03 2.801231e+05
1.024000e+03 2.487208e+05
1.025000e+03 2.092312e+05
1.026000e+03 9.750996e+04
1.027000e+03 2.671730e+05
1.028000e+03 9.288022e+04
1.029000e+03 3.294274e+05
1.030000e+03 3.379559e+05
1.031000e+03 3.536276e+05
1.032000e+03 3.612177e+05
1.033000e+03 1.955326e+05
1.034000e+03 3.842595e+05
1.035000e+03 9.025731e+04
1.036000e+03 3.726925e+05
1.037000e+03 6.283794e+04
1.038000e+03 4.264802e+05
1.039000e+03 4.338031e+05
1.040000e+03 4.489170e+05
1.041000e+03 4.550138e+05
1.042000e+03 4.704362e+05
1.043000e+03 4.712400e+05
1.044000e+03 4.962625e+05
1.045000e+03 5.086647e+05
1.046000e+03 5.227285e+05
1.047000e+03 5.357462e+05
1.048000e+03 5.477070e+05
1.049000e+03 5.355032e+05
1.050000e+03 5.775228e+05
1.051000e+03 5.921370e+05
1.052000e+03 6.071766e+05
1.053000e+03 6.189445e+05
1.054000e+03 6.289346e+05
1.055000e+03 6.254923e+05
1.056000e+03 6.702102e+05
1.057000e+03 6.867348e+05
1.058000e+03 7.034784e+05
1.059000e+03 7.207459e+05
1.060000e+03 7.381398e+05
1.061000e+03 7.573322e+05
1.062000e+03 7.758309e+05
1.063000e+03 2.711278e+05
1.064000e+03 1.764719e+05
1.065000e+03 8.323219e+05
1.066000e+03 6.072941e+05
1.067000e+03 8.675365e+05
1.068000e+03 8.998932e+05
1.069000e+03 8.896453e+05
1.070000e+03 9.395029e+05
1.071000e+03 9.672809e+05
1.072000e+03 9.905714e+05
1.073000e+03 1.010367e+06
1.074000e+03 1.038695e+06
1.075000e+03 1.063455e+06
1.076000e+03 1.089138e+06
1.077000e+03 1.113545e+06
1.078000e+03 1.141432e+06
1.079000e+03 1.166694e+06
1.080000e+03 1.196509e+06
1.081000e+03 1.224955e+06
1.082000e+03 1.253298e+06
1.083000e+03 1.282301e+06
1.084000e+03 1.311308e+06
1.085000e+03 9.127529e+05
1.086000e+03 1.376096e+06
1.087000e+03 1.406900e+06
1.088000e+03 1.436523e+06
1.089000e+03 1.474389e+06
1.090000e+03 1.507490e+06
1.091000e+03 1.536087e+06
1.092000e+03 1.579051e+06
1.093000e+03 1.614313e+06
1.094000e+03 1.652796e+06
1.095000e+03 1.690146e+06
1.096000e+03 1.729233e+06
1.097000e+03 1.688456e+06
1.098000e+03 1.769096e+06
1.099000e+03 1.849521e+06
1.100000e+03 1.729346e+06
1.101000e+03 1.762930e+06
1.102000e+03 4.023576e+06
1.103000e+03 1.330688e+07
1.104000e+03 5.531528e+06
1.105000e+03 1.926966e+06
1.106000e+03 3.814490e+07
1.107000e+03 3.342755e+07
1.108000e+03 3.739439e+07
1.109000e+03 1.952310e+07
1.110000e+03 9.384711e+06
1.111000e+03 4.724792e+06
1.112000e+03 3.206791e+07
1.113000e+03 4.340620e+07
1.114000e+03 1.562210e+06
1.115000e+03 4.214625e+07
1.116000e+03 4.409421e+07
1.117000e+03 1.871472e+06
1.118000e+03 2.559551e+07
1.119000e+03 4.758303e+07
1.120000e+03 4.745624e+07
1.121000e+03 4.506662e+07
1.122000e+03 6.470800e+05
1.123000e+03 3.240028e+06
1.124000e+03 5.166751e+07
1.125000e+03 2.584474e+07
1.126000e+03 5.368114e+07
1.127000e+03 5.214064e+07
1.128000e+03 2.862929e+07
1.129000e+03 5.444736e+07
1.130000e+03 4.028728e+07
1.131000e+03 5.856053e+07
1.132000e+03 1.911216e+06
1.133000e+03 4.580321e+07
1.134000e+03 5.397736e+07
1.135000e+03 1.033568e+06
1.136000e+03 6.273626e+07
1.137000e+03 6.467051e+07
1.138000e+03 6.569056e+07
1.139000e+03 6.490849e+07
1.140000e+03 1.268424e+06
1.141000e+03 6.924866e+07
1.142000e+03 6.950950e+07
1.143000e+03 7.139456e+07
1.144000e+03 7.277707e+07
1.145000e+03 5.692895e+07
1.146000e+03 7.513628e+07
1.147000e+03 7.505426e+07
1.148000e+03 7.535515e+07
1.149000e+03 7.885196e+07
1.150000e+03 7.917815e+07
1.151000e+03 8.091304e+07
1.152000e+03 8.276746e+07
1.153000e+03 2.353264e+07
1.154000e+03 4.144360e+06
1.155000e+03 4.915114e+07
1.156000e+03 1.200721e+07
1.157000e+03 8.929092e+07
1.158000e+03 1.898048e+06
1.159000e+03 6.548730e+07
1.160000e+03 9.127512e+07
1.161000e+03 9.609638e+07
1.162000e+03 2.233657e+07
1.163000e+03 9.816997e+07
1.164000e+03 3.345728e+06
1.165000e+03 1.024526e+08
1.166000e+03 1.037012e+08
1.167000e+03 1.046826e+08
1.168000e+03 1.081183e+08
1.169000e+03 1.050942e+08
1.170000e+03 1.119194e+08
1.171000e+03 1.139662e+08
1.172000e+03 1.148804e+08
1.173000e+03 1.177188e+08
1.174000e+03 1.154618e+08
1.175000e+03 3.966888e+06
1.176000e+03 3.158792e+06
1.177000e+03 1.256434e+08
1.178000e+03 1.227331e+08
1.179000e+03 1.298111e+08
1.180000e+03 1.084556e+08
1.181000e+03 1.331789e+08
1.182000e+03 1.359735e+08
1.183000e+03 1.378257e+08
1.184000e+03 1.396309e+08
1.185000e+03 1.394068e+08
1.186000e+03 1.423928e+08
1.187000e+03 1.447145e+08
1.188000e+03 1.452093e+08
1.189000e+03 3.713616e+06
1.190000e+03 1.237512e+07
1.191000e+03 1.466761e+08
1.192000e+03 1.475874e+08
1.193000e+03 3.362712e+06
1.194000e+03 4.345824e+06
1.195000e+03 1.151912e+08
1.196000e+03 1.495449e+08
1.197000e+03 1.967898e+08
1.198000e+03 1.970715e+08
1.199000e+03 1.914904e+08
1.200000e+03 1.694507e+08
1.201000e+03 1.775242e+08
1.202000e+03 1.747742e+08
1.203000e+03 1.966369e+08
1.204000e+03 1.778737e+08
1.205000e+03 1.633242e+08
1.206000e+03 1.467220e+08
1.207000e+03 3.046160e+07
1.208000e+03 1.078024e+08
1.209000e+03 8.130038e+07
1.210000e+03 7.037080e+06
1.211000e+03 4.645053e+07
1.212000e+03 2.883859e+07
1.213000e+03 1.819424e+07
1.214000e+03 1.043621e+07
1.215000e+03 6.451336e+06
1.216000e+03 5.778602e+06
1.217000e+03 9.196433e+06
1.218000e+03 1.653264e+07
1.219000e+03 2.928858e+07
1.220000e+03 4.784350e+07
1.221000e+03 7.165869e+07
1.222000e+03 9.968898e+07
1.223000e+03 1.308813e+08
1.224000e+03 1.646820e+08
1.225000e+03 1.991739e+08
1.226000e+03 2.358596e+08
1.227000e+03 2.696753e+08
1.228000e+03 3.105922e+08
1.229000e+03 3.482378e+08
1.230000e+03 3.832244e+08
1.231000e+03 4.211934e+08
1.232000e+03 4.594352e+08
1.233000e+03 4.955349e+08
1.234000e+03 3.103906e+08
1.235000e+03 5.646851e+08
1.236000e+03 5.950814e+08
1.237000e+03 6.313226e+08
1.238000e+03 6.635728e+08
1.239000e+03 6.949053e+08
1.240000e+03 6.634740e+08
1.241000e+03 1.167024e+09
1.242000e+03 6.672041e+08
1.243000e+03 9.573206e+08
1.244000e+03 4.191418e+08
1.245000e+03 6.232877e+08
1.246000e+03 1.869612e+09
1.247000e+03 1.896827e+09
1.248000e+03 4.587652e+08
1.249000e+03 5.647260e+08
1.250000e+03 2.328577e+09
1.251000e+03 2.424161e+09
1.252000e+03 2.512088e+09
1.253000e+03 2.682293e+09
1.254000e+03 2.755131e+09
1.255000e+03 2.884681e+09
1.256000e+03 2.955594e+09
1.257000e+03 3.116562e+09
1.258000e+03 3.120856e+09
1.259000e+03 3.098772e+09
1.260000e+03 2.321331e+09
1.261000e+03 1.467732e+07
1.262000e+03 2.826024e+08
1.263000e+03 3.520751e+09
1.264000e+03 3.039337e+09
1.265000e+03 1.461248e+07
1.266000e+03 3.801920e+09
1.267000e+03 4.117659e+09
