# wavelength_A flux
5.000000e+02 0.000000e+00
5.010000e+02 0.000000e+00
5.020000e+02 0.000000e+00
5.030000e+02 0.000000e+00
5.040000e+02 0.000000e+00
5.050000e+02 0.000000e+00
5.060000e+02 0.000000e+00
5.070000e+02 0.000000e+00
5.080000e+02 0.000000e+00
5.090000e+02 0.000000e+00
5.100000e+02 0.000000e+00
5.110000e+02 0.000000e+00
5.120000e+02 0.000000e+00
5.130000e+02 0.000000e+00
5.140000e+02 1.401298e-45
5.150000e+02 1.401298e-45
5.160000e+02 1.401298e-45
5.170000e+02 1.401298e-45
5.180000e+02 2.802597e-45
5.190000e+02 2.802597e-45
5.200000e+02 4.203895e-45
5.210000e+02 5.605194e-45
5.220000e+02 7.006492e-45
5.230000e+02 9.809089e-45
5.240000e+02 1.401298e-44
5.250000e+02 1.821688e-44
5.260000e+02 2.382207e-44
5.270000e+02 3.082857e-44
5.280000e+02 4.063766e-44
5.290000e+02 5.324934e-44
5.300000e+02 7.006492e-44
5.310000e+02 9.248570e-44
5.320000e+02 1.219130e-43
5.330000e+02 1.597480e-43
5.340000e+02 2.087935e-43
5.350000e+02 2.732532e-43
5.360000e+02 3.573311e-43
5.370000e+02 4.666324e-43
5.380000e+02 6.081635e-43
5.390000e+02 7.931349e-43
5.400000e+02 1.032757e-42
5.410000e+02 1.342444e-42
5.420000e+02 1.744617e-42
5.430000e+02 2.263097e-42
5.440000e+02 2.935720e-42
5.450000e+02 3.801723e-42
5.460000e+02 4.919959e-42
5.470000e+02 6.361895e-42
5.480000e+02 8.217214e-42
5.490000e+02 1.060503e-41
5.500000e+02 1.367107e-41
5.510000e+02 1.760872e-41
5.520000e+02 2.266040e-41
5.530000e+02 2.913300e-41
5.540000e+02 3.742027e-41
5.550000e+02 4.801970e-41
5.560000e+02 6.156605e-41
5.570000e+02 7.886227e-41
5.580000e+02 1.009257e-40
5.590000e+02 1.290470e-40
5.600000e+02 1.648544e-40
5.610000e+02 2.104120e-40
5.620000e+02 2.683234e-40
5.630000e+02 3.418706e-40
5.640000e+02 4.351971e-40
5.650000e+02 5.535185e-40
5.660000e+02 7.034014e-40
5.670000e+02 8.930994e-40
5.680000e+02 1.132986e-39
5.690000e+02 1.436083e-39
5.700000e+02 1.818723e-39
5.710000e+02 2.301375e-39
5.720000e+02 2.909674e-39
5.730000e+02 3.675693e-39
5.740000e+02 4.639528e-39
5.750000e+02 5.851267e-39
5.760000e+02 7.373432e-39
5.770000e+02 9.283995e-39
5.780000e+02 1.168012e-38
5.790000e+02 1.468280e-38
5.800000e+02 1.844256e-38
5.810000e+02 2.314655e-38
5.820000e+02 2.902725e-38
5.830000e+02 3.637323e-38
5.840000e+02 4.554239e-38
5.850000e+02 5.697834e-38
5.860000e+02 7.123038e-38
5.870000e+02 8.897831e-38
5.880000e+02 1.110627e-37
5.890000e+02 1.385220e-37
5.900000e+02 1.726386e-37
5.910000e+02 2.149945e-37
5.920000e+02 2.675400e-37
5.930000e+02 3.326776e-37
5.940000e+02 4.133649e-37
5.950000e+02 5.132399e-37
5.960000e+02 6.367747e-37
5.970000e+02 7.894620e-37
5.980000e+02 9.780442e-37
5.990000e+02 1.210790e-36
6.000000e+02 1.497837e-36
6.010000e+02 1.851597e-36
6.020000e+02 2.287265e-36
6.030000e+02 2.823424e-36
6.040000e+02 3.482788e-36
6.050000e+02 4.293096e-36
6.060000e+02 5.288207e-36
6.070000e+02 6.509418e-36
6.080000e+02 8.007060e-36
6.090000e+02 9.842441e-36
6.100000e+02 1.209018e-35
6.110000e+02 1.484105e-35
6.120000e+02 1.820538e-35
6.130000e+02 2.231719e-35
6.140000e+02 2.733917e-35
6.150000e+02 3.346870e-35
6.160000e+02 4.094505e-35
6.170000e+02 5.005810e-35
6.180000e+02 6.115884e-35
6.190000e+02 7.467192e-35
6.200000e+02 9.111086e-35
6.210000e+02 1.110961e-34
6.220000e+02 1.353771e-34
6.230000e+02 1.648581e-34
6.240000e+02 2.006299e-34
6.250000e+02 2.440071e-34
6.260000e+02 2.965733e-34
6.270000e+02 3.602350e-34
6.280000e+02 4.372857e-34
6.290000e+02 5.304830e-34
6.300000e+02 6.431405e-34
6.310000e+02 7.792371e-34
6.320000e+02 9.435485e-34
6.330000e+02 1.141802e-33
6.340000e+02 1.380863e-33
6.350000e+02 1.668957e-33
6.360000e+02 2.015930e-33
6.370000e+02 2.433564e-33
6.380000e+02 2.935950e-33
6.390000e+02 3.539923e-33
6.400000e+02 4.265599e-33
6.410000e+02 5.136983e-33
6.420000e+02 6.182718e-33
6.430000e+02 7.436957e-33
6.440000e+02 8.940394e-33
6.450000e+02 1.074150e-32
6.460000e+02 1.289796e-32
6.470000e+02 1.547842e-32
6.480000e+02 1.856447e-32
6.490000e+02 2.225306e-32
6.500000e+02 2.665937e-32
6.510000e+02 3.192006e-32
6.520000e+02 3.819729e-32
6.530000e+02 4.568329e-32
6.540000e+02 5.460590e-32
6.550000e+02 6.523490e-32
6.560000e+02 7.788968e-32
6.570000e+02 9.294808e-32
6.580000e+02 1.108569e-31
6.590000e+02 1.321440e-31
6.600000e+02 1.574332e-31
6.610000e+02 1.874606e-31
6.620000e+02 2.230949e-31
6.630000e+02 2.653605e-31
6.640000e+02 3.154650e-31
6.650000e+02 3.748307e-31
6.660000e+02 4.451326e-31
6.670000e+02 5.283418e-31
6.680000e+02 6.267766e-31
6.690000e+02 7.431626e-31
6.700000e+02 8.807027e-31
6.710000e+02 1.043158e-30
6.720000e+02 1.234944e-30
6.730000e+02 1.461241e-30
6.740000e+02 1.728124e-30
6.750000e+02 2.042712e-30
6.760000e+02 2.413347e-30
6.770000e+02 2.849797e-30
6.780000e+02 3.363490e-30
6.790000e+02 3.967800e-30
6.800000e+02 4.678360e-30
6.810000e+02 5.513440e-30
6.820000e+02 6.494382e-30
6.830000e+02 7.646101e-30
6.840000e+02 8.997676e-30
6.850000e+02 1.058302e-29
6.860000e+02 1.244167e-29
6.870000e+02 1.461971e-29
6.880000e+02 1.717080e-29
6.890000e+02 2.015742e-29
6.900000e+02 2.365227e-29
6.910000e+02 2.773993e-29
6.920000e+02 3.251870e-29
6.930000e+02 3.810282e-29
6.940000e+02 4.462502e-29
6.950000e+02 5.223933e-29
6.960000e+02 6.112456e-29
6.970000e+02 7.148808e-29
6.980000e+02 8.357034e-29
6.990000e+02 9.764999e-29
7.000000e+02 1.140498e-28
7.010000e+02 1.331436e-28
7.020000e+02 1.553638e-28
7.030000e+02 1.812110e-28
7.040000e+02 2.112637e-28
7.050000e+02 2.461908e-28
7.060000e+02 2.867650e-28
7.070000e+02 3.338786e-28
7.080000e+02 3.885619e-28
7.090000e+02 4.520033e-28
7.100000e+02 5.255739e-28
7.110000e+02 6.108538e-28
7.120000e+02 7.096646e-28
7.130000e+02 8.241042e-28
7.140000e+02 9.565879e-28
7.150000e+02 1.109896e-27
7.160000e+02 1.287227e-27
7.170000e+02 1.492259e-27
7.180000e+02 1.729220e-27
7.190000e+02 2.002968e-27
7.200000e+02 2.319084e-27
7.210000e+02 2.683972e-27
7.220000e+02 3.104986e-27
7.230000e+02 3.590559e-27
7.240000e+02 4.150362e-27
7.250000e+02 4.795482e-27
7.260000e+02 5.538619e-27
7.270000e+02 6.394322e-27
7.280000e+02 7.379247e-27
7.290000e+02 8.512453e-27
7.300000e+02 9.815748e-27
7.310000e+02 1.131407e-26
7.320000e+02 1.303591e-26
7.330000e+02 1.501385e-26
7.340000e+02 1.728509e-26
7.350000e+02 1.989211e-26
7.360000e+02 2.288338e-26
7.370000e+02 2.631421e-26
7.380000e+02 3.024768e-26
7.390000e+02 3.475570e-26
7.400000e+02 3.992024e-26
7.410000e+02 4.583463e-26
7.420000e+02 5.260520e-26
7.430000e+02 6.035297e-26
7.440000e+02 6.921565e-26
7.450000e+02 7.934988e-26
7.460000e+02 9.093378e-26
7.470000e+02 1.041698e-25
7.480000e+02 1.192880e-25
7.490000e+02 1.365497e-25
7.500000e+02 1.562515e-25
7.510000e+02 1.787303e-25
7.520000e+02 2.043680e-25
7.530000e+02 2.335980e-25
7.540000e+02 2.669116e-25
7.550000e+02 3.048658e-25
7.560000e+02 3.480915e-25
7.570000e+02 3.973033e-25
7.580000e+02 4.533103e-25
7.590000e+02 5.170283e-25
7.600000e+02 5.894934e-25
7.610000e+02 6.718776e-25
7.620000e+02 7.655058e-25
7.630000e+02 8.718758e-25
7.640000e+02 9.926795e-25
7.650000e+02 1.129828e-24
7.660000e+02 1.285480e-24
7.670000e+02 1.462071e-24
7.680000e+02 1.662349e-24
7.690000e+02 1.889416e-24
7.700000e+02 2.146765e-24
7.710000e+02 2.438339e-24
7.720000e+02 2.768577e-24
7.730000e+02 3.142483e-24
7.740000e+02 3.565688e-24
7.750000e+02 4.044535e-24
7.760000e+02 4.586159e-24
7.770000e+02 5.198591e-24
7.780000e+02 5.890858e-24
7.790000e+02 6.673114e-24
7.800000e+02 7.556768e-24
7.810000e+02 8.554640e-24
7.820000e+02 9.681132e-24
7.830000e+02 1.095241e-23
7.840000e+02 1.238663e-23
7.850000e+02 1.400415e-23
7.860000e+02 1.582783e-23
7.870000e+02 1.788328e-23
7.880000e+02 2.019924e-23
7.890000e+02 2.280790e-23
7.900000e+02 2.574533e-23
7.910000e+02 2.905195e-23
7.920000e+02 3.277298e-23
7.930000e+02 3.695909e-23
7.940000e+02 4.166694e-23
7.950000e+02 4.695993e-23
7.960000e+02 5.290899e-23
7.970000e+02 5.959338e-23
7.980000e+02 6.710172e-23
7.990000e+02 7.553303e-23
8.000000e+02 8.499791e-23
8.010000e+02 9.561987e-23
8.020000e+02 1.075368e-22
8.030000e+02 1.209026e-22
8.040000e+02 1.358890e-22
8.050000e+02 1.526876e-22
8.060000e+02 1.715118e-22
8.070000e+02 1.925998e-22
8.080000e+02 2.162169e-22
8.090000e+02 2.426587e-22
8.100000e+02 2.722546e-22
8.110000e+02 3.053711e-22
8.120000e+02 3.424164e-22
8.130000e+02 3.838447e-22
8.140000e+02 4.301614e-22
8.150000e+02 4.819285e-22
8.160000e+02 5.397710e-22
8.170000e+02 6.043838e-22
8.180000e+02 6.765387e-22
8.190000e+02 7.570938e-22
8.200000e+02 8.470018e-22
8.210000e+02 9.473207e-22
8.220000e+02 1.059225e-21
8.230000e+02 1.184018e-21
8.240000e+02 1.323146e-21
8.250000e+02 1.478214e-21
8.260000e+02 1.651000e-21
8.270000e+02 1.843475e-21
8.280000e+02 2.057827e-21
8.290000e+02 2.296476e-21
8.300000e+02 2.562106e-21
8.310000e+02 2.857687e-21
8.320000e+02 3.186509e-21
8.330000e+02 3.552212e-21
8.340000e+02 3.958825e-21
8.350000e+02 4.410806e-21
8.360000e+02 4.913084e-21
8.370000e+02 5.471108e-21
8.380000e+02 6.090906e-21
8.390000e+02 6.779134e-21
8.400000e+02 7.543152e-21
8.410000e+02 8.391084e-21
8.420000e+02 9.331906e-21
8.430000e+02 1.037552e-20
8.440000e+02 1.153288e-20
8.450000e+02 1.281603e-20
8.460000e+02 1.423829e-20
8.470000e+02 1.581435e-20
8.480000e+02 1.756040e-20
8.490000e+02 1.949428e-20
8.500000e+02 2.163566e-20
8.510000e+02 2.400622e-20
8.520000e+02 2.662984e-20
8.530000e+02 2.953280e-20
8.540000e+02 3.274405e-20
8.550000e+02 3.629547e-20
8.560000e+02 4.022212e-20
8.570000e+02 4.456259e-20
8.580000e+02 4.935933e-20
8.590000e+02 5.465900e-20
8.600000e+02 6.051293e-20
8.610000e+02 6.697754e-20
8.620000e+02 7.411479e-20
8.630000e+02 8.199282e-20
8.640000e+02 9.068643e-20
8.650000e+02 1.002778e-19
8.660000e+02 1.108570e-19
8.670000e+02 1.225232e-19
8.680000e+02 1.353851e-19
8.690000e+02 1.495617e-19
8.700000e+02 1.651838e-19
8.710000e+02 1.823950e-19
8.720000e+02 2.013523e-19
8.730000e+02 2.222282e-19
8.740000e+02 2.452115e-19
8.750000e+02 2.705091e-19
8.760000e+02 2.983478e-19
8.770000e+02 3.289758e-19
8.780000e+02 3.626648e-19
8.790000e+02 3.997126e-19
8.800000e+02 4.404448e-19
8.810000e+02 4.852177e-19
8.820000e+02 5.344211e-19
8.830000e+02 5.884815e-19
8.840000e+02 6.478650e-19
8.850000e+02 7.130814e-19
8.860000e+02 7.846879e-19
8.870000e+02 8.632931e-19
8.880000e+02 9.495624e-19
8.890000e+02 1.044222e-18
8.900000e+02 1.148066e-18
8.910000e+02 1.261960e-18
8.920000e+02 1.386850e-18
8.930000e+02 1.523768e-18
8.940000e+02 1.673840e-18
8.950000e+02 1.838296e-18
8.960000e+02 2.018474e-18
8.970000e+02 2.215836e-18
8.980000e+02 2.431976e-18
8.990000e+02 2.668629e-18
9.000000e+02 2.927689e-18
9.010000e+02 3.211216e-18
9.020000e+02 3.521458e-18
9.030000e+02 3.860861e-18
9.040000e+02 4.232088e-18
9.050000e+02 4.638040e-18
9.060000e+02 5.081873e-18
9.070000e+02 5.567022e-18
9.080000e+02 6.097226e-18
9.090000e+02 6.676549e-18
9.100000e+02 7.309413e-18
9.110000e+02 8.000627e-18
9.120000e+02 8.755417e-18
9.130000e+02 9.579466e-18
9.140000e+02 1.117829e-17
9.150000e+02 8.195950e-15
9.160000e+02 7.636287e-14
9.170000e+02 1.913646e-14
9.180000e+02 1.110834e-14
9.190000e+02 2.526629e-13
9.200000e+02 8.374879e-13
9.210000e+02 1.953037e-17
9.220000e+02 1.305448e-12
9.230000e+02 4.241994e-15
9.240000e+02 4.336527e-14
9.250000e+02 9.408326e-13
9.260000e+02 1.841516e-14
9.270000e+02 5.275372e-14
9.280000e+02 7.371848e-12
9.290000e+02 6.914619e-12
9.300000e+02 1.194382e-12
9.310000e+02 1.379318e-14
9.320000e+02 5.421903e-12
9.330000e+02 9.641882e-12
9.340000e+02 5.051810e-12
9.350000e+02 1.118329e-14
9.360000e+02 4.519529e-13
9.370000e+02 3.105094e-15
9.380000e+02 4.224929e-15
9.390000e+02 1.146421e-12
9.400000e+02 1.707348e-11
9.410000e+02 2.445745e-13
9.420000e+02 3.258464e-11
9.430000e+02 4.029520e-12
9.440000e+02 3.831342e-11
9.450000e+02 3.796618e-11
9.460000e+02 2.676348e-11
9.470000e+02 1.148821e-14
9.480000e+02 5.402119e-12
9.490000e+02 6.397095e-13
9.500000e+02 3.184662e-15
9.510000e+02 4.880205e-12
9.520000e+02 2.382083e-11
9.530000e+02 7.225973e-13
9.540000e+02 1.461282e-14
9.550000e+02 8.083874e-12
9.560000e+02 2.136494e-11
9.570000e+02 1.651387e-12
9.580000e+02 2.879641e-15
9.590000e+02 9.935809e-11
9.600000e+02 2.584391e-14
9.610000e+02 1.066308e-10
9.620000e+02 6.754251e-11
9.630000e+02 2.426143e-12
9.640000e+02 7.896878e-13
9.650000e+02 5.524747e-14
9.660000e+02 1.365970e-11
9.670000e+02 9.344331e-13
9.680000e+02 6.012135e-13
9.690000e+02 3.477044e-11
9.700000e+02 4.010945e-11
9.710000e+02 1.274565e-12
9.720000e+02 8.085229e-14
9.730000e+02 1.202374e-13
9.740000e+02 9.478855e-12
9.750000e+02 2.162160e-11
9.760000e+02 1.400839e-10
9.770000e+02 1.988336e-10
9.780000e+02 2.019611e-10
9.790000e+02 3.753940e-10
9.800000e+02 4.283116e-10
9.810000e+02 2.038931e-10
9.820000e+02 3.719278e-11
9.830000e+02 5.729079e-10
9.840000e+02 1.061964e-11
9.850000e+02 9.188599e-11
9.860000e+02 7.938694e-11
9.870000e+02 7.467026e-10
9.880000e+02 2.668421e-13
9.890000e+02 6.768701e-10
9.900000e+02 7.247199e-10
9.910000e+02 4.614070e-11
9.920000e+02 2.299956e-14
9.930000e+02 7.447460e-10
9.940000e+02 1.482148e-14
9.950000e+02 2.724324e-11
9.960000e+02 1.793343e-12
9.970000e+02 7.180688e-13
9.980000e+02 1.311836e-09
9.990000e+02 5.840086e-11
1.000000e+03 1.845835e-09
1.001000e+03 1.602589e-09
1.002000e+03 2.063853e-09
1.003000e+03 5.418907e-11
1.004000e+03 4.216627e-13
1.005000e+03 4.106049e-10
1.006000e+03 2.482033e-09
1.007000e+03 2.697732e-09
1.008000e+03 2.592568e-09
1.009000e+03 4.008385e-11
1.010000e+03 2.620951e-09
1.011000e+03 2.545279e-09
1.012000e+03 3.065433e-09
1.013000e+03 3.125282e-09
1.014000e+03 1.423306e-13
1.015000e+03 1.207479e-12
1.016000e+03 3.592002e-10
1.017000e+03 7.704948e-14
1.018000e+03 7.459322e-11
1.019000e+03 1.106004e-12
1.020000e+03 1.939717e-09
1.021000e+03 4.614098e-11
1.022000e+03 1.907690e-10
1.023000e+03 5.771689e-12
1.024000e+03 6.481443e-11
1.025000e+03 8.871116e-14
1.026000e+03 1.178793e-13
1.027000e+03 2.780395e-11
1.028000e+03 1.880940e-12
1.029000e+03 2.081668e-13
1.030000e+03 1.251453e-09
1.031000e+03 4.975291e-09
1.032000e+03 7.709893e-09
1.033000e+03 3.960565e-11
1.034000e+03 7.030470e-09
1.035000e+03 6.998846e-13
1.036000e+03 1.019629e-12
1.037000e+03 4.326203e-08
1.038000e+03 6.352445e-08
1.039000e+03 6.254005e-08
1.040000e+03 4.908169e-08
1.041000e+03 7.429041e-08
1.042000e+03 1.001281e-07
1.043000e+03 4.866050e-08
1.044000e+03 1.294977e-07
1.045000e+03 1.222485e-12
1.046000e+03 7.038699e-08
1.047000e+03 5.483876e-08
1.048000e+03 2.245244e-10
1.049000e+03 4.861715e-08
1.050000e+03 4.384162e-09
1.051000e+03 1.260474e-09
1.052000e+03 2.000254e-07
1.053000e+03 2.228746e-07
1.054000e+03 1.705303e-12
1.055000e+03 1.840375e-07
1.056000e+03 2.533686e-07
1.057000e+03 1.105513e-07
1.058000e+03 1.932221e-09
1.059000e+03 8.123209e-10
1.060000e+03 1.983267e-10
1.061000e+03 3.065110e-07
1.062000e+03 8.059207e-10
1.063000e+03 1.235635e-10
1.064000e+03 1.932676e-12
1.065000e+03 2.671641e-12
1.066000e+03 2.619555e-08
1.067000e+03 2.459460e-09
1.068000e+03 5.426575e-07
1.069000e+03 2.311119e-10
1.070000e+03 4.776956e-08
1.071000e+03 5.196804e-07
1.072000e+03 6.938932e-07
1.073000e+03 1.585931e-11
1.074000e+03 3.315973e-07
1.075000e+03 2.392710e-07
1.076000e+03 1.948238e-07
1.077000e+03 2.090133e-10
1.078000e+03 3.184368e-09
1.079000e+03 3.868116e-08
1.080000e+03 1.804654e-07
1.081000e+03 9.830059e-07
1.082000e+03 7.589663e-07
1.083000e+03 5.160480e-07
1.084000e+03 1.068225e-06
1.085000e+03 7.416895e-08
1.086000e+03 1.420450e-06
1.087000e+03 6.792106e-09
1.088000e+03 1.581430e-06
1.089000e+03 1.642292e-06
1.090000e+03 6.725427e-08
1.091000e+03 1.674118e-07
1.092000e+03 1.371674e-06
1.093000e+03 1.820936e-06
1.094000e+03 6.493856e-07
1.095000e+03 2.265882e-06
1.096000e+03 2.327249e-08
1.097000e+03 2.317879e-06
1.098000e+03 2.214626e-06
1.099000e+03 2.079835e-07
1.100000e+03 4.988792e-10
1.101000e+03 2.119538e-09
1.102000e+03 2.579365e-07
1.103000e+03 3.327455e-06
1.104000e+03 3.422753e-06
1.105000e+03 3.671124e-06
1.106000e+03 1.193319e-06
1.107000e+03 2.232355e-09
1.108000e+03 3.961710e-06
1.109000e+03 1.111030e-07
1.110000e+03 4.245462e-06
1.111000e+03 4.129056e-06
1.112000e+03 3.701728e-06
1.113000e+03 3.161259e-06
1.114000e+03 1.603295e-06
1.115000e+03 6.801838e-08
1.116000e+03 7.482500e-09
1.117000e+03 6.310273e-06
1.118000e+03 2.154302e-07
1.119000e+03 3.950192e-06
1.120000e+03 3.052764e-08
1.121000e+03 7.100934e-06
1.122000e+03 7.332677e-06
1.123000e+03 1.268755e-05
1.124000e+03 1.720046e-05
1.125000e+03 1.292450e-05
1.126000e+03 1.235032e-05
1.127000e+03 1.084199e-05
1.128000e+03 8.770572e-06
1.129000e+03 7.082567e-06
1.130000e+03 8.659558e-06
1.131000e+03 6.273613e-06
1.132000e+03 4.555523e-08
1.133000e+03 2.146870e-06
1.134000e+03 6.594598e-06
1.135000e+03 4.896533e-06
1.136000e+03 2.470494e-06
1.137000e+03 4.828950e-06
1.138000e+03 5.625132e-06
1.139000e+03 6.252350e-06
1.140000e+03 5.921329e-06
1.141000e+03 5.374700e-06
1.142000e+03 5.977326e-06
1.143000e+03 4.434638e-06
1.144000e+03 5.582795e-06
1.145000e+03 2.445768e-08
1.146000e+03 6.200671e-06
1.147000e+03 6.242733e-06
1.148000e+03 7.007834e-07
1.149000e+03 6.045624e-06
1.150000e+03 6.001652e-06
1.151000e+03 5.933601e-06
1.152000e+03 5.642027e-06
1.153000e+03 5.665271e-06
1.154000e+03 5.421976e-06
1.155000e+03 5.369929e-06
1.156000e+03 3.743995e-06
1.157000e+03 5.098863e-06
1.158000e+03 4.789132e-06
1.159000e+03 5.178161e-06
1.160000e+03 4.945378e-06
1.161000e+03 4.706485e-06
1.162000e+03 1.835655e-06
1.163000e+03 3.480708e-06
1.164000e+03 6.578375e-09
1.165000e+03 2.488141e-06
1.166000e+03 1.208717e-06
1.167000e+03 7.552077e-07
1.168000e+03 5.461713e-06
1.169000e+03 5.563620e-06
1.170000e+03 8.155464e-07
1.171000e+03 2.255908e-06
1.172000e+03 1.785966e-06
1.173000e+03 1.484284e-06
1.174000e+03 2.228830e-07
1.175000e+03 6.786422e-09
1.176000e+03 1.276021e-09
1.177000e+03 7.503963e-06
1.178000e+03 7.019886e-06
1.179000e+03 6.633129e-06
1.180000e+03 6.092160e-06
1.181000e+03 5.909656e-06
1.182000e+03 5.716100e-06
1.183000e+03 5.407336e-06
1.184000e+03 5.212924e-06
1.185000e+03 5.000399e-06
1.186000e+03 1.308248e-06
1.187000e+03 4.687239e-06
1.188000e+03 4.509557e-06
1.189000e+03 4.466041e-06
1.190000e+03 4.336487e-06
1.191000e+03 4.088293e-06
1.192000e+03 3.655379e-06
1.193000e+03 3.648364e-06
1.194000e+03 3.507455e-06
1.195000e+03 3.345691e-06
1.196000e+03 1.080825e-04
1.197000e+03 9.799103e-05
1.198000e+03 1.277953e-05
1.199000e+03 7.716265e-05
1.200000e+03 3.480629e-05
1.201000e+03 5.612061e-05
1.202000e+03 4.555640e-05
1.203000e+03 3.793443e-05
1.204000e+03 2.265695e-05
1.205000e+03 2.289685e-05
1.206000e+03 1.690083e-05
1.207000e+03 1.577652e-06
1.208000e+03 7.103622e-06
1.209000e+03 5.040538e-06
1.210000e+03 1.069930e-08
1.211000e+03 1.578185e-06
1.212000e+03 7.084767e-07
1.213000e+03 2.624267e-07
1.214000e+03 6.757562e-08
1.215000e+03 6.803186e-09
1.216000e+03 5.989114e-09
1.217000e+03 3.745512e-08
1.218000e+03 2.171186e-07
1.219000e+03 6.934820e-07
1.220000e+03 1.761174e-06
1.221000e+03 3.730488e-06
1.222000e+03 7.287049e-06
1.223000e+03 1.233205e-05
1.224000e+03 1.839228e-05
1.225000e+03 1.296681e-05
1.226000e+03 4.399061e-05
1.227000e+03 6.301021e-05
1.228000e+03 7.819200e-05
1.229000e+03 1.142114e-04
1.230000e+03 5.341765e-05
1.231000e+03 8.931892e-05
1.232000e+03 2.218475e-04
1.233000e+03 2.698751e-04
1.234000e+03 2.716146e-04
1.235000e+03 3.738958e-04
1.236000e+03 3.575607e-04
1.237000e+03 4.896496e-04
1.238000e+03 5.528864e-04
1.239000e+03 5.900513e-04
1.240000e+03 4.132563e-05
1.241000e+03 6.415534e-04
1.242000e+03 8.169360e-04
1.243000e+03 8.913708e-04
1.244000e+03 9.709491e-04
1.245000e+03 1.012872e-03
1.246000e+03 1.081803e-03
1.247000e+03 1.148260e-03
1.248000e+03 5.214942e-04
1.249000e+03 1.277709e-03
1.250000e+03 1.208160e-03
1.251000e+03 1.488463e-03
1.252000e+03 1.415570e-03
1.253000e+03 1.583317e-03
1.254000e+03 1.543420e-03
1.255000e+03 1.604130e-04
1.256000e+03 1.370854e-03
1.257000e+03 8.360365e-04
1.258000e+03 1.474221e-03
1.259000e+03 1.781154e-03
1.260000e+03 1.861253e-03
1.261000e+03 2.119259e-05
1.262000e+03 1.931112e-03
1.263000e+03 1.402267e-03
1.264000e+03 1.792018e-03
1.265000e+03 1.926844e-03
1.266000e+03 2.457562e-03
1.267000e+03 2.690891e-03
