# wavelength_A flux
5.000000e+02 1.422678e-34
5.010000e+02 1.813107e-34
5.020000e+02 2.308475e-34
5.030000e+02 2.936389e-34
5.040000e+02 3.731568e-34
5.050000e+02 7.330252e-34
5.060000e+02 9.273020e-34
5.070000e+02 1.168433e-33
5.080000e+02 1.476826e-33
5.090000e+02 1.860904e-33
5.100000e+02 9.576751e-34
5.110000e+02 2.947016e-33
5.120000e+02 3.692411e-33
5.130000e+02 4.650439e-33
5.140000e+02 5.834410e-33
5.150000e+02 7.312630e-33
5.160000e+02 9.156691e-33
5.170000e+02 1.146233e-32
5.180000e+02 1.433206e-32
5.190000e+02 1.790507e-32
5.200000e+02 2.235011e-32
5.210000e+02 2.787467e-32
5.220000e+02 3.466547e-32
5.230000e+02 4.325202e-32
5.240000e+02 5.382080e-32
5.250000e+02 6.691094e-32
5.260000e+02 8.311721e-32
5.270000e+02 1.031662e-31
5.280000e+02 1.279498e-31
5.290000e+02 1.585620e-31
5.300000e+02 1.963442e-31
5.310000e+02 2.429396e-31
5.320000e+02 3.003596e-31
5.330000e+02 3.710642e-31
5.340000e+02 4.580589e-31
5.350000e+02 5.650075e-31
5.360000e+02 6.963150e-31
5.370000e+02 6.994631e-31
5.380000e+02 1.055476e-30
5.390000e+02 1.298254e-30
5.400000e+02 1.595470e-30
5.410000e+02 1.958293e-30
5.420000e+02 2.404179e-30
5.430000e+02 2.947997e-30
5.440000e+02 3.612194e-30
5.450000e+02 4.422837e-30
5.460000e+02 5.411509e-30
5.470000e+02 6.616450e-30
5.480000e+02 8.083930e-30
5.490000e+02 9.869897e-30
5.500000e+02 1.204195e-29
5.510000e+02 1.468171e-29
5.520000e+02 1.788767e-29
5.530000e+02 2.177859e-29
5.540000e+02 2.649683e-29
5.550000e+02 3.221695e-29
5.560000e+02 3.914409e-29
5.570000e+02 4.752838e-29
5.580000e+02 5.766952e-29
5.590000e+02 6.992744e-29
5.600000e+02 8.473413e-29
5.610000e+02 1.026077e-28
5.620000e+02 1.241693e-28
5.630000e+02 1.501628e-28
5.640000e+02 1.814786e-28
5.650000e+02 2.191823e-28
5.660000e+02 2.645476e-28
5.670000e+02 3.190961e-28
5.680000e+02 3.846451e-28
5.690000e+02 4.633630e-28
5.700000e+02 5.578355e-28
5.710000e+02 6.711445e-28
5.720000e+02 8.069607e-28
5.730000e+02 9.696534e-28
5.740000e+02 1.164420e-27
5.750000e+02 1.397441e-27
5.760000e+02 1.676207e-27
5.770000e+02 2.009647e-27
5.780000e+02 2.407358e-27
5.790000e+02 2.882016e-27
5.800000e+02 3.448160e-27
5.810000e+02 4.122991e-27
5.820000e+02 4.926788e-27
5.830000e+02 5.882891e-27
5.840000e+02 6.990944e-27
5.850000e+02 8.368887e-27
5.860000e+02 9.987138e-27
5.870000e+02 1.190092e-26
5.880000e+02 1.417206e-26
5.890000e+02 1.686650e-26
5.900000e+02 2.006148e-26
5.910000e+02 2.384796e-26
5.920000e+02 2.833284e-26
5.930000e+02 3.364201e-26
5.940000e+02 3.992342e-26
5.950000e+02 4.735095e-26
5.960000e+02 5.612877e-26
5.970000e+02 6.649690e-26
5.980000e+02 7.873637e-26
5.990000e+02 9.317709e-26
6.000000e+02 1.102053e-25
6.010000e+02 1.302753e-25
6.020000e+02 1.539157e-25
6.030000e+02 1.817475e-25
6.040000e+02 2.144961e-25
6.050000e+02 2.530097e-25
6.060000e+02 2.982790e-25
6.070000e+02 3.514609e-25
6.080000e+02 4.139057e-25
6.090000e+02 4.871881e-25
6.100000e+02 5.731443e-25
6.110000e+02 6.739141e-25
6.120000e+02 7.919891e-25
6.130000e+02 9.302701e-25
6.140000e+02 1.092132e-24
6.150000e+02 1.281500e-24
6.160000e+02 1.502936e-24
6.170000e+02 1.761739e-24
6.180000e+02 2.064062e-24
6.190000e+02 2.417047e-24
6.200000e+02 2.828985e-24
6.210000e+02 3.309475e-24
6.220000e+02 3.869651e-24
6.230000e+02 4.522408e-24
6.240000e+02 5.282676e-24
6.250000e+02 6.167732e-24
6.260000e+02 7.197569e-24
6.270000e+02 8.395276e-24
6.280000e+02 9.787569e-24
6.290000e+02 1.140526e-23
6.300000e+02 1.328388e-23
6.310000e+02 1.533252e-23
6.320000e+02 1.799496e-23
6.330000e+02 2.092931e-23
6.340000e+02 2.433080e-23
6.350000e+02 2.826473e-23
6.360000e+02 3.283571e-23
6.370000e+02 3.811875e-23
6.380000e+02 4.423134e-23
6.390000e+02 5.130051e-23
6.400000e+02 5.947226e-23
6.410000e+02 6.891414e-23
6.420000e+02 7.981903e-23
6.430000e+02 9.240758e-23
6.440000e+02 1.069334e-22
6.450000e+02 1.236871e-22
6.460000e+02 1.430019e-22
6.470000e+02 1.652594e-22
6.480000e+02 1.908967e-22
6.490000e+02 2.204143e-22
6.500000e+02 2.543844e-22
6.510000e+02 2.934623e-22
6.520000e+02 3.383962e-22
6.530000e+02 3.900414e-22
6.540000e+02 4.493749e-22
6.550000e+02 5.175123e-22
6.560000e+02 5.957267e-22
6.570000e+02 6.854705e-22
6.580000e+02 7.884000e-22
6.590000e+02 9.064031e-22
6.600000e+02 1.041631e-21
6.610000e+02 1.196534e-21
6.620000e+02 1.373900e-21
6.630000e+02 1.576905e-21
6.640000e+02 1.809159e-21
6.650000e+02 2.074768e-21
6.660000e+02 2.378556e-21
6.670000e+02 2.725529e-21
6.680000e+02 3.121851e-21
6.690000e+02 3.574358e-21
6.700000e+02 4.090810e-21
6.710000e+02 4.680010e-21
6.720000e+02 5.351939e-21
6.730000e+02 6.117909e-21
6.740000e+02 6.990742e-21
6.750000e+02 7.984957e-21
6.760000e+02 9.116994e-21
6.770000e+02 1.040546e-20
6.780000e+02 1.187140e-20
6.790000e+02 1.353863e-20
6.800000e+02 1.543406e-20
6.810000e+02 1.758809e-20
6.820000e+02 2.003510e-20
6.830000e+02 2.281387e-20
6.840000e+02 2.596819e-20
6.850000e+02 2.954749e-20
6.860000e+02 3.360751e-20
6.870000e+02 3.821110e-20
6.880000e+02 4.342910e-20
6.890000e+02 4.934133e-20
6.900000e+02 5.603772e-20
6.910000e+02 6.361949e-20
6.920000e+02 7.220058e-20
6.930000e+02 8.190910e-20
6.940000e+02 9.288954e-20
6.950000e+02 1.053037e-19
6.960000e+02 1.193339e-19
6.970000e+02 1.351849e-19
6.980000e+02 1.530867e-19
6.990000e+02 1.732965e-19
7.000000e+02 1.961065e-19
7.010000e+02 2.218396e-19
7.020000e+02 2.508610e-19
7.030000e+02 2.835798e-19
7.040000e+02 3.204540e-19
7.050000e+02 3.619973e-19
7.060000e+02 4.087206e-19
7.070000e+02 4.614602e-19
7.080000e+02 5.207446e-19
7.090000e+02 5.874444e-19
7.100000e+02 6.624620e-19
7.110000e+02 7.468062e-19
7.120000e+02 8.416046e-19
7.130000e+02 9.481176e-19
7.140000e+02 1.067753e-18
7.150000e+02 1.202083e-18
7.160000e+02 1.352863e-18
7.170000e+02 1.522052e-18
7.180000e+02 1.711835e-18
7.190000e+02 1.924650e-18
7.200000e+02 2.163215e-18
7.210000e+02 2.430558e-18
7.220000e+02 2.730055e-18
7.230000e+02 3.065466e-18
7.240000e+02 3.440978e-18
7.250000e+02 3.861251e-18
7.260000e+02 4.331471e-18
7.270000e+02 4.857409e-18
7.280000e+02 5.445483e-18
7.290000e+02 6.102828e-18
7.300000e+02 6.837374e-18
7.310000e+02 7.657913e-18
7.320000e+02 8.574297e-18
7.330000e+02 9.597643e-18
7.340000e+02 1.073945e-17
7.350000e+02 1.201339e-17
7.360000e+02 1.343423e-17
7.370000e+02 1.501874e-17
7.380000e+02 1.678490e-17
7.390000e+02 1.875307e-17
7.400000e+02 2.094570e-17
7.410000e+02 2.338765e-17
7.420000e+02 2.610646e-17
7.430000e+02 2.913264e-17
7.440000e+02 3.249993e-17
7.450000e+02 3.624569e-17
7.460000e+02 4.041123e-17
7.470000e+02 4.504226e-17
7.480000e+02 5.018930e-17
7.490000e+02 5.590818e-17
7.500000e+02 6.226060e-17
7.510000e+02 6.931474e-17
7.520000e+02 7.714587e-17
7.530000e+02 8.583709e-17
7.540000e+02 9.548014e-17
7.550000e+02 1.061762e-16
7.560000e+02 1.180370e-16
7.570000e+02 1.311850e-16
7.580000e+02 1.457579e-16
7.590000e+02 1.619034e-16
7.600000e+02 1.797870e-16
7.610000e+02 1.995904e-16
7.620000e+02 2.215137e-16
7.630000e+02 2.457771e-16
7.640000e+02 2.726231e-16
7.650000e+02 3.023080e-16
7.660000e+02 3.351552e-16
7.670000e+02 3.714611e-16
7.680000e+02 4.115850e-16
7.690000e+02 4.558818e-16
7.700000e+02 5.048982e-16
7.710000e+02 5.589856e-16
7.720000e+02 6.187017e-16
7.730000e+02 6.846149e-16
7.740000e+02 7.573494e-16
7.750000e+02 8.375901e-16
7.760000e+02 9.260884e-16
7.770000e+02 1.023669e-15
7.780000e+02 1.131236e-15
7.790000e+02 1.249781e-15
7.800000e+02 1.380390e-15
7.810000e+02 1.524255e-15
7.820000e+02 1.682681e-15
7.830000e+02 1.857098e-15
7.840000e+02 2.049069e-15
7.850000e+02 2.260310e-15
7.860000e+02 2.492697e-15
7.870000e+02 2.748317e-15
7.880000e+02 3.029348e-15
7.890000e+02 3.338279e-15
7.900000e+02 3.677795e-15
7.910000e+02 4.050835e-15
7.920000e+02 4.460036e-15
7.930000e+02 4.910614e-15
7.940000e+02 5.404692e-15
7.950000e+02 5.947023e-15
7.960000e+02 6.542175e-15
7.970000e+02 7.195137e-15
7.980000e+02 7.911350e-15
7.990000e+02 8.696754e-15
8.000000e+02 9.557829e-15
8.010000e+02 1.050164e-14
8.020000e+02 1.153589e-14
8.030000e+02 1.266899e-14
8.040000e+02 1.391008e-14
8.050000e+02 1.512029e-14
8.060000e+02 1.675671e-14
8.070000e+02 1.838562e-14
8.080000e+02 2.016776e-14
8.090000e+02 2.211749e-14
8.100000e+02 2.425008e-14
8.110000e+02 2.658215e-14
8.120000e+02 2.913177e-14
8.130000e+02 3.191862e-14
8.140000e+02 3.496375e-14
8.150000e+02 3.829134e-14
8.160000e+02 4.192574e-14
8.170000e+02 4.589471e-14
8.180000e+02 5.022807e-14
8.190000e+02 5.495825e-14
8.200000e+02 6.012041e-14
8.210000e+02 6.575261e-14
8.220000e+02 7.189685e-14
8.230000e+02 7.859762e-14
8.240000e+02 8.590393e-14
8.250000e+02 9.386878e-14
8.260000e+02 1.025496e-13
8.270000e+02 1.120088e-13
8.280000e+02 1.223139e-13
8.290000e+02 1.335382e-13
8.300000e+02 1.457609e-13
8.310000e+02 1.590682e-13
8.320000e+02 1.735531e-13
8.330000e+02 1.893165e-13
8.340000e+02 2.064678e-13
8.350000e+02 2.250248e-13
8.360000e+02 2.454163e-13
8.370000e+02 2.674802e-13
8.380000e+02 2.914664e-13
8.390000e+02 3.175371e-13
8.400000e+02 3.458677e-13
8.410000e+02 3.766476e-13
8.420000e+02 4.100818e-13
8.430000e+02 4.463890e-13
8.440000e+02 4.858125e-13
8.450000e+02 5.285988e-13
8.460000e+02 5.750672e-13
8.470000e+02 6.248726e-13
8.480000e+02 6.797970e-13
8.490000e+02 7.394775e-13
8.500000e+02 8.023960e-13
8.510000e+02 8.735596e-13
8.520000e+02 9.468019e-13
8.530000e+02 1.031126e-12
8.540000e+02 1.119932e-12
8.550000e+02 1.216117e-12
8.560000e+02 1.320368e-12
8.570000e+02 1.433238e-12
8.580000e+02 1.554634e-12
8.590000e+02 1.687757e-12
8.600000e+02 1.830625e-12
8.610000e+02 1.985914e-12
8.620000e+02 2.153596e-12
8.630000e+02 2.334971e-12
8.640000e+02 2.521767e-12
8.650000e+02 2.743255e-12
8.660000e+02 2.972296e-12
8.670000e+02 3.220473e-12
8.680000e+02 3.488374e-12
8.690000e+02 3.777848e-12
8.700000e+02 4.056660e-12
8.710000e+02 4.428344e-12
8.720000e+02 4.785207e-12
8.730000e+02 5.187004e-12
8.740000e+02 5.612191e-12
8.750000e+02 6.071114e-12
8.760000e+02 6.564833e-12
8.770000e+02 7.100482e-12
8.780000e+02 7.611614e-12
8.790000e+02 8.291512e-12
8.800000e+02 8.950637e-12
8.810000e+02 9.667342e-12
8.820000e+02 1.047103e-11
8.830000e+02 1.129846e-11
8.840000e+02 1.215842e-11
8.850000e+02 1.319075e-11
8.860000e+02 1.424094e-11
8.870000e+02 1.537213e-11
8.880000e+02 1.656960e-11
8.890000e+02 1.787426e-11
8.900000e+02 1.931320e-11
8.910000e+02 2.083072e-11
8.920000e+02 2.246744e-11
8.930000e+02 2.422630e-11
8.940000e+02 2.608737e-11
8.950000e+02 2.815376e-11
8.960000e+02 3.034224e-11
8.970000e+02 3.269522e-11
8.980000e+02 3.517264e-11
8.990000e+02 3.794180e-11
9.000000e+02 4.084032e-11
9.010000e+02 4.400307e-11
9.020000e+02 4.722138e-11
9.030000e+02 5.024469e-11
9.040000e+02 5.456652e-11
9.050000e+02 5.903320e-11
9.060000e+02 6.354459e-11
9.070000e+02 6.835997e-11
9.080000e+02 7.352394e-11
9.090000e+02 7.906440e-11
9.100000e+02 8.501278e-11
9.110000e+02 9.113028e-11
9.120000e+02 9.823368e-11
9.130000e+02 1.041702e-10
9.140000e+02 2.654739e-10
9.150000e+02 1.226738e-09
9.160000e+02 1.742431e-09
9.170000e+02 3.910630e-10
9.180000e+02 1.507094e-09
9.190000e+02 1.660569e-09
9.200000e+02 3.693624e-09
9.210000e+02 1.859256e-10
9.220000e+02 2.027600e-09
9.230000e+02 6.436547e-10
9.240000e+02 5.757637e-10
9.250000e+02 1.973883e-09
9.260000e+02 2.676112e-09
9.270000e+02 6.590140e-10
9.280000e+02 3.890833e-09
9.290000e+02 7.870199e-09
9.300000e+02 4.934789e-09
9.310000e+02 1.109643e-09
9.320000e+02 4.406072e-09
9.330000e+02 4.259753e-09
9.340000e+02 3.413814e-09
9.350000e+02 4.353574e-09
9.360000e+02 1.657681e-09
9.370000e+02 1.085583e-09
9.380000e+02 4.270651e-09
9.390000e+02 3.501489e-09
9.400000e+02 6.951718e-09
9.410000e+02 7.262112e-09
9.420000e+02 2.940669e-08
9.430000e+02 4.602899e-09
9.440000e+02 2.720959e-08
9.450000e+02 1.908075e-08
9.460000e+02 1.009008e-08
9.470000e+02 1.199174e-09
9.480000e+02 1.256342e-08
9.490000e+02 1.404701e-08
9.500000e+02 1.131203e-08
9.510000e+02 1.385493e-08
9.520000e+02 1.465231e-08
9.530000e+02 3.411823e-09
9.540000e+02 1.822545e-09
9.550000e+02 1.085459e-08
9.560000e+02 2.151585e-08
9.570000e+02 9.272234e-09
9.580000e+02 2.280343e-09
9.590000e+02 2.285728e-08
9.600000e+02 2.136975e-08
9.610000e+02 2.593125e-08
9.620000e+02 2.342171e-08
9.630000e+02 1.045200e-08
9.640000e+02 6.133288e-09
9.650000e+02 3.993813e-09
9.660000e+02 1.654519e-08
9.670000e+02 7.338855e-09
9.680000e+02 6.635691e-09
9.690000e+02 3.538769e-08
9.700000e+02 4.447085e-08
9.710000e+02 1.107446e-08
9.720000e+02 8.092677e-09
9.730000e+02 5.029086e-08
9.740000e+02 5.518876e-08
9.750000e+02 3.440782e-08
9.760000e+02 6.585913e-08
9.770000e+02 6.969019e-08
9.780000e+02 7.210664e-08
9.790000e+02 2.020620e-07
9.800000e+02 1.014703e-07
9.810000e+02 7.297384e-08
9.820000e+02 3.816463e-08
9.830000e+02 1.082042e-07
9.840000e+02 1.042852e-07
9.850000e+02 6.295831e-08
9.860000e+02 8.357876e-08
9.870000e+02 1.258562e-07
9.880000e+02 1.651133e-08
9.890000e+02 1.424685e-07
9.900000e+02 1.491714e-07
9.910000e+02 5.697016e-08
9.920000e+02 1.934919e-08
9.930000e+02 2.504850e-07
9.940000e+02 9.893239e-08
9.950000e+02 1.985664e-07
9.960000e+02 3.506040e-08
9.970000e+02 2.241966e-07
9.980000e+02 2.377437e-07
9.990000e+02 9.228114e-08
1.000000e+03 6.840060e-07
1.001000e+03 4.837071e-07
1.002000e+03 3.322389e-07
1.003000e+03 1.009704e-07
1.004000e+03 4.085658e-08
1.005000e+03 2.136210e-07
1.006000e+03 3.820925e-07
1.007000e+03 4.632711e-07
1.008000e+03 4.213037e-07
1.009000e+03 1.541469e-07
1.010000e+03 4.735565e-07
1.011000e+03 5.010907e-07
1.012000e+03 5.267503e-07
1.013000e+03 5.572779e-07
1.014000e+03 7.130444e-08
1.015000e+03 7.852549e-08
1.016000e+03 3.751001e-07
1.017000e+03 8.477650e-08
1.018000e+03 1.959235e-07
1.019000e+03 9.628570e-08
1.020000e+03 8.224256e-07
1.021000e+03 3.571344e-07
1.022000e+03 4.318077e-07
1.023000e+03 1.322877e-07
1.024000e+03 1.126129e-06
1.025000e+03 1.338873e-07
1.026000e+03 3.545674e-07
1.027000e+03 1.060434e-06
1.028000e+03 1.052738e-06
1.029000e+03 1.677930e-07
1.030000e+03 9.414622e-07
1.031000e+03 1.396742e-06
1.032000e+03 1.650560e-06
1.033000e+03 1.588963e-06
1.034000e+03 1.602132e-06
1.035000e+03 1.392473e-06
1.036000e+03 2.480704e-07
1.037000e+03 2.076421e-06
1.038000e+03 2.659774e-06
1.039000e+03 2.307624e-06
1.040000e+03 2.451550e-06
1.041000e+03 2.667983e-06
1.042000e+03 2.810791e-06
1.043000e+03 3.219783e-06
1.044000e+03 6.149170e-06
1.045000e+03 1.612328e-06
1.046000e+03 3.366869e-06
1.047000e+03 3.483008e-06
1.048000e+03 7.362710e-07
1.049000e+03 3.677929e-06
1.050000e+03 2.427309e-06
1.051000e+03 1.935363e-06
1.052000e+03 4.719219e-06
1.053000e+03 5.057797e-06
1.054000e+03 6.604801e-07
1.055000e+03 5.742365e-06
1.056000e+03 6.233023e-06
1.057000e+03 5.977749e-06
1.058000e+03 2.197351e-06
1.059000e+03 2.909773e-06
1.060000e+03 1.317850e-06
1.061000e+03 7.270348e-06
1.062000e+03 1.871900e-06
1.063000e+03 8.057092e-06
1.064000e+03 3.642506e-06
1.065000e+03 1.181555e-06
1.066000e+03 9.315554e-06
1.067000e+03 2.795630e-06
1.068000e+03 1.263988e-05
1.069000e+03 1.710059e-06
1.070000e+03 8.660093e-06
1.071000e+03 1.191846e-05
1.072000e+03 2.060220e-05
1.073000e+03 1.791656e-06
1.074000e+03 1.378184e-05
1.075000e+03 1.321107e-05
1.076000e+03 2.318294e-05
1.077000e+03 4.039490e-06
1.078000e+03 4.776422e-06
1.079000e+03 1.032510e-05
1.080000e+03 1.801509e-05
1.081000e+03 1.955909e-05
1.082000e+03 2.080082e-05
1.083000e+03 2.144024e-05
1.084000e+03 5.245697e-05
1.085000e+03 1.586940e-05
1.086000e+03 2.948481e-05
1.087000e+03 7.811946e-06
1.088000e+03 4.760022e-05
1.089000e+03 5.766972e-05
1.090000e+03 1.646781e-05
1.091000e+03 2.128803e-05
1.092000e+03 5.315893e-05
1.093000e+03 8.163730e-05
1.094000e+03 3.669248e-05
1.095000e+03 1.073705e-04
1.096000e+03 7.887143e-05
1.097000e+03 4.682442e-05
1.098000e+03 8.151056e-05
1.099000e+03 3.649171e-05
1.100000e+03 7.413255e-06
1.101000e+03 1.031713e-05
1.102000e+03 3.649097e-05
1.103000e+03 1.526020e-04
1.104000e+03 9.471854e-05
1.105000e+03 1.409812e-04
1.106000e+03 6.362643e-05
1.107000e+03 1.124002e-05
1.108000e+03 7.222206e-05
1.109000e+03 3.473521e-05
1.110000e+03 1.115230e-04
1.111000e+03 1.229171e-04
1.112000e+03 8.589699e-05
1.113000e+03 2.357076e-04
1.114000e+03 9.381734e-05
1.115000e+03 4.267619e-05
1.116000e+03 2.463310e-05
1.117000e+03 1.669127e-04
1.118000e+03 5.698425e-05
1.119000e+03 1.185520e-04
1.120000e+03 3.494784e-05
1.121000e+03 1.392367e-04
1.122000e+03 5.606051e-04
1.123000e+03 2.118698e-04
1.124000e+03 2.359126e-04
1.125000e+03 1.711385e-04
1.126000e+03 1.214963e-03
1.127000e+03 1.785590e-04
1.128000e+03 5.125536e-04
1.129000e+03 1.836818e-04
1.130000e+03 4.374415e-04
1.131000e+03 8.536897e-04
1.132000e+03 6.348937e-05
1.133000e+03 1.885793e-04
1.134000e+03 2.335663e-04
1.135000e+03 7.205793e-04
1.136000e+03 2.402310e-04
1.137000e+03 3.783385e-04
1.138000e+03 2.737201e-04
1.139000e+03 7.362450e-04
1.140000e+03 4.665683e-04
1.141000e+03 1.064211e-03
1.142000e+03 1.131671e-03
1.143000e+03 3.413840e-04
1.144000e+03 1.377595e-03
1.145000e+03 7.474556e-05
1.146000e+03 1.158125e-03
1.147000e+03 1.059221e-03
1.148000e+03 2.078693e-04
1.149000e+03 5.543831e-04
1.150000e+03 5.251121e-04
1.151000e+03 1.102909e-03
1.152000e+03 5.595693e-04
1.153000e+03 1.495575e-03
1.154000e+03 3.204719e-03
1.155000e+03 7.208902e-04
1.156000e+03 2.181736e-03
1.157000e+03 2.541936e-03
1.158000e+03 6.514734e-04
1.159000e+03 1.798503e-03
1.160000e+03 7.041634e-04
1.161000e+03 1.731297e-03
1.162000e+03 5.910278e-04
1.163000e+03 8.074909e-04
1.164000e+03 7.332305e-04
1.165000e+03 9.885355e-04
1.166000e+03 9.484984e-04
1.167000e+03 1.009083e-03
1.168000e+03 2.384410e-03
1.169000e+03 4.323973e-03
1.170000e+03 1.063668e-03
1.171000e+03 2.197023e-03
1.172000e+03 1.200557e-03
1.173000e+03 2.428352e-03
1.174000e+03 3.342925e-04
1.175000e+03 9.442914e-04
1.176000e+03 5.996402e-04
1.177000e+03 5.932798e-03
1.178000e+03 6.417619e-03
1.179000e+03 4.375899e-03
1.180000e+03 1.803366e-03
1.181000e+03 6.003086e-03
1.182000e+03 3.783940e-03
1.183000e+03 1.935610e-03
1.184000e+03 1.928866e-03
1.185000e+03 2.049728e-03
1.186000e+03 9.666437e-04
1.187000e+03 3.345828e-03
1.188000e+03 2.223509e-03
1.189000e+03 6.187013e-03
1.190000e+03 5.620971e-03
1.191000e+03 3.587430e-03
1.192000e+03 4.874834e-03
1.193000e+03 3.284032e-03
1.194000e+03 5.051787e-03
1.195000e+03 4.682382e-03
1.196000e+03 8.325713e-03
1.197000e+03 6.145564e-02
1.198000e+03 2.154747e-03
1.199000e+03 6.141812e-02
1.200000e+03 3.466760e-03
1.201000e+03 1.987638e-02
1.202000e+03 4.260599e-03
1.203000e+03 1.441317e-02
1.204000e+03 4.125129e-03
1.205000e+03 1.008905e-02
1.206000e+03 1.017288e-02
1.207000e+03 7.198386e-03
1.208000e+03 8.981558e-03
1.209000e+03 2.485088e-02
1.210000e+03 2.878270e-03
1.211000e+03 1.016069e-02
1.212000e+03 5.591144e-03
1.213000e+03 6.937858e-03
1.214000e+03 5.564576e-03
1.215000e+03 3.263207e-03
1.216000e+03 1.682669e-03
1.217000e+03 5.762076e-03
1.218000e+03 7.575855e-03
1.219000e+03 1.023501e-02
1.220000e+03 7.182118e-03
1.221000e+03 1.597063e-02
1.222000e+03 9.714657e-03
1.223000e+03 8.680910e-03
1.224000e+03 4.335478e-02
1.225000e+03 5.483318e-03
1.226000e+03 8.644217e-02
1.227000e+03 5.105238e-02
1.228000e+03 1.057279e-02
1.229000e+03 2.718772e-02
1.230000e+03 1.760691e-02
1.231000e+03 1.079591e-02
1.232000e+03 1.603017e-01
1.233000e+03 2.200849e-01
1.234000e+03 2.356944e-01
1.235000e+03 5.790329e-02
1.236000e+03 1.424413e-02
1.237000e+03 1.751452e-01
1.238000e+03 9.670438e-02
1.239000e+03 1.857044e-02
1.240000e+03 1.189477e-01
1.241000e+03 2.507248e-02
1.242000e+03 5.700077e-02
1.243000e+03 2.118521e-01
1.244000e+03 2.508141e-01
1.245000e+03 2.060053e-01
1.246000e+03 4.182204e-02
1.247000e+03 7.157785e-02
1.248000e+03 3.006241e-01
1.249000e+03 4.040968e-01
1.250000e+03 1.910554e-01
1.251000e+03 2.838369e-01
1.252000e+03 1.176224e-01
1.253000e+03 4.039289e-01
1.254000e+03 1.282476e-01
1.255000e+03 1.008041e-01
1.256000e+03 9.113963e-02
1.257000e+03 1.779540e-01
1.258000e+03 4.096338e-02
1.259000e+03 5.383155e-02
1.260000e+03 3.088715e-01
1.261000e+03 4.145125e-02
1.262000e+03 3.663201e-01
1.263000e+03 1.873222e-01
1.264000e+03 5.355301e-02
1.265000e+03 8.783692e-02
1.266000e+03 3.449431e-01
1.267000e+03 8.868627e-02
