# wavelength_A flux
5.000000e+02 4.450040e-37
5.010000e+02 5.761839e-37
5.020000e+02 7.452545e-37
5.030000e+02 9.629353e-37
5.040000e+02 1.242915e-36
5.050000e+02 1.667440e-36
5.060000e+02 2.146192e-36
5.070000e+02 2.758458e-36
5.080000e+02 3.543886e-36
5.090000e+02 4.547091e-36
5.100000e+02 5.588652e-36
5.110000e+02 7.464058e-36
5.120000e+02 9.545347e-36
5.130000e+02 1.220494e-35
5.140000e+02 1.558455e-35
5.150000e+02 1.988081e-35
5.160000e+02 2.533721e-35
5.170000e+02 3.226301e-35
5.180000e+02 4.104205e-35
5.190000e+02 5.216139e-35
5.200000e+02 6.623201e-35
5.210000e+02 8.402065e-35
5.220000e+02 1.064653e-34
5.230000e+02 1.348450e-34
5.240000e+02 1.705994e-34
5.250000e+02 2.156378e-34
5.260000e+02 2.723224e-34
5.270000e+02 3.436020e-34
5.280000e+02 4.331554e-34
5.290000e+02 5.455692e-34
5.300000e+02 6.865559e-34
5.310000e+02 8.632251e-34
5.320000e+02 1.084417e-33
5.330000e+02 1.361114e-33
5.340000e+02 1.706949e-33
5.350000e+02 2.138828e-33
5.360000e+02 2.677680e-33
5.370000e+02 3.304049e-33
5.380000e+02 4.186386e-33
5.390000e+02 5.228078e-33
5.400000e+02 6.523482e-33
5.410000e+02 8.132800e-33
5.420000e+02 1.013163e-32
5.430000e+02 1.261091e-32
5.440000e+02 1.568415e-32
5.450000e+02 1.949057e-32
5.460000e+02 2.420133e-32
5.470000e+02 3.002665e-32
5.480000e+02 3.722453e-32
5.490000e+02 4.611138e-32
5.500000e+02 5.707493e-32
5.510000e+02 7.058993e-32
5.520000e+02 8.723728e-32
5.530000e+02 1.077271e-31
5.540000e+02 1.329269e-31
5.550000e+02 1.638964e-31
5.560000e+02 2.019268e-31
5.570000e+02 2.485933e-31
5.580000e+02 3.058139e-31
5.590000e+02 3.759231e-31
5.600000e+02 4.617603e-31
5.610000e+02 5.667764e-31
5.620000e+02 6.951619e-31
5.630000e+02 8.520028e-31
5.640000e+02 1.043467e-30
5.650000e+02 1.277027e-30
5.660000e+02 1.561735e-30
5.670000e+02 1.908544e-30
5.680000e+02 2.330697e-30
5.690000e+02 2.844199e-30
5.700000e+02 3.468378e-30
5.710000e+02 4.226554e-30
5.720000e+02 5.146853e-30
5.730000e+02 6.263167e-30
5.740000e+02 7.616310e-30
5.750000e+02 9.255400e-30
5.760000e+02 1.123956e-29
5.770000e+02 1.363984e-29
5.780000e+02 1.654126e-29
5.790000e+02 2.004628e-29
5.800000e+02 2.427765e-29
5.810000e+02 2.938245e-29
5.820000e+02 3.553690e-29
5.830000e+02 4.295165e-29
5.840000e+02 5.186981e-29
5.850000e+02 6.262012e-29
5.860000e+02 7.554072e-29
5.870000e+02 9.106462e-29
5.880000e+02 1.097074e-28
5.890000e+02 1.320815e-28
5.900000e+02 1.589169e-28
5.910000e+02 1.910828e-28
5.920000e+02 2.296135e-28
5.930000e+02 2.757398e-28
5.940000e+02 3.309245e-28
5.950000e+02 3.969055e-28
5.960000e+02 4.757462e-28
5.970000e+02 5.698954e-28
5.980000e+02 6.822566e-28
5.990000e+02 8.162711e-28
6.000000e+02 9.760152e-28
6.010000e+02 1.166314e-27
6.020000e+02 1.392876e-27
6.030000e+02 1.662450e-27
6.040000e+02 1.983012e-27
6.050000e+02 2.363982e-27
6.060000e+02 2.816476e-27
6.070000e+02 3.353608e-27
6.080000e+02 3.990839e-27
6.090000e+02 4.746386e-27
6.100000e+02 5.641701e-27
6.110000e+02 6.702030e-27
6.120000e+02 7.957072e-27
6.130000e+02 9.441739e-27
6.140000e+02 1.119705e-26
6.150000e+02 1.327118e-26
6.160000e+02 1.572066e-26
6.170000e+02 1.861181e-26
6.180000e+02 2.202238e-26
6.190000e+02 2.604346e-26
6.200000e+02 3.078175e-26
6.210000e+02 3.636211e-26
6.220000e+02 4.293062e-26
6.230000e+02 5.065809e-26
6.240000e+02 5.974411e-26
6.250000e+02 7.042180e-26
6.260000e+02 8.296331e-26
6.270000e+02 9.768614e-26
6.280000e+02 1.149606e-25
6.290000e+02 1.352182e-25
6.300000e+02 1.589617e-25
6.310000e+02 1.867440e-25
6.320000e+02 2.193440e-25
6.330000e+02 2.574563e-25
6.340000e+02 3.020348e-25
6.350000e+02 3.541480e-25
6.360000e+02 4.150445e-25
6.370000e+02 4.861621e-25
6.380000e+02 5.691769e-25
6.390000e+02 6.660307e-25
6.400000e+02 7.789743e-25
6.410000e+02 9.106150e-25
6.420000e+02 1.063972e-24
6.430000e+02 1.242541e-24
6.440000e+02 1.450364e-24
6.450000e+02 1.692116e-24
6.460000e+02 1.973200e-24
6.470000e+02 2.299858e-24
6.480000e+02 2.679296e-24
6.490000e+02 3.119831e-24
6.500000e+02 3.631059e-24
6.510000e+02 4.224042e-24
6.520000e+02 4.911530e-24
6.530000e+02 5.708212e-24
6.540000e+02 6.630998e-24
6.550000e+02 7.699351e-24
6.560000e+02 8.935664e-24
6.570000e+02 1.036568e-23
6.580000e+02 1.201900e-23
6.590000e+02 1.392960e-23
6.600000e+02 1.613654e-23
6.610000e+02 1.868461e-23
6.620000e+02 2.162522e-23
6.630000e+02 2.501733e-23
6.640000e+02 2.892850e-23
6.650000e+02 3.343618e-23
6.660000e+02 3.862905e-23
6.670000e+02 4.460858e-23
6.680000e+02 5.149095e-23
6.690000e+02 5.940903e-23
6.700000e+02 6.851474e-23
6.710000e+02 7.898167e-23
6.720000e+02 9.100812e-23
6.730000e+02 1.048206e-22
6.740000e+02 1.206775e-22
6.750000e+02 1.388737e-22
6.760000e+02 1.597455e-22
6.770000e+02 1.836763e-22
6.780000e+02 2.111029e-22
6.790000e+02 2.425228e-22
6.800000e+02 2.785027e-22
6.810000e+02 3.196871e-22
6.820000e+02 3.668095e-22
6.830000e+02 4.207041e-22
6.840000e+02 4.823189e-22
6.850000e+02 5.527312e-22
6.860000e+02 6.331647e-22
6.870000e+02 7.250086e-22
6.880000e+02 8.298396e-22
6.890000e+02 9.494463e-22
6.900000e+02 1.085857e-21
6.910000e+02 1.241372e-21
6.920000e+02 1.418595e-21
6.930000e+02 1.620479e-21
6.940000e+02 1.850366e-21
6.950000e+02 2.112037e-21
6.960000e+02 2.409771e-21
6.970000e+02 2.748410e-21
6.980000e+02 3.133424e-21
6.990000e+02 3.570998e-21
7.000000e+02 4.068117e-21
7.010000e+02 4.632671e-21
7.020000e+02 5.273566e-21
7.030000e+02 6.000852e-21
7.040000e+02 6.825865e-21
7.050000e+02 7.761389e-21
7.060000e+02 8.821827e-21
7.070000e+02 1.002344e-20
7.080000e+02 1.138449e-20
7.090000e+02 1.292559e-20
7.100000e+02 1.466991e-20
7.110000e+02 1.664354e-20
7.120000e+02 1.887582e-20
7.130000e+02 2.139973e-20
7.140000e+02 2.425235e-20
7.150000e+02 2.747535e-20
7.160000e+02 3.111552e-20
7.170000e+02 3.522541e-20
7.180000e+02 3.986399e-20
7.190000e+02 4.509743e-20
7.200000e+02 5.099998e-20
7.210000e+02 5.765485e-20
7.220000e+02 6.515534e-20
7.230000e+02 7.360599e-20
7.240000e+02 8.312390e-20
7.250000e+02 9.384018e-20
7.260000e+02 1.059016e-19
7.270000e+02 1.194725e-19
7.280000e+02 1.347365e-19
7.290000e+02 1.518991e-19
7.300000e+02 1.711901e-19
7.310000e+02 1.928660e-19
7.320000e+02 2.172138e-19
7.330000e+02 2.445538e-19
7.340000e+02 2.752434e-19
7.350000e+02 3.096819e-19
7.360000e+02 3.483145e-19
7.370000e+02 3.916380e-19
7.380000e+02 4.402061e-19
7.390000e+02 4.946363e-19
7.400000e+02 5.556165e-19
7.410000e+02 6.239131e-19
7.420000e+02 7.003795e-19
7.430000e+02 7.859658e-19
7.440000e+02 8.817296e-19
7.450000e+02 9.888473e-19
7.460000e+02 1.108628e-18
7.470000e+02 1.242525e-18
7.480000e+02 1.392158e-18
7.490000e+02 1.559324e-18
7.500000e+02 1.746018e-18
7.510000e+02 1.954459e-18
7.520000e+02 2.187108e-18
7.530000e+02 2.446699e-18
7.540000e+02 2.736262e-18
7.550000e+02 3.059162e-18
7.560000e+02 3.419127e-18
7.570000e+02 3.820292e-18
7.580000e+02 4.267239e-18
7.590000e+02 4.765046e-18
7.600000e+02 5.319335e-18
7.610000e+02 5.936332e-18
7.620000e+02 6.622932e-18
7.630000e+02 7.386761e-18
7.640000e+02 8.236260e-18
7.650000e+02 9.180760e-18
7.660000e+02 1.023059e-17
7.670000e+02 1.139715e-17
7.680000e+02 1.269305e-17
7.690000e+02 1.413222e-17
7.700000e+02 1.573005e-17
7.710000e+02 1.750352e-17
7.720000e+02 1.947139e-17
7.730000e+02 2.165434e-17
7.740000e+02 2.407522e-17
7.750000e+02 2.675921e-17
7.760000e+02 2.973407e-17
7.770000e+02 3.303040e-17
7.780000e+02 3.668196e-17
7.790000e+02 4.072589e-17
7.800000e+02 4.520315e-17
7.810000e+02 5.015882e-17
7.820000e+02 5.564251e-17
7.830000e+02 6.170886e-17
7.840000e+02 6.841797e-17
7.850000e+02 7.583596e-17
7.860000e+02 8.403551e-17
7.870000e+02 9.309658e-17
7.880000e+02 1.031070e-16
7.890000e+02 1.141634e-16
7.900000e+02 1.263717e-16
7.910000e+02 1.398485e-16
7.920000e+02 1.547218e-16
7.930000e+02 1.711318e-16
7.940000e+02 1.892328e-16
7.950000e+02 2.091938e-16
7.960000e+02 2.312002e-16
7.970000e+02 2.554555e-16
7.980000e+02 2.821826e-16
7.990000e+02 3.116260e-16
8.000000e+02 3.440536e-16
8.010000e+02 3.797586e-16
8.020000e+02 4.190627e-16
8.030000e+02 4.623175e-16
8.040000e+02 5.099085e-16
8.050000e+02 5.622539e-16
8.060000e+02 6.198253e-16
8.070000e+02 6.831171e-16
8.080000e+02 7.526850e-16
8.090000e+02 8.291324e-16
8.100000e+02 9.131193e-16
8.110000e+02 1.005367e-15
8.120000e+02 1.106663e-15
8.130000e+02 1.217868e-15
8.140000e+02 1.339922e-15
8.150000e+02 1.473852e-15
8.160000e+02 1.620778e-15
8.170000e+02 1.781923e-15
8.180000e+02 1.958621e-15
8.190000e+02 2.152328e-15
8.200000e+02 2.364631e-15
8.210000e+02 2.597260e-15
8.220000e+02 2.852103e-15
8.230000e+02 3.131215e-15
8.240000e+02 3.436838e-15
8.250000e+02 3.771413e-15
8.260000e+02 4.137596e-15
8.270000e+02 4.538283e-15
8.280000e+02 4.976626e-15
8.290000e+02 5.456053e-15
8.300000e+02 5.980298e-15
8.310000e+02 6.553420e-15
8.320000e+02 7.179836e-15
8.330000e+02 7.864348e-15
8.340000e+02 8.612177e-15
8.350000e+02 9.428996e-15
8.360000e+02 1.032098e-14
8.370000e+02 1.129482e-14
8.380000e+02 1.235780e-14
8.390000e+02 1.351783e-14
8.400000e+02 1.478348e-14
8.410000e+02 1.616409e-14
8.420000e+02 1.766975e-14
8.430000e+02 1.931144e-14
8.440000e+02 2.110107e-14
8.450000e+02 2.305156e-14
8.460000e+02 2.517690e-14
8.470000e+02 2.749227e-14
8.480000e+02 3.001414e-14
8.490000e+02 3.276034e-14
8.500000e+02 3.575019e-14
8.510000e+02 3.900465e-14
8.520000e+02 4.254635e-14
8.530000e+02 4.639990e-14
8.540000e+02 5.059184e-14
8.550000e+02 5.515096e-14
8.560000e+02 6.010839e-14
8.570000e+02 6.549784e-14
8.580000e+02 7.135574e-14
8.590000e+02 7.772153e-14
8.600000e+02 8.463784e-14
8.610000e+02 9.215073e-14
8.620000e+02 1.003100e-13
8.630000e+02 1.091696e-13
8.640000e+02 1.187875e-13
8.650000e+02 1.292268e-13
8.660000e+02 1.405552e-13
8.670000e+02 1.528460e-13
8.680000e+02 1.661784e-13
8.690000e+02 1.806377e-13
8.700000e+02 1.963161e-13
8.710000e+02 2.133134e-13
8.720000e+02 2.317365e-13
8.730000e+02 2.517013e-13
8.740000e+02 2.733327e-13
8.750000e+02 2.967652e-13
8.760000e+02 3.221439e-13
8.770000e+02 3.496253e-13
8.780000e+02 3.793776e-13
8.790000e+02 4.115830e-13
8.800000e+02 4.464366e-13
8.810000e+02 4.841492e-13
8.820000e+02 5.249477e-13
8.830000e+02 5.690761e-13
8.840000e+02 6.167975e-13
8.850000e+02 6.683950e-13
8.860000e+02 7.241727e-13
8.870000e+02 7.844583e-13
8.880000e+02 8.496041e-13
8.890000e+02 9.199890e-13
8.900000e+02 9.960204e-13
8.910000e+02 1.078136e-12
8.920000e+02 1.166808e-12
8.930000e+02 1.262541e-12
8.940000e+02 1.365878e-12
8.950000e+02 1.477405e-12
8.960000e+02 1.597748e-12
8.970000e+02 1.727582e-12
8.980000e+02 1.867629e-12
8.990000e+02 2.018667e-12
9.000000e+02 2.181529e-12
9.010000e+02 2.357110e-12
9.020000e+02 2.546369e-12
9.030000e+02 2.750336e-12
9.040000e+02 2.970119e-12
9.050000e+02 3.206900e-12
9.060000e+02 3.461949e-12
9.070000e+02 3.736630e-12
9.080000e+02 4.032402e-12
9.090000e+02 4.350830e-12
9.100000e+02 4.693590e-12
9.110000e+02 5.062480e-12
9.120000e+02 5.459425e-12
9.130000e+02 5.886483e-12
9.140000e+02 8.113760e-12
9.150000e+02 9.689733e-10
9.160000e+02 2.687525e-09
9.170000e+02 3.226566e-11
9.180000e+02 1.219055e-09
9.190000e+02 5.310094e-09
9.200000e+02 9.026309e-09
9.210000e+02 1.068757e-11
9.220000e+02 2.597933e-09
9.230000e+02 5.276528e-11
9.240000e+02 4.301937e-11
9.250000e+02 4.682599e-10
9.260000e+02 1.772098e-09
9.270000e+02 4.999084e-11
9.280000e+02 2.386191e-08
9.290000e+02 2.431515e-08
9.300000e+02 1.224716e-08
9.310000e+02 9.993531e-11
9.320000e+02 1.467106e-08
9.330000e+02 2.421762e-09
9.340000e+02 7.577938e-10
9.350000e+02 7.837221e-10
9.360000e+02 1.699735e-10
9.370000e+02 6.993765e-11
9.380000e+02 5.152507e-10
9.390000e+02 5.570108e-10
9.400000e+02 1.755935e-08
9.410000e+02 4.989831e-09
9.420000e+02 7.308646e-08
9.430000e+02 8.226930e-10
9.440000e+02 8.053307e-08
9.450000e+02 6.797358e-08
9.460000e+02 7.732249e-09
9.470000e+02 7.144840e-11
9.480000e+02 3.270424e-08
9.490000e+02 1.860853e-08
9.500000e+02 1.639954e-09
9.510000e+02 1.083189e-08
9.520000e+02 1.879319e-08
9.530000e+02 2.848590e-10
9.540000e+02 1.131625e-10
9.550000e+02 1.888136e-09
9.560000e+02 6.716566e-08
9.570000e+02 1.231349e-09
9.580000e+02 1.474225e-10
9.590000e+02 2.493505e-08
9.600000e+02 3.252092e-09
9.610000e+02 1.542696e-08
9.620000e+02 6.859897e-09
9.630000e+02 1.107249e-09
9.640000e+02 4.716014e-10
9.650000e+02 2.492513e-10
9.660000e+02 2.284402e-09
9.670000e+02 5.425740e-10
9.680000e+02 4.538308e-10
9.690000e+02 9.217825e-09
9.700000e+02 2.188818e-08
9.710000e+02 9.369492e-10
9.720000e+02 5.154437e-10
9.730000e+02 1.356093e-08
9.740000e+02 2.187178e-08
9.750000e+02 5.676980e-09
9.760000e+02 1.400451e-07
9.770000e+02 6.598706e-08
9.780000e+02 3.550331e-08
9.790000e+02 4.887833e-07
9.800000e+02 3.236233e-07
9.810000e+02 2.038146e-08
9.820000e+02 5.026301e-09
9.830000e+02 3.107180e-07
9.840000e+02 1.095766e-07
9.850000e+02 1.059859e-08
9.860000e+02 1.774677e-08
9.870000e+02 2.685093e-07
9.880000e+02 1.109370e-09
9.890000e+02 9.933260e-08
9.900000e+02 2.692564e-07
9.910000e+02 7.189461e-09
9.920000e+02 1.374415e-09
9.930000e+02 8.117853e-07
9.940000e+02 4.437041e-09
9.950000e+02 1.058911e-07
9.960000e+02 2.541370e-09
9.970000e+02 3.470458e-07
9.980000e+02 3.476036e-07
9.990000e+02 1.130432e-08
1.000000e+03 1.703044e-06
1.001000e+03 1.430304e-06
1.002000e+03 9.685174e-07
1.003000e+03 1.110720e-08
1.004000e+03 2.928743e-09
1.005000e+03 3.990135e-08
1.006000e+03 8.584713e-07
1.007000e+03 1.391413e-06
1.008000e+03 6.055411e-07
1.009000e+03 1.778992e-08
1.010000e+03 5.517346e-07
1.011000e+03 5.248569e-07
1.012000e+03 8.801842e-07
1.013000e+03 9.132041e-07
1.014000e+03 5.364086e-09
1.015000e+03 5.769209e-09
1.016000e+03 6.857420e-08
1.017000e+03 6.427967e-09
1.018000e+03 1.905380e-08
1.019000e+03 7.260269e-09
1.020000e+03 1.450694e-06
1.021000e+03 5.115987e-08
1.022000e+03 6.685946e-08
1.023000e+03 9.783662e-09
1.024000e+03 1.233914e-06
1.025000e+03 1.035818e-08
1.026000e+03 2.107885e-08
1.027000e+03 2.826674e-07
1.028000e+03 1.218582e-07
1.029000e+03 1.311082e-08
1.030000e+03 1.903641e-07
1.031000e+03 5.475756e-07
1.032000e+03 3.961563e-06
1.033000e+03 6.118512e-07
1.034000e+03 5.757021e-07
1.035000e+03 1.151986e-07
1.036000e+03 1.971318e-08
1.037000e+03 2.696578e-06
1.038000e+03 8.806270e-06
1.039000e+03 3.313359e-06
1.040000e+03 2.007062e-06
1.041000e+03 7.191551e-06
1.042000e+03 7.353985e-06
1.043000e+03 9.657034e-06
1.044000e+03 1.958636e-05
1.045000e+03 7.992043e-08
1.046000e+03 2.551488e-06
1.047000e+03 1.894438e-06
1.048000e+03 6.575806e-08
1.049000e+03 1.532125e-06
1.050000e+03 4.478234e-07
1.051000e+03 2.850429e-07
1.052000e+03 1.206201e-05
1.053000e+03 1.397958e-05
1.054000e+03 5.482434e-08
1.055000e+03 1.665413e-05
1.056000e+03 1.906775e-05
1.057000e+03 5.141391e-06
1.058000e+03 2.685888e-07
1.059000e+03 4.419489e-07
1.060000e+03 1.161188e-07
1.061000e+03 9.253559e-06
1.062000e+03 1.819820e-07
1.063000e+03 8.519919e-06
1.064000e+03 2.033412e-07
1.065000e+03 1.006320e-07
1.066000e+03 1.374943e-05
1.067000e+03 3.302287e-07
1.068000e+03 4.182477e-05
1.069000e+03 1.434488e-07
1.070000e+03 2.186851e-06
1.071000e+03 1.851448e-05
1.072000e+03 6.629393e-05
1.073000e+03 1.552544e-07
1.074000e+03 7.766307e-06
1.075000e+03 5.035676e-06
1.076000e+03 7.529817e-05
1.077000e+03 3.998985e-07
1.078000e+03 5.208603e-07
1.079000e+03 1.946631e-06
1.080000e+03 8.466114e-06
1.081000e+03 3.314543e-05
1.082000e+03 2.048714e-05
1.083000e+03 1.218815e-05
1.084000e+03 1.514637e-04
1.085000e+03 3.629924e-06
1.086000e+03 9.317725e-05
1.087000e+03 9.598225e-07
1.088000e+03 1.539055e-04
1.089000e+03 1.771798e-04
1.090000e+03 3.133196e-06
1.091000e+03 5.044829e-06
1.092000e+03 1.716226e-04
1.093000e+03 2.313061e-04
1.094000e+03 2.318594e-05
1.095000e+03 2.815437e-04
1.096000e+03 1.376015e-04
1.097000e+03 1.313594e-04
1.098000e+03 2.520847e-04
1.099000e+03 1.017854e-05
1.100000e+03 6.586706e-07
1.101000e+03 9.753832e-07
1.102000e+03 8.805260e-06
1.103000e+03 3.872079e-04
1.104000e+03 3.087049e-04
1.105000e+03 3.948132e-04
1.106000e+03 3.444169e-05
1.107000e+03 1.027991e-06
1.108000e+03 1.626071e-04
1.109000e+03 6.130984e-06
1.110000e+03 3.665580e-04
1.111000e+03 3.784106e-04
1.112000e+03 9.410604e-05
1.113000e+03 5.550706e-04
1.114000e+03 6.131198e-05
1.115000e+03 6.848488e-06
1.116000e+03 2.465772e-06
1.117000e+03 5.092982e-04
1.118000e+03 1.079780e-05
1.119000e+03 9.594796e-05
1.120000e+03 4.153175e-06
1.121000e+03 3.732747e-04
1.122000e+03 1.139690e-03
1.123000e+03 6.641331e-04
1.124000e+03 7.427132e-04
1.125000e+03 4.770133e-04
1.126000e+03 1.810789e-03
1.127000e+03 4.628777e-04
1.128000e+03 1.186576e-03
1.129000e+03 2.952421e-04
1.130000e+03 1.143563e-03
1.131000e+03 1.484741e-03
1.132000e+03 7.839946e-06
1.133000e+03 6.597780e-05
1.134000e+03 4.884567e-04
1.135000e+03 1.549678e-03
1.136000e+03 1.114699e-04
1.137000e+03 1.076033e-03
1.138000e+03 4.216088e-04
1.139000e+03 1.665307e-03
1.140000e+03 1.318487e-03
1.141000e+03 1.953310e-03
1.142000e+03 2.058040e-03
1.143000e+03 4.075307e-04
1.144000e+03 2.274015e-03
1.145000e+03 7.643248e-06
1.146000e+03 2.270122e-03
1.147000e+03 2.210010e-03
1.148000e+03 3.889482e-05
1.149000e+03 1.482811e-03
1.150000e+03 1.332860e-03
1.151000e+03 2.413569e-03
1.152000e+03 1.414280e-03
1.153000e+03 2.741594e-03
1.154000e+03 3.391370e-03
1.155000e+03 1.834958e-03
1.156000e+03 3.001923e-03
1.157000e+03 3.337176e-03
1.158000e+03 6.785530e-04
1.159000e+03 3.225641e-03
1.160000e+03 1.066112e-03
1.161000e+03 3.223020e-03
1.162000e+03 1.697475e-04
1.163000e+03 5.885758e-04
1.164000e+03 1.315952e-04
1.165000e+03 2.097424e-03
1.166000e+03 1.635525e-03
1.167000e+03 1.608214e-03
1.168000e+03 4.209814e-03
1.169000e+03 4.936756e-03
1.170000e+03 1.100557e-03
1.171000e+03 3.460232e-03
1.172000e+03 2.030569e-03
1.173000e+03 3.240895e-03
1.174000e+03 4.027050e-05
1.175000e+03 8.957600e-05
1.176000e+03 3.755541e-05
1.177000e+03 6.647546e-03
1.178000e+03 6.736705e-03
1.179000e+03 6.309869e-03
1.180000e+03 3.825138e-03
1.181000e+03 6.738835e-03
1.182000e+03 6.198979e-03
1.183000e+03 3.765636e-03
1.184000e+03 3.315939e-03
1.185000e+03 3.743539e-03
1.186000e+03 1.705090e-04
1.187000e+03 6.048961e-03
1.188000e+03 3.103714e-03
1.189000e+03 7.265021e-03
1.190000e+03 7.221215e-03
1.191000e+03 6.266178e-03
1.192000e+03 6.869604e-03
1.193000e+03 5.783218e-03
1.194000e+03 7.045704e-03
1.195000e+03 6.889082e-03
1.196000e+03 1.765421e-02
1.197000e+03 3.508042e-02
1.198000e+03 5.109496e-04
1.199000e+03 3.272834e-02
1.200000e+03 1.716384e-03
1.201000e+03 2.362663e-02
1.202000e+03 9.772845e-03
1.203000e+03 2.039200e-02
1.204000e+03 2.243937e-03
1.205000e+03 1.699179e-02
1.206000e+03 1.620420e-02
1.207000e+03 7.125318e-03
1.208000e+03 1.289611e-02
1.209000e+03 1.273046e-02
1.210000e+03 2.098307e-04
1.211000e+03 7.477058e-03
1.212000e+03 3.591858e-03
1.213000e+03 2.818250e-03
1.214000e+03 1.133649e-03
1.215000e+03 2.217363e-04
1.216000e+03 1.367161e-04
1.217000e+03 8.032833e-04
1.218000e+03 2.596561e-03
1.219000e+03 5.344631e-03
1.220000e+03 2.723805e-03
1.221000e+03 1.345086e-02
1.222000e+03 1.465468e-02
1.223000e+03 1.194079e-02
1.224000e+03 2.781173e-02
1.225000e+03 1.222808e-03
1.226000e+03 4.319372e-02
1.227000e+03 4.744149e-02
1.228000e+03 8.227568e-03
1.229000e+03 4.802597e-02
1.230000e+03 3.945336e-02
1.231000e+03 4.538141e-03
1.232000e+03 9.350548e-02
1.233000e+03 1.085737e-01
1.234000e+03 1.172430e-01
1.235000e+03 8.616679e-02
1.236000e+03 1.345727e-02
1.237000e+03 1.348752e-01
1.238000e+03 1.167692e-01
1.239000e+03 4.828527e-02
1.240000e+03 1.055530e-01
1.241000e+03 6.571683e-02
1.242000e+03 1.080430e-01
1.243000e+03 1.861320e-01
1.244000e+03 2.053146e-01
1.245000e+03 1.960159e-01
1.246000e+03 1.008891e-01
1.247000e+03 1.353517e-01
1.248000e+03 2.272206e-01
1.249000e+03 2.863111e-01
1.250000e+03 1.972430e-01
1.251000e+03 2.634990e-01
1.252000e+03 1.846334e-01
1.253000e+03 3.135669e-01
1.254000e+03 1.993062e-01
1.255000e+03 1.285340e-01
1.256000e+03 1.694077e-01
1.257000e+03 2.072789e-01
1.258000e+03 1.089503e-01
1.259000e+03 1.396520e-01
1.260000e+03 3.191529e-01
1.261000e+03 4.451507e-02
1.262000e+03 3.523083e-01
1.263000e+03 2.730949e-01
1.264000e+03 1.403910e-01
1.265000e+03 1.998033e-01
1.266000e+03 3.827649e-01
1.267000e+03 2.106700e-01
