# wavelength_A flux
5.000000e+02 5.010909e-33
5.010000e+02 6.369681e-33
5.020000e+02 8.089005e-33
5.030000e+02 1.026245e-32
5.040000e+02 1.300735e-32
5.050000e+02 1.647777e-32
5.060000e+02 2.084486e-32
5.070000e+02 2.634422e-32
5.080000e+02 3.326346e-32
5.090000e+02 4.196054e-32
5.100000e+02 5.286350e-32
5.110000e+02 6.658554e-32
5.120000e+02 8.376199e-32
5.130000e+02 1.052745e-31
5.140000e+02 1.321910e-31
5.150000e+02 1.658399e-31
5.160000e+02 2.078673e-31
5.170000e+02 2.603133e-31
5.180000e+02 3.257026e-31
5.190000e+02 4.071582e-31
5.200000e+02 5.085392e-31
5.210000e+02 6.346103e-31
5.220000e+02 7.912474e-31
5.230000e+02 9.857025e-31
5.240000e+02 1.226892e-30
5.250000e+02 1.525796e-30
5.260000e+02 1.895917e-30
5.270000e+02 2.353836e-30
5.280000e+02 2.919911e-30
5.290000e+02 3.619109e-30
5.300000e+02 4.482024e-30
5.310000e+02 5.546120e-30
5.320000e+02 6.857234e-30
5.330000e+02 8.471404e-30
5.340000e+02 1.045708e-29
5.350000e+02 1.289781e-29
5.360000e+02 1.589550e-29
5.370000e+02 1.957264e-29
5.380000e+02 2.408553e-29
5.390000e+02 2.961310e-29
5.400000e+02 3.638077e-29
5.410000e+02 4.466031e-29
5.420000e+02 5.478178e-29
5.430000e+02 6.714539e-29
5.440000e+02 8.223640e-29
5.450000e+02 1.006426e-28
5.460000e+02 1.230752e-28
5.470000e+02 1.503948e-28
5.480000e+02 1.836412e-28
5.490000e+02 2.240704e-28
5.500000e+02 2.731978e-28
5.510000e+02 3.328514e-28
5.520000e+02 4.052339e-28
5.530000e+02 4.929977e-28
5.540000e+02 5.993351e-28
5.550000e+02 7.280845e-28
5.560000e+02 8.838587e-28
5.570000e+02 1.072197e-27
5.580000e+02 1.299747e-27
5.590000e+02 1.574479e-27
5.600000e+02 1.905947e-27
5.610000e+02 2.305590e-27
5.620000e+02 2.787097e-27
5.630000e+02 3.366842e-27
5.640000e+02 4.064392e-27
5.650000e+02 4.903115e-27
5.660000e+02 5.910905e-27
5.670000e+02 7.121030e-27
5.680000e+02 8.573142e-27
5.690000e+02 1.031448e-26
5.700000e+02 1.240127e-26
5.710000e+02 1.490040e-26
5.720000e+02 1.789141e-26
5.730000e+02 2.146876e-26
5.740000e+02 2.574466e-26
5.750000e+02 3.085221e-26
5.760000e+02 3.694929e-26
5.770000e+02 4.422297e-26
5.780000e+02 5.289482e-26
5.790000e+02 6.322710e-26
5.800000e+02 7.553005e-26
5.810000e+02 9.017040e-26
5.820000e+02 1.075814e-25
5.830000e+02 1.282748e-25
5.840000e+02 1.528541e-25
5.850000e+02 1.820315e-25
5.860000e+02 2.166461e-25
5.870000e+02 2.576861e-25
5.880000e+02 3.063152e-25
5.890000e+02 3.639025e-25
5.900000e+02 4.320575e-25
5.910000e+02 5.126720e-25
5.920000e+02 6.079677e-25
5.930000e+02 7.205522e-25
5.940000e+02 8.534848e-25
5.950000e+02 1.010352e-24
5.960000e+02 1.195358e-24
5.970000e+02 1.413423e-24
5.980000e+02 1.670310e-24
5.990000e+02 1.972757e-24
6.000000e+02 2.328645e-24
6.010000e+02 2.747181e-24
6.020000e+02 3.239118e-24
6.030000e+02 3.817007e-24
6.040000e+02 4.495491e-24
6.050000e+02 5.291642e-24
6.060000e+02 6.225356e-24
6.070000e+02 7.319804e-24
6.080000e+02 8.601962e-24
6.090000e+02 1.010321e-23
6.100000e+02 1.186005e-23
6.110000e+02 1.391489e-23
6.120000e+02 1.631701e-23
6.130000e+02 1.912361e-23
6.140000e+02 2.240108e-23
6.150000e+02 2.622641e-23
6.160000e+02 3.068886e-23
6.170000e+02 3.589183e-23
6.180000e+02 4.195510e-23
6.190000e+02 4.901728e-23
6.200000e+02 5.723872e-23
6.210000e+02 6.680489e-23
6.220000e+02 7.793008e-23
6.230000e+02 9.086186e-23
6.240000e+02 1.058861e-22
6.250000e+02 1.233326e-22
6.260000e+02 1.435819e-22
6.270000e+02 1.670726e-22
6.280000e+02 1.943103e-22
6.290000e+02 2.258772e-22
6.300000e+02 2.624435e-22
6.310000e+02 3.047806e-22
6.320000e+02 3.537756e-22
6.330000e+02 4.104483e-22
6.340000e+02 4.759705e-22
6.350000e+02 5.516881e-22
6.360000e+02 6.391462e-22
6.370000e+02 7.401177e-22
6.380000e+02 8.566361e-22
6.390000e+02 9.910324e-22
6.400000e+02 1.145978e-21
6.410000e+02 1.324532e-21
6.420000e+02 1.530198e-21
6.430000e+02 1.766983e-21
6.440000e+02 2.039473e-21
6.450000e+02 2.352909e-21
6.460000e+02 2.713282e-21
6.470000e+02 3.127434e-21
6.480000e+02 3.603179e-21
6.490000e+02 4.149434e-21
6.500000e+02 4.776371e-21
6.510000e+02 5.495591e-21
6.520000e+02 6.320316e-21
6.530000e+02 7.265610e-21
6.540000e+02 8.348628e-21
6.550000e+02 9.588902e-21
6.560000e+02 1.100865e-20
6.570000e+02 1.263316e-20
6.580000e+02 1.449115e-20
6.590000e+02 1.661530e-20
6.600000e+02 1.904269e-20
6.610000e+02 2.181545e-20
6.620000e+02 2.498140e-20
6.630000e+02 2.859480e-20
6.640000e+02 3.271715e-20
6.650000e+02 3.741823e-20
6.660000e+02 4.277706e-20
6.670000e+02 4.888318e-20
6.680000e+02 5.583797e-20
6.690000e+02 6.375617e-20
6.700000e+02 7.276760e-20
6.710000e+02 8.301907e-20
6.720000e+02 9.467658e-20
6.730000e+02 1.079277e-19
6.740000e+02 1.229843e-19
6.750000e+02 1.400856e-19
6.760000e+02 1.595017e-19
6.770000e+02 1.815373e-19
6.780000e+02 2.065360e-19
6.790000e+02 2.348854e-19
6.800000e+02 2.670222e-19
6.810000e+02 3.034383e-19
6.820000e+02 3.446878e-19
6.830000e+02 3.913945e-19
6.840000e+02 4.442603e-19
6.850000e+02 5.040748e-19
6.860000e+02 5.717259e-19
6.870000e+02 6.482119e-19
6.880000e+02 7.346542e-19
6.890000e+02 8.323128e-19
6.900000e+02 9.426022e-19
6.910000e+02 1.067110e-18
6.920000e+02 1.207619e-18
6.930000e+02 1.366127e-18
6.940000e+02 1.544875e-18
6.950000e+02 1.746375e-18
6.960000e+02 1.973440e-18
6.970000e+02 2.229224e-18
6.980000e+02 2.517256e-18
6.990000e+02 2.841487e-18
7.000000e+02 3.206336e-18
7.010000e+02 3.616749e-18
7.020000e+02 4.078254e-18
7.030000e+02 4.597029e-18
7.040000e+02 5.179982e-18
7.050000e+02 5.834824e-18
7.060000e+02 6.570167e-18
7.070000e+02 7.395626e-18
7.080000e+02 8.321927e-18
7.090000e+02 9.361037e-18
7.100000e+02 1.052630e-17
7.110000e+02 1.183259e-17
7.120000e+02 1.329649e-17
7.130000e+02 1.493647e-17
7.140000e+02 1.677309e-17
7.150000e+02 1.882925e-17
7.160000e+02 2.113043e-17
7.170000e+02 2.370499e-17
7.180000e+02 2.658447e-17
7.190000e+02 2.980393e-17
7.200000e+02 3.340235e-17
7.210000e+02 3.742302e-17
7.220000e+02 4.191407e-17
7.230000e+02 4.692892e-17
7.240000e+02 5.252686e-17
7.250000e+02 5.877373e-17
7.260000e+02 6.574254e-17
7.270000e+02 7.351429e-17
7.280000e+02 8.217875e-17
7.290000e+02 9.183549e-17
7.300000e+02 1.025948e-16
7.310000e+02 1.145788e-16
7.320000e+02 1.279228e-16
7.330000e+02 1.427767e-16
7.340000e+02 1.593062e-16
7.350000e+02 1.776946e-16
7.360000e+02 1.981450e-16
7.370000e+02 2.208816e-16
7.380000e+02 2.461525e-16
7.390000e+02 2.742316e-16
7.400000e+02 3.054218e-16
7.410000e+02 3.400574e-16
7.420000e+02 3.785078e-16
7.430000e+02 4.211805e-16
7.440000e+02 4.685253e-16
7.450000e+02 5.210384e-16
7.460000e+02 5.792670e-16
7.470000e+02 6.438146e-16
7.480000e+02 7.153462e-16
7.490000e+02 7.945946e-16
7.500000e+02 8.823674e-16
7.510000e+02 9.795537e-16
7.520000e+02 1.087132e-15
7.530000e+02 1.206182e-15
7.540000e+02 1.337887e-15
7.550000e+02 1.483553e-15
7.560000e+02 1.644615e-15
7.570000e+02 1.822650e-15
7.580000e+02 2.019392e-15
7.590000e+02 2.236748e-15
7.600000e+02 2.476811e-15
7.610000e+02 2.741881e-15
7.620000e+02 3.034483e-15
7.630000e+02 3.357389e-15
7.640000e+02 3.713640e-15
7.650000e+02 4.106575e-15
7.660000e+02 4.539855e-15
7.670000e+02 5.017495e-15
7.680000e+02 5.543896e-15
7.690000e+02 6.123882e-15
7.700000e+02 6.762740e-15
7.710000e+02 7.466260e-15
7.720000e+02 8.240784e-15
7.730000e+02 9.093254e-15
7.740000e+02 1.003127e-14
7.750000e+02 1.106316e-14
7.760000e+02 1.219801e-14
7.770000e+02 1.344579e-14
7.780000e+02 1.481737e-14
7.790000e+02 1.632466e-14
7.800000e+02 1.798065e-14
7.810000e+02 1.979958e-14
7.820000e+02 2.179695e-14
7.830000e+02 2.398974e-14
7.840000e+02 2.639645e-14
7.850000e+02 2.903729e-14
7.860000e+02 3.193434e-14
7.870000e+02 3.511165e-14
7.880000e+02 3.859548e-14
7.890000e+02 4.241447e-14
7.900000e+02 4.659984e-14
7.910000e+02 5.118562e-14
7.920000e+02 5.620891e-14
7.930000e+02 6.171011e-14
7.940000e+02 6.773325e-14
7.950000e+02 7.432626e-14
7.960000e+02 8.154135e-14
7.970000e+02 8.943532e-14
7.980000e+02 9.807002e-14
7.990000e+02 1.075127e-13
8.000000e+02 1.178366e-13
8.010000e+02 1.291213e-13
8.020000e+02 1.414533e-13
8.030000e+02 1.549267e-13
8.040000e+02 1.696437e-13
8.050000e+02 1.857154e-13
8.060000e+02 2.032624e-13
8.070000e+02 2.224159e-13
8.080000e+02 2.433182e-13
8.090000e+02 2.661237e-13
8.100000e+02 2.910000e-13
8.110000e+02 3.181292e-13
8.120000e+02 3.477085e-13
8.130000e+02 3.799522e-13
8.140000e+02 4.150922e-13
8.150000e+02 4.533804e-13
8.160000e+02 4.950895e-13
8.170000e+02 5.405151e-13
8.180000e+02 5.899776e-13
8.190000e+02 6.438238e-13
8.200000e+02 7.024297e-13
8.210000e+02 7.662019e-13
8.220000e+02 8.355811e-13
8.230000e+02 9.110439e-13
8.240000e+02 9.931061e-13
8.250000e+02 1.082326e-12
8.260000e+02 1.179306e-12
8.270000e+02 1.284701e-12
8.280000e+02 1.399215e-12
8.290000e+02 1.523611e-12
8.300000e+02 1.658715e-12
8.310000e+02 1.805416e-12
8.320000e+02 1.964677e-12
8.330000e+02 2.137538e-12
8.340000e+02 2.325121e-12
8.350000e+02 2.528638e-12
8.360000e+02 2.749396e-12
8.370000e+02 2.988809e-12
8.380000e+02 3.248399e-12
8.390000e+02 3.529809e-12
8.400000e+02 3.834813e-12
8.410000e+02 4.165320e-12
8.420000e+02 4.523392e-12
8.430000e+02 4.911250e-12
8.440000e+02 5.331288e-12
8.450000e+02 5.786086e-12
8.460000e+02 6.278422e-12
8.470000e+02 6.811290e-12
8.480000e+02 7.387912e-12
8.490000e+02 8.011761e-12
8.500000e+02 8.686571e-12
8.510000e+02 9.416364e-12
8.520000e+02 1.020547e-11
8.530000e+02 1.105853e-11
8.540000e+02 1.198057e-11
8.550000e+02 1.297697e-11
8.560000e+02 1.405351e-11
8.570000e+02 1.521643e-11
8.580000e+02 1.647242e-11
8.590000e+02 1.782866e-11
8.600000e+02 1.929289e-11
8.610000e+02 2.087340e-11
8.620000e+02 2.257912e-11
8.630000e+02 2.441961e-11
8.640000e+02 2.640515e-11
8.650000e+02 2.854679e-11
8.660000e+02 3.085637e-11
8.670000e+02 3.334660e-11
8.680000e+02 3.603111e-11
8.690000e+02 3.892454e-11
8.700000e+02 4.204258e-11
8.710000e+02 4.540206e-11
8.720000e+02 4.902101e-11
8.730000e+02 5.291878e-11
8.740000e+02 5.711609e-11
8.750000e+02 6.163516e-11
8.760000e+02 6.649979e-11
8.770000e+02 7.173548e-11
8.780000e+02 7.736951e-11
8.790000e+02 8.343115e-11
8.800000e+02 8.995169e-11
8.810000e+02 9.696465e-11
8.820000e+02 1.045059e-10
8.830000e+02 1.126138e-10
8.840000e+02 1.213295e-10
8.850000e+02 1.306969e-10
8.860000e+02 1.407629e-10
8.870000e+02 1.515779e-10
8.880000e+02 1.631956e-10
8.890000e+02 1.756735e-10
8.900000e+02 1.890728e-10
8.910000e+02 2.034594e-10
8.920000e+02 2.189032e-10
8.930000e+02 2.354792e-10
8.940000e+02 2.532675e-10
8.950000e+02 2.723536e-10
8.960000e+02 2.928286e-10
8.970000e+02 3.147900e-10
8.980000e+02 3.383419e-10
8.990000e+02 3.635952e-10
9.000000e+02 3.906686e-10
9.010000e+02 4.196883e-10
9.020000e+02 4.507892e-10
9.030000e+02 4.841153e-10
9.040000e+02 5.198199e-10
9.050000e+02 5.580665e-10
9.060000e+02 5.990298e-10
9.070000e+02 6.428955e-10
9.080000e+02 6.898617e-10
9.090000e+02 7.401398e-10
9.100000e+02 7.939546e-10
9.110000e+02 8.515458e-10
9.120000e+02 9.131689e-10
9.130000e+02 9.790956e-10
9.140000e+02 1.058368e-09
9.150000e+02 2.377761e-07
9.160000e+02 1.477912e-06
9.170000e+02 4.900082e-08
9.180000e+02 3.066853e-07
9.190000e+02 4.121645e-06
9.200000e+02 1.136625e-05
9.210000e+02 1.700426e-09
9.220000e+02 6.051469e-06
9.230000e+02 4.728041e-08
9.240000e+02 8.315055e-08
9.250000e+02 9.662120e-07
9.260000e+02 4.431246e-07
9.270000e+02 7.427752e-08
9.280000e+02 6.468855e-05
9.290000e+02 6.422325e-05
9.300000e+02 1.427451e-05
9.310000e+02 8.430857e-08
9.320000e+02 5.126528e-05
9.330000e+02 6.970011e-06
9.340000e+02 1.700530e-06
9.350000e+02 1.319227e-07
9.360000e+02 2.439475e-07
9.370000e+02 3.294993e-08
9.380000e+02 9.925602e-08
9.390000e+02 7.551020e-07
9.400000e+02 5.941251e-05
9.410000e+02 7.029983e-06
9.420000e+02 2.138282e-04
9.430000e+02 1.201573e-06
9.440000e+02 2.421088e-04
9.450000e+02 2.244217e-04
9.460000e+02 2.299743e-05
9.470000e+02 2.731258e-08
9.480000e+02 6.830286e-05
9.490000e+02 7.492545e-06
9.500000e+02 1.559047e-07
9.510000e+02 1.495181e-05
9.520000e+02 4.043918e-05
9.530000e+02 2.512134e-07
9.540000e+02 3.094669e-08
9.550000e+02 3.002904e-06
9.560000e+02 3.080864e-04
9.570000e+02 1.354212e-06
9.580000e+02 2.066736e-08
9.590000e+02 1.569065e-04
9.600000e+02 3.246778e-07
9.610000e+02 3.396114e-05
9.620000e+02 1.117325e-05
9.630000e+02 1.654669e-06
9.640000e+02 3.458381e-07
9.650000e+02 9.508221e-08
9.660000e+02 3.204565e-06
9.670000e+02 5.125621e-07
9.680000e+02 3.449677e-07
9.690000e+02 2.111089e-05
9.700000e+02 2.774547e-05
9.710000e+02 7.987678e-07
9.720000e+02 2.943202e-07
9.730000e+02 1.647731e-06
9.740000e+02 2.219332e-05
9.750000e+02 6.894896e-06
9.760000e+02 2.673177e-04
9.770000e+02 1.396567e-04
9.780000e+02 5.227189e-05
9.790000e+02 1.215957e-03
9.800000e+02 1.162974e-03
9.810000e+02 3.143831e-05
9.820000e+02 5.121430e-06
9.830000e+02 9.775026e-04
9.840000e+02 3.740903e-05
9.850000e+02 1.337987e-05
9.860000e+02 2.235036e-05
9.870000e+02 1.068179e-03
9.880000e+02 3.128662e-07
9.890000e+02 1.901264e-04
9.900000e+02 5.353106e-04
9.910000e+02 5.367655e-06
9.920000e+02 1.578994e-07
9.930000e+02 2.445264e-03
9.940000e+02 2.695924e-07
9.950000e+02 1.008331e-04
9.960000e+02 1.327018e-06
9.970000e+02 1.231455e-04
9.980000e+02 7.165924e-04
9.990000e+02 9.178178e-06
1.000000e+03 4.136514e-03
1.001000e+03 3.440807e-03
1.002000e+03 3.018493e-03
1.003000e+03 9.520678e-06
1.004000e+03 5.390029e-07
1.005000e+03 3.821449e-05
1.006000e+03 2.346643e-03
1.007000e+03 3.775508e-03
1.008000e+03 1.244585e-03
1.009000e+03 1.473799e-05
1.010000e+03 1.273782e-03
1.011000e+03 1.780995e-03
1.012000e+03 1.769280e-03
1.013000e+03 1.638702e-03
1.014000e+03 5.536713e-07
1.015000e+03 1.031673e-06
1.016000e+03 4.898920e-05
1.017000e+03 6.363261e-07
1.018000e+03 1.442735e-05
1.019000e+03 1.000240e-06
1.020000e+03 2.622012e-03
1.021000e+03 2.981978e-05
1.022000e+03 4.347321e-05
1.023000e+03 2.359040e-06
1.024000e+03 2.648010e-04
1.025000e+03 9.857977e-07
1.026000e+03 1.514469e-06
1.027000e+03 8.671341e-05
1.028000e+03 8.680800e-06
1.029000e+03 1.237378e-06
1.030000e+03 1.924657e-04
1.031000e+03 4.390697e-04
1.032000e+03 5.721827e-03
1.033000e+03 8.307281e-05
1.034000e+03 5.755071e-04
1.035000e+03 5.831243e-06
1.036000e+03 1.868932e-06
1.037000e+03 5.644280e-03
1.038000e+03 3.290791e-02
1.039000e+03 6.143928e-03
1.040000e+03 5.572691e-03
1.041000e+03 3.853602e-02
1.042000e+03 2.280398e-02
1.043000e+03 2.222894e-02
1.044000e+03 8.051839e-02
1.045000e+03 5.182043e-06
1.046000e+03 5.372822e-03
1.047000e+03 1.691770e-03
1.048000e+03 2.665026e-05
1.049000e+03 1.628097e-03
1.050000e+03 3.873501e-04
1.051000e+03 1.991689e-04
1.052000e+03 3.027871e-02
1.053000e+03 5.704400e-02
1.054000e+03 4.656613e-06
1.055000e+03 6.631720e-02
1.056000e+03 7.517194e-02
1.057000e+03 5.471297e-03
1.058000e+03 1.947485e-04
1.059000e+03 1.480021e-04
1.060000e+03 4.102848e-05
1.061000e+03 1.063332e-02
1.062000e+03 1.016310e-04
1.063000e+03 5.522809e-03
1.064000e+03 1.172721e-05
1.065000e+03 8.150935e-06
1.066000e+03 1.550773e-02
1.067000e+03 1.404627e-04
1.068000e+03 1.670782e-01
1.069000e+03 3.235371e-05
1.070000e+03 2.118617e-03
1.071000e+03 5.260063e-02
1.072000e+03 1.618159e-01
1.073000e+03 1.306832e-05
1.074000e+03 5.968282e-03
1.075000e+03 3.196239e-03
1.076000e+03 1.758230e-01
1.077000e+03 1.214333e-04
1.078000e+03 2.788156e-04
1.079000e+03 1.447650e-03
1.080000e+03 6.891686e-03
1.081000e+03 4.270380e-02
1.082000e+03 2.126269e-02
1.083000e+03 1.007456e-02
1.084000e+03 3.942005e-01
1.085000e+03 2.061561e-03
1.086000e+03 2.872268e-01
1.087000e+03 3.751516e-04
1.088000e+03 4.603640e-01
1.089000e+03 4.853331e-01
1.090000e+03 1.598196e-03
1.091000e+03 2.505302e-03
1.092000e+03 4.168585e-01
1.093000e+03 5.179532e-01
1.094000e+03 2.663269e-02
1.095000e+03 6.422093e-01
1.096000e+03 3.007728e-02
1.097000e+03 1.666832e-01
1.098000e+03 5.985713e-01
1.099000e+03 6.411135e-03
1.100000e+03 9.746198e-05
1.101000e+03 2.895804e-04
1.102000e+03 4.236958e-03
1.103000e+03 6.748191e-01
1.104000e+03 8.249564e-01
1.105000e+03 7.851696e-01
1.106000e+03 2.417323e-02
1.107000e+03 1.819134e-04
1.108000e+03 2.100924e-01
1.109000e+03 2.349019e-03
1.110000e+03 9.598566e-01
1.111000e+03 5.859199e-01
1.112000e+03 8.387876e-02
1.113000e+03 6.971897e-01
1.114000e+03 4.414025e-02
1.115000e+03 2.820395e-03
1.116000e+03 9.891860e-04
1.117000e+03 7.040575e-01
1.118000e+03 4.038125e-03
1.119000e+03 9.399745e-02
1.120000e+03 1.509249e-03
1.121000e+03 4.849434e-01
1.122000e+03 1.689042e+00
1.123000e+03 1.064891e+00
1.124000e+03 1.281412e+00
1.125000e+03 5.661468e-01
1.126000e+03 2.453673e+00
1.127000e+03 7.109395e-01
1.128000e+03 1.274913e+00
1.129000e+03 2.938493e-01
1.130000e+03 1.412366e+00
1.131000e+03 1.424721e+00
1.132000e+03 2.788432e-03
1.133000e+03 2.460909e-02
1.134000e+03 3.693893e-01
1.135000e+03 1.245577e+00
1.136000e+03 5.310619e-02
1.137000e+03 1.001629e+00
1.138000e+03 2.802973e-01
1.139000e+03 1.516353e+00
1.140000e+03 1.415065e+00
1.141000e+03 1.437760e+00
1.142000e+03 1.586089e+00
1.143000e+03 3.527510e-01
1.144000e+03 1.570445e+00
1.145000e+03 1.542091e-03
1.146000e+03 1.676880e+00
1.147000e+03 1.555899e+00
1.148000e+03 1.282459e-02
1.149000e+03 1.073879e+00
1.150000e+03 8.359077e-01
1.151000e+03 1.609916e+00
1.152000e+03 1.206300e+00
1.153000e+03 1.507668e+00
1.154000e+03 1.640733e+00
1.155000e+03 9.923550e-01
1.156000e+03 1.273893e+00
1.157000e+03 1.485217e+00
1.158000e+03 3.911428e-01
1.159000e+03 1.509682e+00
1.160000e+03 5.086383e-01
1.161000e+03 1.366128e+00
1.162000e+03 5.816150e-02
1.163000e+03 2.195995e-01
1.164000e+03 5.210280e-03
1.165000e+03 7.471721e-01
1.166000e+03 4.204047e-01
1.167000e+03 3.168844e-01
1.168000e+03 1.614244e+00
1.169000e+03 1.678644e+00
1.170000e+03 2.745942e-01
1.171000e+03 8.131079e-01
1.172000e+03 4.914236e-01
1.173000e+03 6.054567e-01
1.174000e+03 9.759575e-03
1.175000e+03 3.517121e-03
1.176000e+03 1.504540e-03
1.177000e+03 2.099086e+00
1.178000e+03 2.007326e+00
1.179000e+03 1.862101e+00
1.180000e+03 1.209892e+00
1.181000e+03 1.761914e+00
1.182000e+03 1.657214e+00
1.183000e+03 1.154274e+00
1.184000e+03 1.012981e+00
1.185000e+03 1.136356e+00
1.186000e+03 5.183003e-02
1.187000e+03 1.358780e+00
1.188000e+03 7.993651e-01
1.189000e+03 1.416233e+00
1.190000e+03 1.375397e+00
1.191000e+03 1.214686e+00
1.192000e+03 1.186644e+00
1.193000e+03 1.074649e+00
1.194000e+03 1.145039e+00
1.195000e+03 1.093120e+00
1.196000e+03 1.040083e+01
1.197000e+03 1.246239e+01
1.198000e+03 1.762006e-01
1.199000e+03 1.090851e+01
1.200000e+03 6.329470e-01
1.201000e+03 8.722612e+00
1.202000e+03 3.787316e+00
1.203000e+03 6.460862e+00
1.204000e+03 6.543570e-01
1.205000e+03 4.433915e+00
1.206000e+03 3.707896e+00
1.207000e+03 6.390646e-01
1.208000e+03 1.965329e+00
1.209000e+03 1.518099e+00
1.210000e+03 7.067502e-03
1.211000e+03 5.970495e-01
1.212000e+03 2.876340e-01
1.213000e+03 1.359672e-01
1.214000e+03 4.049150e-02
1.215000e+03 7.159956e-03
1.216000e+03 6.157411e-03
1.217000e+03 2.545077e-02
1.218000e+03 1.119962e-01
1.219000e+03 2.987897e-01
1.220000e+03 3.768475e-01
1.221000e+03 1.190784e+00
1.222000e+03 1.854616e+00
1.223000e+03 2.346908e+00
1.224000e+03 3.909850e+00
1.225000e+03 2.942071e-01
1.226000e+03 7.895227e+00
1.227000e+03 1.020477e+01
1.228000e+03 2.506043e+00
1.229000e+03 1.362690e+01
1.230000e+03 1.130706e+01
1.231000e+03 1.385118e+00
1.232000e+03 2.442780e+01
1.233000e+03 2.802873e+01
1.234000e+03 2.625993e+01
1.235000e+03 3.166788e+01
1.236000e+03 4.595922e+00
1.237000e+03 4.016625e+01
1.238000e+03 4.122965e+01
1.239000e+03 2.615972e+01
1.240000e+03 1.680693e+01
1.241000e+03 2.943441e+01
1.242000e+03 4.777407e+01
1.243000e+03 5.810790e+01
1.244000e+03 6.193225e+01
1.245000e+03 6.264659e+01
1.246000e+03 5.017001e+01
1.247000e+03 6.124298e+01
1.248000e+03 5.837506e+01
1.249000e+03 7.725055e+01
1.250000e+03 5.532630e+01
1.251000e+03 8.121960e+01
1.252000e+03 7.318709e+01
1.253000e+03 8.618637e+01
1.254000e+03 7.882442e+01
1.255000e+03 2.772235e+01
1.256000e+03 6.593377e+01
1.257000e+03 5.819040e+01
1.258000e+03 4.830424e+01
1.259000e+03 6.574671e+01
1.260000e+03 9.737868e+01
1.261000e+03 2.941956e+00
1.262000e+03 1.021934e+02
1.263000e+03 9.584634e+01
1.264000e+03 5.957500e+01
1.265000e+03 4.280196e+01
1.266000e+03 1.166667e+02
1.267000e+03 8.918436e+01
