# wavelength_A flux
5.000000e+02 8.405539e-28
5.010000e+02 1.043036e-27
5.020000e+02 1.293160e-27
5.030000e+02 1.601866e-27
5.040000e+02 1.982547e-27
5.050000e+02 2.498865e-27
5.060000e+02 3.086090e-27
5.070000e+02 3.807251e-27
5.080000e+02 4.694391e-27
5.090000e+02 5.782528e-27
5.100000e+02 6.981752e-27
5.110000e+02 8.752335e-27
5.120000e+02 1.075242e-26
5.130000e+02 1.320420e-26
5.140000e+02 1.619872e-26
5.150000e+02 1.985627e-26
5.160000e+02 2.432015e-26
5.170000e+02 2.976493e-26
5.180000e+02 3.639931e-26
5.190000e+02 4.447752e-26
5.200000e+02 5.430618e-26
5.210000e+02 6.625525e-26
5.220000e+02 8.076208e-26
5.230000e+02 9.839207e-26
5.240000e+02 1.197668e-25
5.250000e+02 1.456736e-25
5.260000e+02 1.770505e-25
5.270000e+02 2.150245e-25
5.280000e+02 2.609484e-25
5.290000e+02 3.164451e-25
5.300000e+02 3.834625e-25
5.310000e+02 4.643316e-25
5.320000e+02 5.618448e-25
5.330000e+02 6.793433e-25
5.340000e+02 8.208212e-25
5.350000e+02 9.910501e-25
5.360000e+02 1.195722e-24
5.370000e+02 1.432803e-24
5.380000e+02 1.736925e-24
5.390000e+02 2.091226e-24
5.400000e+02 2.516025e-24
5.410000e+02 3.024952e-24
5.420000e+02 3.634444e-24
5.430000e+02 4.363657e-24
5.440000e+02 5.235596e-24
5.450000e+02 6.277493e-24
5.460000e+02 7.521634e-24
5.470000e+02 9.006299e-24
5.480000e+02 1.077679e-23
5.490000e+02 1.288675e-23
5.500000e+02 1.539961e-23
5.510000e+02 1.839035e-23
5.520000e+02 2.194752e-23
5.530000e+02 2.617568e-23
5.540000e+02 3.119816e-23
5.550000e+02 3.716034e-23
5.560000e+02 4.423356e-23
5.570000e+02 5.261953e-23
5.580000e+02 6.255563e-23
5.590000e+02 7.432100e-23
5.600000e+02 8.824375e-23
5.610000e+02 1.047092e-22
5.620000e+02 1.241698e-22
5.630000e+02 1.471563e-22
5.640000e+02 1.742907e-22
5.650000e+02 2.063023e-22
5.660000e+02 2.440449e-22
5.670000e+02 2.885176e-22
5.680000e+02 3.408892e-22
5.690000e+02 4.025262e-22
5.700000e+02 4.750246e-22
5.710000e+02 5.602484e-22
5.720000e+02 6.603724e-22
5.730000e+02 7.779333e-22
5.740000e+02 9.158880e-22
5.750000e+02 1.077681e-21
5.760000e+02 1.267319e-21
5.770000e+02 1.489488e-21
5.780000e+02 1.749588e-21
5.790000e+02 2.053938e-21
5.800000e+02 2.409868e-21
5.810000e+02 2.825885e-21
5.820000e+02 3.311862e-21
5.830000e+02 3.879241e-21
5.840000e+02 4.540971e-21
5.850000e+02 5.313385e-21
5.860000e+02 6.213496e-21
5.870000e+02 7.262013e-21
5.880000e+02 8.482845e-21
5.890000e+02 9.903555e-21
5.900000e+02 1.155599e-20
5.910000e+02 1.347692e-20
5.920000e+02 1.570880e-20
5.930000e+02 1.830060e-20
5.940000e+02 2.130878e-20
5.950000e+02 2.479843e-20
5.960000e+02 2.884452e-20
5.970000e+02 3.353334e-20
5.980000e+02 3.896423e-20
5.990000e+02 4.525141e-20
6.000000e+02 5.252620e-20
6.010000e+02 6.093951e-20
6.020000e+02 7.066461e-20
6.030000e+02 8.190042e-20
6.040000e+02 9.487518e-20
6.050000e+02 1.098506e-19
6.060000e+02 1.271267e-19
6.070000e+02 1.470471e-19
6.080000e+02 1.700054e-19
6.090000e+02 1.964521e-19
6.100000e+02 2.269025e-19
6.110000e+02 2.619458e-19
6.120000e+02 3.022557e-19
6.130000e+02 3.486014e-19
6.140000e+02 4.018617e-19
6.150000e+02 4.630393e-19
6.160000e+02 5.332782e-19
6.170000e+02 6.138829e-19
6.180000e+02 7.063405e-19
6.190000e+02 8.123448e-19
6.200000e+02 9.338248e-19
6.210000e+02 1.072976e-18
6.220000e+02 1.232297e-18
6.230000e+02 1.414629e-18
6.240000e+02 1.623201e-18
6.250000e+02 1.861681e-18
6.260000e+02 2.134239e-18
6.270000e+02 2.445604e-18
6.280000e+02 2.801144e-18
6.290000e+02 3.206950e-18
6.300000e+02 3.669924e-18
6.310000e+02 4.197655e-18
6.320000e+02 4.799713e-18
6.330000e+02 5.485424e-18
6.340000e+02 6.266385e-18
6.350000e+02 7.155434e-18
6.360000e+02 8.167136e-18
6.370000e+02 9.317886e-18
6.380000e+02 1.062626e-17
6.390000e+02 1.211322e-17
6.400000e+02 1.380244e-17
6.410000e+02 1.572064e-17
6.420000e+02 1.789796e-17
6.430000e+02 2.036837e-17
6.440000e+02 2.317019e-17
6.450000e+02 2.634658e-17
6.460000e+02 2.994615e-17
6.470000e+02 3.402365e-17
6.480000e+02 3.864066e-17
6.490000e+02 4.386649e-17
6.500000e+02 4.977906e-17
6.510000e+02 5.646597e-17
6.520000e+02 6.402565e-17
6.530000e+02 7.256864e-17
6.540000e+02 8.221911e-17
6.550000e+02 9.311634e-17
6.560000e+02 1.054167e-16
6.570000e+02 1.192954e-16
6.580000e+02 1.349491e-16
6.590000e+02 1.525981e-16
6.600000e+02 1.724889e-16
6.610000e+02 1.948980e-16
6.620000e+02 2.201348e-16
6.630000e+02 2.485452e-16
6.640000e+02 2.805166e-16
6.650000e+02 3.164818e-16
6.660000e+02 3.569250e-16
6.670000e+02 4.023867e-16
6.680000e+02 4.534711e-16
6.690000e+02 5.108526e-16
6.700000e+02 5.752841e-16
6.710000e+02 6.476056e-16
6.720000e+02 7.287541e-16
6.730000e+02 8.197744e-16
6.740000e+02 9.218308e-16
6.750000e+02 1.036221e-15
6.760000e+02 1.164391e-15
6.770000e+02 1.307948e-15
6.780000e+02 1.468686e-15
6.790000e+02 1.648596e-15
6.800000e+02 1.849896e-15
6.810000e+02 2.075051e-15
6.820000e+02 2.326802e-15
6.830000e+02 2.608193e-15
6.840000e+02 2.922607e-15
6.850000e+02 3.273801e-15
6.860000e+02 3.665945e-15
6.870000e+02 4.103665e-15
6.880000e+02 4.592096e-15
6.890000e+02 5.136930e-15
6.900000e+02 5.744480e-15
6.910000e+02 6.421741e-15
6.920000e+02 7.176462e-15
6.930000e+02 8.017229e-15
6.940000e+02 8.953544e-15
6.950000e+02 9.995930e-15
6.960000e+02 1.115603e-14
6.970000e+02 1.244671e-14
6.980000e+02 1.388222e-14
6.990000e+02 1.547830e-14
7.000000e+02 1.725234e-14
7.010000e+02 1.922357e-14
7.020000e+02 2.141321e-14
7.030000e+02 2.384470e-14
7.040000e+02 2.654391e-14
7.050000e+02 2.953939e-14
7.060000e+02 3.286259e-14
7.070000e+02 3.654833e-14
7.080000e+02 4.063480e-14
7.090000e+02 4.516423e-14
7.100000e+02 5.018310e-14
7.110000e+02 5.574263e-14
7.120000e+02 6.189918e-14
7.130000e+02 6.871482e-14
7.140000e+02 7.625787e-14
7.150000e+02 8.460347e-14
7.160000e+02 9.383426e-14
7.170000e+02 1.040411e-13
7.180000e+02 1.153239e-13
7.190000e+02 1.277925e-13
7.200000e+02 1.415674e-13
7.210000e+02 1.567811e-13
7.220000e+02 1.735790e-13
7.230000e+02 1.921207e-13
7.240000e+02 2.125814e-13
7.250000e+02 2.351532e-13
7.260000e+02 2.600470e-13
7.270000e+02 2.874938e-13
7.280000e+02 3.177468e-13
7.290000e+02 3.510837e-13
7.300000e+02 3.878085e-13
7.310000e+02 4.282544e-13
7.320000e+02 4.727858e-13
7.330000e+02 5.218021e-13
7.340000e+02 5.757401e-13
7.350000e+02 6.350777e-13
7.360000e+02 7.003376e-13
7.370000e+02 7.720915e-13
7.380000e+02 8.509642e-13
7.390000e+02 9.376387e-13
7.400000e+02 1.032861e-12
7.410000e+02 1.137447e-12
7.420000e+02 1.252285e-12
7.430000e+02 1.378349e-12
7.440000e+02 1.516698e-12
7.450000e+02 1.668490e-12
7.460000e+02 1.834988e-12
7.470000e+02 2.017569e-12
7.480000e+02 2.217734e-12
7.490000e+02 2.437120e-12
7.500000e+02 2.677512e-12
7.510000e+02 2.940852e-12
7.520000e+02 3.229257e-12
7.530000e+02 3.545034e-12
7.540000e+02 3.890693e-12
7.550000e+02 4.268965e-12
7.560000e+02 4.682825e-12
7.570000e+02 5.135506e-12
7.580000e+02 5.630526e-12
7.590000e+02 6.171712e-12
7.600000e+02 6.763224e-12
7.610000e+02 7.409580e-12
7.620000e+02 8.115694e-12
7.630000e+02 8.886901e-12
7.640000e+02 9.728998e-12
7.650000e+02 1.064828e-11
7.660000e+02 1.165157e-11
7.670000e+02 1.274630e-11
7.680000e+02 1.394050e-11
7.690000e+02 1.524291e-11
7.700000e+02 1.666299e-11
7.710000e+02 1.821101e-11
7.720000e+02 1.989809e-11
7.730000e+02 2.173630e-11
7.740000e+02 2.373871e-11
7.750000e+02 2.591947e-11
7.760000e+02 2.829393e-11
7.770000e+02 3.087868e-11
7.780000e+02 3.369171e-11
7.790000e+02 3.675248e-11
7.800000e+02 4.008203e-11
7.810000e+02 4.370316e-11
7.820000e+02 4.764050e-11
7.830000e+02 5.192071e-11
7.840000e+02 5.657258e-11
7.850000e+02 6.162727e-11
7.860000e+02 6.711843e-11
7.870000e+02 7.308242e-11
7.880000e+02 7.955852e-11
7.890000e+02 8.658916e-11
7.900000e+02 9.422015e-11
7.910000e+02 1.025009e-10
7.920000e+02 1.114849e-10
7.930000e+02 1.212296e-10
7.940000e+02 1.317972e-10
7.950000e+02 1.432548e-10
7.960000e+02 1.556745e-10
7.970000e+02 1.691344e-10
7.980000e+02 1.837184e-10
7.990000e+02 1.995171e-10
8.000000e+02 2.166280e-10
8.010000e+02 2.351562e-10
8.020000e+02 2.552148e-10
8.030000e+02 2.769259e-10
8.040000e+02 3.004206e-10
8.050000e+02 3.258398e-10
8.060000e+02 3.533365e-10
8.070000e+02 3.830734e-10
8.080000e+02 4.152267e-10
8.090000e+02 4.499857e-10
8.100000e+02 4.875538e-10
8.110000e+02 5.281500e-10
8.120000e+02 5.720094e-10
8.130000e+02 6.193847e-10
8.140000e+02 6.705476e-10
8.150000e+02 7.257899e-10
8.160000e+02 7.854249e-10
8.170000e+02 8.497892e-10
8.180000e+02 9.192442e-10
8.190000e+02 9.941776e-10
8.200000e+02 1.075006e-09
8.210000e+02 1.162176e-09
8.220000e+02 1.256166e-09
8.230000e+02 1.357492e-09
8.240000e+02 1.466703e-09
8.250000e+02 1.584392e-09
8.260000e+02 1.711192e-09
8.270000e+02 1.847782e-09
8.280000e+02 1.994891e-09
8.290000e+02 2.153297e-09
8.300000e+02 2.323837e-09
8.310000e+02 2.507406e-09
8.320000e+02 2.704962e-09
8.330000e+02 2.917530e-09
8.340000e+02 3.146209e-09
8.350000e+02 3.392175e-09
8.360000e+02 3.656686e-09
8.370000e+02 3.941087e-09
8.380000e+02 4.246818e-09
8.390000e+02 4.575418e-09
8.400000e+02 4.928535e-09
8.410000e+02 5.307928e-09
8.420000e+02 5.715479e-09
8.430000e+02 6.153199e-09
8.440000e+02 6.623238e-09
8.450000e+02 7.127889e-09
8.460000e+02 7.669607e-09
8.470000e+02 8.251011e-09
8.480000e+02 8.874898e-09
8.490000e+02 9.544253e-09
8.500000e+02 1.026226e-08
8.510000e+02 1.103234e-08
8.520000e+02 1.185810e-08
8.530000e+02 1.274342e-08
8.540000e+02 1.369244e-08
8.550000e+02 1.470956e-08
8.560000e+02 1.579948e-08
8.570000e+02 1.696721e-08
8.580000e+02 1.821810e-08
8.590000e+02 1.955784e-08
8.600000e+02 2.099249e-08
8.610000e+02 2.252853e-08
8.620000e+02 2.417283e-08
8.630000e+02 2.593274e-08
8.640000e+02 2.781606e-08
8.650000e+02 2.983113e-08
8.660000e+02 3.198679e-08
8.670000e+02 3.429248e-08
8.680000e+02 3.675822e-08
8.690000e+02 3.939471e-08
8.700000e+02 4.221329e-08
8.710000e+02 4.522606e-08
8.720000e+02 4.844587e-08
8.730000e+02 5.188640e-08
8.740000e+02 5.556218e-08
8.750000e+02 5.948866e-08
8.760000e+02 6.368228e-08
8.770000e+02 6.816049e-08
8.780000e+02 7.294185e-08
8.790000e+02 7.804606e-08
8.800000e+02 8.349408e-08
8.810000e+02 8.930814e-08
8.820000e+02 9.551187e-08
8.830000e+02 1.021303e-07
8.840000e+02 1.091902e-07
8.850000e+02 1.167196e-07
8.860000e+02 1.247488e-07
8.870000e+02 1.333093e-07
8.880000e+02 1.424352e-07
8.890000e+02 1.521621e-07
8.900000e+02 1.625282e-07
8.910000e+02 1.735736e-07
8.920000e+02 1.853412e-07
8.930000e+02 1.978763e-07
8.940000e+02 2.112269e-07
8.950000e+02 2.254439e-07
8.960000e+02 2.405814e-07
8.970000e+02 2.566965e-07
8.980000e+02 2.738498e-07
8.990000e+02 2.921055e-07
9.000000e+02 3.115316e-07
9.010000e+02 3.322000e-07
9.020000e+02 3.541871e-07
9.030000e+02 3.775735e-07
9.040000e+02 4.024446e-07
9.050000e+02 4.288910e-07
9.060000e+02 4.570082e-07
9.070000e+02 4.868976e-07
9.080000e+02 5.186664e-07
9.090000e+02 5.524278e-07
9.100000e+02 5.883016e-07
9.110000e+02 6.264148e-07
9.120000e+02 6.669014e-07
9.130000e+02 7.099029e-07
9.140000e+02 7.790804e-07
9.150000e+02 2.086254e-04
9.160000e+02 8.897190e-04
9.170000e+02 1.885368e-05
9.180000e+02 2.712980e-04
9.190000e+02 2.452350e-03
9.200000e+02 6.176237e-03
9.210000e+02 1.164351e-06
9.220000e+02 1.241517e-03
9.230000e+02 2.434602e-05
9.240000e+02 3.280025e-05
9.250000e+02 2.177740e-04
9.260000e+02 3.568570e-04
9.270000e+02 2.589198e-05
9.280000e+02 2.346038e-02
9.290000e+02 2.952011e-02
9.300000e+02 7.394194e-03
9.310000e+02 3.235103e-05
9.320000e+02 2.419463e-02
9.330000e+02 1.049681e-03
9.340000e+02 3.409572e-04
9.350000e+02 1.268805e-04
9.360000e+02 6.476557e-05
9.370000e+02 1.915855e-05
9.380000e+02 8.128272e-05
9.390000e+02 1.626805e-04
9.400000e+02 9.780737e-03
9.410000e+02 1.686717e-03
9.420000e+02 8.360685e-02
9.430000e+02 2.367208e-04
9.440000e+02 9.708463e-02
9.450000e+02 7.329361e-02
9.460000e+02 3.177988e-03
9.470000e+02 1.279631e-05
9.480000e+02 2.323131e-02
9.490000e+02 4.230864e-03
9.500000e+02 1.474298e-04
9.510000e+02 2.753340e-03
9.520000e+02 5.363282e-03
9.530000e+02 5.899018e-05
9.540000e+02 1.517186e-05
9.550000e+02 6.124824e-04
9.560000e+02 7.855927e-02
9.570000e+02 3.345767e-04
9.580000e+02 1.107214e-05
9.590000e+02 2.686140e-02
9.600000e+02 2.701853e-04
9.610000e+02 4.068345e-03
9.620000e+02 1.597365e-03
9.630000e+02 4.420206e-04
9.640000e+02 8.613162e-05
9.650000e+02 3.783405e-05
9.660000e+02 6.668642e-04
9.670000e+02 1.407228e-04
9.680000e+02 9.461120e-05
9.690000e+02 3.665335e-03
9.700000e+02 3.676006e-03
9.710000e+02 1.962335e-04
9.720000e+02 1.211800e-04
9.730000e+02 1.202354e-03
9.740000e+02 4.458777e-03
9.750000e+02 1.289481e-03
9.760000e+02 3.361681e-02
9.770000e+02 1.586607e-02
9.780000e+02 5.952695e-03
9.790000e+02 3.070449e-01
9.800000e+02 2.574924e-01
9.810000e+02 4.455790e-03
9.820000e+02 9.167269e-04
9.830000e+02 1.167730e-01
9.840000e+02 1.714171e-02
9.850000e+02 2.280062e-03
9.860000e+02 3.495867e-03
9.870000e+02 1.374143e-01
9.880000e+02 1.069903e-04
9.890000e+02 1.902536e-02
9.900000e+02 5.527670e-02
9.910000e+02 8.654690e-04
9.920000e+02 6.790050e-05
9.930000e+02 6.031599e-01
9.940000e+02 1.799725e-04
9.950000e+02 3.012697e-02
9.960000e+02 3.248751e-04
9.970000e+02 3.533094e-02
9.980000e+02 6.284080e-02
9.990000e+02 1.641189e-03
1.000000e+03 1.030468e+00
1.001000e+03 7.759256e-01
1.002000e+03 3.922405e-01
1.003000e+03 1.767576e-03
1.004000e+03 1.968741e-04
1.005000e+03 5.299568e-03
1.006000e+03 2.298348e-01
1.007000e+03 4.955719e-01
1.008000e+03 1.068470e-01
1.009000e+03 2.781244e-03
1.010000e+03 1.163149e-01
1.011000e+03 2.140269e-01
1.012000e+03 1.487913e-01
1.013000e+03 1.303148e-01
1.014000e+03 2.073497e-04
1.015000e+03 3.253073e-04
1.016000e+03 6.491244e-03
1.017000e+03 2.359152e-04
1.018000e+03 2.746135e-03
1.019000e+03 3.411770e-04
1.020000e+03 3.939096e-01
1.021000e+03 4.252195e-03
1.022000e+03 6.320387e-03
1.023000e+03 5.961359e-04
1.024000e+03 1.046688e-01
1.025000e+03 3.482550e-04
1.026000e+03 7.675332e-04
1.027000e+03 2.253440e-02
1.028000e+03 4.976451e-03
1.029000e+03 4.283637e-04
1.030000e+03 2.720624e-02
1.031000e+03 3.875209e-02
1.032000e+03 4.589918e-01
1.033000e+03 3.714786e-02
1.034000e+03 5.698188e-02
1.035000e+03 3.417909e-03
1.036000e+03 6.158650e-04
1.037000e+03 3.455443e-01
1.038000e+03 2.423993e+00
1.039000e+03 3.602619e-01
1.040000e+03 4.132532e-01
1.041000e+03 3.504896e+00
1.042000e+03 1.309053e+00
1.043000e+03 1.389168e+00
1.044000e+03 9.911884e+00
1.045000e+03 2.551491e-03
1.046000e+03 4.211469e-01
1.047000e+03 1.228402e-01
1.048000e+03 4.199952e-03
1.049000e+03 1.374003e-01
1.050000e+03 4.919434e-02
1.051000e+03 2.783751e-02
1.052000e+03 1.508151e+00
1.053000e+03 3.630248e+00
1.054000e+03 1.398325e-03
1.055000e+03 5.014400e+00
1.056000e+03 5.197275e+00
1.057000e+03 3.369902e-01
1.058000e+03 2.980548e-02
1.059000e+03 2.035522e-02
1.060000e+03 6.602645e-03
1.061000e+03 5.280666e-01
1.062000e+03 1.654192e-02
1.063000e+03 4.964677e-01
1.064000e+03 4.802704e-03
1.065000e+03 2.314568e-03
1.066000e+03 7.594675e-01
1.067000e+03 1.679161e-02
1.068000e+03 1.404702e+01
1.069000e+03 5.480140e-03
1.070000e+03 2.210941e-01
1.071000e+03 3.246461e+00
1.072000e+03 7.997100e+00
1.073000e+03 3.491402e-03
1.074000e+03 3.676541e-01
1.075000e+03 2.214870e-01
1.076000e+03 9.327538e+00
1.077000e+03 2.315009e-02
1.078000e+03 3.993368e-02
1.079000e+03 1.609899e-01
1.080000e+03 5.048546e-01
1.081000e+03 1.858701e+00
1.082000e+03 1.127979e+00
1.083000e+03 6.317673e-01
1.084000e+03 3.086538e+01
1.085000e+03 1.869974e-01
1.086000e+03 1.814769e+01
1.087000e+03 4.242325e-02
1.088000e+03 4.611861e+01
1.089000e+03 4.491949e+01
1.090000e+03 1.505015e-01
1.091000e+03 2.034187e-01
1.092000e+03 2.556255e+01
1.093000e+03 3.309479e+01
1.094000e+03 1.695729e+00
1.095000e+03 5.945205e+01
1.096000e+03 6.979043e+00
1.097000e+03 5.943976e+00
1.098000e+03 4.811187e+01
1.099000e+03 5.457153e-01
1.100000e+03 1.818347e-02
1.101000e+03 4.052751e-02
1.102000e+03 3.336871e-01
1.103000e+03 3.606593e+01
1.104000e+03 7.680023e+01
1.105000e+03 5.155469e+01
1.106000e+03 1.460466e+00
1.107000e+03 2.595711e-02
1.108000e+03 8.167003e+00
1.109000e+03 2.029972e-01
1.110000e+03 9.177383e+01
1.111000e+03 2.639608e+01
1.112000e+03 3.875076e+00
1.113000e+03 5.502913e+01
1.114000e+03 2.445665e+00
1.115000e+03 2.808933e-01
1.116000e+03 1.361410e-01
1.117000e+03 2.676217e+01
1.118000e+03 3.292179e-01
1.119000e+03 4.990483e+00
1.120000e+03 1.674385e-01
1.121000e+03 1.858250e+01
1.122000e+03 1.156995e+02
1.123000e+03 3.908888e+01
1.124000e+03 4.447370e+01
1.125000e+03 1.877789e+01
1.126000e+03 2.424857e+02
1.127000e+03 2.928953e+01
1.128000e+03 1.167213e+02
1.129000e+03 1.228669e+01
1.130000e+03 6.988870e+01
1.131000e+03 1.219605e+02
1.132000e+03 3.039093e-01
1.133000e+03 1.426292e+00
1.134000e+03 1.384496e+01
1.135000e+03 9.136196e+01
1.136000e+03 3.077652e+00
1.137000e+03 5.282865e+01
1.138000e+03 1.184940e+01
1.139000e+03 1.243853e+02
1.140000e+03 1.366637e+02
1.141000e+03 9.666755e+01
1.142000e+03 1.677985e+02
1.143000e+03 1.900087e+01
1.144000e+03 1.581295e+02
1.145000e+03 1.738129e-01
1.146000e+03 1.927480e+02
1.147000e+03 1.238971e+02
1.148000e+03 9.864311e-01
1.149000e+03 6.044322e+01
1.150000e+03 3.701501e+01
1.151000e+03 1.780307e+02
1.152000e+03 9.198458e+01
1.153000e+03 1.286004e+02
1.154000e+03 2.014770e+02
1.155000e+03 5.161799e+01
1.156000e+03 1.662043e+02
1.157000e+03 1.900256e+02
1.158000e+03 2.112758e+01
1.159000e+03 1.559801e+02
1.160000e+03 2.407402e+01
1.161000e+03 1.324349e+02
1.162000e+03 3.886192e+00
1.163000e+03 1.159740e+01
1.164000e+03 1.382393e+00
1.165000e+03 6.865279e+01
1.166000e+03 3.947320e+01
1.167000e+03 3.576569e+01
1.168000e+03 1.967830e+02
1.169000e+03 2.165174e+02
1.170000e+03 2.732479e+01
1.171000e+03 9.433864e+01
1.172000e+03 3.424435e+01
1.173000e+03 8.983156e+01
1.174000e+03 9.174042e-01
1.175000e+03 8.718548e-01
1.176000e+03 3.228722e-01
1.177000e+03 2.657097e+02
1.178000e+03 2.600580e+02
1.179000e+03 2.051282e+02
1.180000e+03 7.281067e+01
1.181000e+03 2.337445e+02
1.182000e+03 1.838637e+02
1.183000e+03 8.010800e+01
1.184000e+03 6.439880e+01
1.185000e+03 8.712699e+01
1.186000e+03 4.259013e+00
1.187000e+03 1.330766e+02
1.188000e+03 4.746845e+01
1.189000e+03 1.952393e+02
1.190000e+03 1.834199e+02
1.191000e+03 1.189066e+02
1.192000e+03 1.519682e+02
1.193000e+03 1.023748e+02
1.194000e+03 1.454490e+02
1.195000e+03 1.381332e+02
1.196000e+03 4.823051e+02
1.197000e+03 1.072419e+03
1.198000e+03 1.174326e+01
1.199000e+03 1.002396e+03
1.200000e+03 3.147365e+01
1.201000e+03 7.707196e+02
1.202000e+03 1.515826e+02
1.203000e+03 5.000914e+02
1.204000e+03 3.114585e+01
1.205000e+03 3.495829e+02
1.206000e+03 3.678690e+02
1.207000e+03 1.015112e+02
1.208000e+03 2.172716e+02
1.209000e+03 2.102209e+02
1.210000e+03 1.417191e+00
1.211000e+03 9.272478e+01
1.212000e+03 3.956179e+01
1.213000e+03 2.640075e+01
1.214000e+03 8.782367e+00
1.215000e+03 1.354385e+00
1.216000e+03 8.798615e-01
1.217000e+03 5.596501e+00
1.218000e+03 2.216219e+01
1.219000e+03 5.263857e+01
1.220000e+03 3.113765e+01
1.221000e+03 1.689156e+02
1.222000e+03 1.932184e+02
1.223000e+03 1.873781e+02
1.224000e+03 4.749061e+02
1.225000e+03 1.845630e+01
1.226000e+03 8.598689e+02
1.227000e+03 9.188484e+02
1.228000e+03 1.060664e+02
1.229000e+03 7.627045e+02
1.230000e+03 5.228484e+02
1.231000e+03 6.630884e+01
1.232000e+03 2.116591e+03
1.233000e+03 2.422158e+03
1.234000e+03 2.259317e+03
1.235000e+03 1.903828e+03
1.236000e+03 1.583101e+02
1.237000e+03 2.886971e+03
1.238000e+03 2.291495e+03
1.239000e+03 9.439518e+02
1.240000e+03 1.789146e+03
1.241000e+03 9.542421e+02
1.242000e+03 2.107895e+03
1.243000e+03 3.856439e+03
1.244000e+03 4.372110e+03
1.245000e+03 3.610912e+03
1.246000e+03 1.892410e+03
1.247000e+03 2.800213e+03
1.248000e+03 4.238347e+03
1.249000e+03 5.498870e+03
1.250000e+03 3.380161e+03
1.251000e+03 5.228883e+03
1.252000e+03 3.420972e+03
1.253000e+03 5.744285e+03
1.254000e+03 3.802763e+03
1.255000e+03 2.459097e+03
1.256000e+03 3.040948e+03
1.257000e+03 4.100499e+03
1.258000e+03 1.347283e+03
1.259000e+03 2.340342e+03
1.260000e+03 5.914235e+03
1.261000e+03 3.755811e+02
1.262000e+03 6.797741e+03
1.263000e+03 4.889133e+03
1.264000e+03 1.823141e+03
1.265000e+03 1.457956e+03
1.266000e+03 6.460027e+03
1.267000e+03 2.765310e+03
