# wavelength_A flux
5.000000e+02 4.483010e+02
5.010000e+02 4.849788e+02
5.020000e+02 5.244866e+02
5.030000e+02 5.670334e+02
5.040000e+02 6.128353e+02
5.050000e+02 5.672125e+02
5.060000e+02 6.131515e+02
5.070000e+02 6.625960e+02
5.080000e+02 7.157964e+02
5.090000e+02 7.742756e+02
5.100000e+02 8.343326e+02
5.110000e+02 9.004604e+02
5.120000e+02 9.715235e+02
5.130000e+02 1.047866e+03
5.140000e+02 1.129856e+03
5.150000e+02 1.217896e+03
5.160000e+02 1.312366e+03
5.170000e+02 1.413806e+03
5.180000e+02 1.522492e+03
5.190000e+02 1.639112e+03
5.200000e+02 1.763992e+03
5.210000e+02 1.897990e+03
5.220000e+02 2.042714e+03
5.230000e+02 2.195343e+03
5.240000e+02 2.359978e+03
5.250000e+02 2.536129e+03
5.260000e+02 2.724735e+03
5.270000e+02 2.926523e+03
5.280000e+02 3.142356e+03
5.290000e+02 3.374048e+03
5.300000e+02 3.619868e+03
5.310000e+02 3.883536e+03
5.320000e+02 4.165157e+03
5.330000e+02 4.466042e+03
5.340000e+02 4.786961e+03
5.350000e+02 5.129946e+03
5.360000e+02 5.496206e+03
5.370000e+02 6.530526e+03
5.380000e+02 6.303369e+03
5.390000e+02 6.747277e+03
5.400000e+02 7.220570e+03
5.410000e+02 7.726034e+03
5.420000e+02 8.263203e+03
5.430000e+02 8.836065e+03
5.440000e+02 9.446271e+03
5.450000e+02 1.009598e+04
5.460000e+02 1.078899e+04
5.470000e+02 1.152342e+04
5.480000e+02 1.230703e+04
5.490000e+02 1.313835e+04
5.500000e+02 1.402399e+04
5.510000e+02 1.496557e+04
5.520000e+02 1.596639e+04
5.530000e+02 1.702992e+04
5.540000e+02 1.815974e+04
5.550000e+02 1.935980e+04
5.560000e+02 2.063404e+04
5.570000e+02 2.198682e+04
5.580000e+02 2.342260e+04
5.590000e+02 2.494612e+04
5.600000e+02 2.656276e+04
5.610000e+02 2.827579e+04
5.620000e+02 3.009346e+04
5.630000e+02 3.202037e+04
5.640000e+02 3.406272e+04
5.650000e+02 3.622686e+04
5.660000e+02 3.851943e+04
5.670000e+02 4.094772e+04
5.680000e+02 4.351906e+04
5.690000e+02 4.624132e+04
5.700000e+02 4.912303e+04
5.710000e+02 5.217236e+04
5.720000e+02 5.539851e+04
5.730000e+02 5.881059e+04
5.740000e+02 6.241921e+04
5.750000e+02 6.622891e+04
5.760000e+02 7.030698e+04
5.770000e+02 7.452373e+04
5.780000e+02 7.902716e+04
5.790000e+02 8.378098e+04
5.800000e+02 8.880566e+04
5.810000e+02 9.411180e+04
5.820000e+02 9.971483e+04
5.830000e+02 1.056355e+05
5.840000e+02 1.120689e+05
5.850000e+02 1.184992e+05
5.860000e+02 1.253972e+05
5.870000e+02 1.327178e+05
5.880000e+02 1.404350e+05
5.890000e+02 1.485791e+05
5.900000e+02 1.571555e+05
5.910000e+02 1.661966e+05
5.920000e+02 1.757229e+05
5.930000e+02 1.857581e+05
5.940000e+02 1.963275e+05
5.950000e+02 2.075230e+05
5.960000e+02 2.191728e+05
5.970000e+02 2.315068e+05
5.980000e+02 2.444851e+05
5.990000e+02 2.581407e+05
6.000000e+02 2.725059e+05
6.010000e+02 2.876288e+05
6.020000e+02 3.035045e+05
6.030000e+02 3.202092e+05
6.040000e+02 3.377696e+05
6.050000e+02 3.562239e+05
6.060000e+02 3.756220e+05
6.070000e+02 3.959915e+05
6.080000e+02 4.173931e+05
6.090000e+02 4.398699e+05
6.100000e+02 4.634719e+05
6.110000e+02 4.882499e+05
6.120000e+02 5.142586e+05
6.130000e+02 5.415541e+05
6.140000e+02 5.701767e+05
6.150000e+02 6.002174e+05
6.160000e+02 6.317344e+05
6.170000e+02 6.647877e+05
6.180000e+02 6.994452e+05
6.190000e+02 7.357807e+05
6.200000e+02 7.738669e+05
6.210000e+02 8.137826e+05
6.220000e+02 8.556085e+05
6.230000e+02 8.994289e+05
6.240000e+02 9.453290e+05
6.250000e+02 9.934017e+05
6.260000e+02 1.043741e+06
6.270000e+02 1.096448e+06
6.280000e+02 1.151618e+06
6.290000e+02 1.209362e+06
6.300000e+02 1.269789e+06
6.310000e+02 1.333011e+06
6.320000e+02 1.399153e+06
6.330000e+02 1.468332e+06
6.340000e+02 1.540680e+06
6.350000e+02 1.616331e+06
6.360000e+02 1.715966e+06
6.370000e+02 1.778082e+06
6.380000e+02 1.864480e+06
6.390000e+02 1.954765e+06
6.400000e+02 2.049094e+06
6.410000e+02 2.147639e+06
6.420000e+02 2.250572e+06
6.430000e+02 2.358042e+06
6.440000e+02 2.470275e+06
6.450000e+02 2.587484e+06
6.460000e+02 2.709634e+06
6.470000e+02 2.837389e+06
6.480000e+02 2.970503e+06
6.490000e+02 3.109493e+06
6.500000e+02 3.254460e+06
6.510000e+02 3.405692e+06
6.520000e+02 3.563419e+06
6.530000e+02 3.727921e+06
6.540000e+02 3.899404e+06
6.550000e+02 4.078109e+06
6.560000e+02 4.264437e+06
6.570000e+02 4.458845e+06
6.580000e+02 4.660966e+06
6.590000e+02 4.871786e+06
6.600000e+02 5.091479e+06
6.610000e+02 5.320208e+06
6.620000e+02 5.558432e+06
6.630000e+02 5.806536e+06
6.640000e+02 6.064763e+06
6.650000e+02 6.333659e+06
6.660000e+02 6.613464e+06
6.670000e+02 6.904710e+06
6.680000e+02 7.207758e+06
6.690000e+02 7.523068e+06
6.700000e+02 7.851152e+06
6.710000e+02 8.193360e+06
6.720000e+02 8.751991e+06
6.730000e+02 8.916109e+06
6.740000e+02 9.299764e+06
6.750000e+02 9.698616e+06
6.760000e+02 1.011275e+07
6.770000e+02 1.054366e+07
6.780000e+02 1.099144e+07
6.790000e+02 1.145672e+07
6.800000e+02 1.194011e+07
6.810000e+02 1.244226e+07
6.820000e+02 1.296384e+07
6.830000e+02 1.350548e+07
6.840000e+02 1.406792e+07
6.850000e+02 1.465217e+07
6.860000e+02 1.525839e+07
6.870000e+02 1.588880e+07
6.880000e+02 1.654088e+07
6.890000e+02 1.721867e+07
6.900000e+02 1.792244e+07
6.910000e+02 1.865171e+07
6.920000e+02 1.940867e+07
6.930000e+02 2.019385e+07
6.940000e+02 2.100819e+07
6.950000e+02 2.185266e+07
6.960000e+02 2.272829e+07
6.970000e+02 2.363772e+07
6.980000e+02 2.457713e+07
6.990000e+02 2.555257e+07
7.000000e+02 2.656349e+07
7.010000e+02 2.761129e+07
7.020000e+02 2.869674e+07
7.030000e+02 2.981992e+07
7.040000e+02 3.098479e+07
7.050000e+02 3.219138e+07
7.060000e+02 3.344116e+07
7.070000e+02 3.473514e+07
7.080000e+02 3.607505e+07
7.090000e+02 3.746257e+07
7.100000e+02 3.889844e+07
7.110000e+02 4.038485e+07
7.120000e+02 4.192327e+07
7.130000e+02 4.351534e+07
7.140000e+02 4.516273e+07
7.150000e+02 4.686718e+07
7.160000e+02 4.863045e+07
7.170000e+02 5.045518e+07
7.180000e+02 5.234432e+07
7.190000e+02 5.429186e+07
7.200000e+02 5.630928e+07
7.210000e+02 5.839522e+07
7.220000e+02 6.055187e+07
7.230000e+02 6.278108e+07
7.240000e+02 6.508538e+07
7.250000e+02 6.746723e+07
7.260000e+02 6.992807e+07
7.270000e+02 7.247105e+07
7.280000e+02 7.509855e+07
7.290000e+02 7.780933e+07
7.300000e+02 8.096306e+07
7.310000e+02 8.350952e+07
7.320000e+02 8.662070e+07
7.330000e+02 8.958925e+07
7.340000e+02 9.277822e+07
7.350000e+02 9.608599e+07
7.360000e+02 9.947100e+07
7.370000e+02 1.029774e+08
7.380000e+02 1.065992e+08
7.390000e+02 1.103374e+08
7.400000e+02 1.141952e+08
7.410000e+02 1.181740e+08
7.420000e+02 1.222815e+08
7.430000e+02 1.265166e+08
7.440000e+02 1.308865e+08
7.450000e+02 1.353952e+08
7.460000e+02 1.400438e+08
7.470000e+02 1.448455e+08
7.480000e+02 1.497811e+08
7.490000e+02 1.548775e+08
7.500000e+02 1.601384e+08
7.510000e+02 1.655486e+08
7.520000e+02 1.711317e+08
7.530000e+02 1.768860e+08
7.540000e+02 1.828078e+08
7.550000e+02 1.889206e+08
7.560000e+02 1.952147e+08
7.570000e+02 2.017174e+08
7.580000e+02 2.083885e+08
7.590000e+02 2.152764e+08
7.600000e+02 2.223633e+08
7.610000e+02 2.296646e+08
7.620000e+02 2.371841e+08
7.630000e+02 2.449279e+08
7.640000e+02 2.529022e+08
7.650000e+02 2.611099e+08
7.660000e+02 2.695609e+08
7.670000e+02 2.782578e+08
7.680000e+02 2.872175e+08
7.690000e+02 2.964243e+08
7.700000e+02 3.059060e+08
7.710000e+02 3.156630e+08
7.720000e+02 3.257072e+08
7.730000e+02 3.360357e+08
7.740000e+02 3.466613e+08
7.750000e+02 3.575920e+08
7.760000e+02 3.689183e+08
7.770000e+02 3.803764e+08
7.780000e+02 3.922650e+08
7.790000e+02 4.044905e+08
7.800000e+02 4.170609e+08
7.810000e+02 4.299843e+08
7.820000e+02 4.432706e+08
7.830000e+02 4.569331e+08
7.840000e+02 4.709660e+08
7.850000e+02 4.853993e+08
7.860000e+02 5.002283e+08
7.870000e+02 5.154618e+08
7.880000e+02 5.311187e+08
7.890000e+02 5.472060e+08
7.900000e+02 5.637393e+08
7.910000e+02 5.807099e+08
7.920000e+02 5.981495e+08
7.930000e+02 6.160621e+08
7.940000e+02 6.344660e+08
7.950000e+02 6.533520e+08
7.960000e+02 6.727550e+08
7.970000e+02 6.926756e+08
7.980000e+02 7.131285e+08
7.990000e+02 7.341261e+08
8.000000e+02 7.556431e+08
8.010000e+02 7.777727e+08
8.020000e+02 8.004770e+08
8.030000e+02 8.237882e+08
8.040000e+02 8.477023e+08
8.050000e+02 8.722497e+08
8.060000e+02 8.974312e+08
8.070000e+02 9.232711e+08
8.080000e+02 9.497644e+08
8.090000e+02 9.769579e+08
8.100000e+02 1.004855e+09
8.110000e+02 1.033474e+09
8.120000e+02 1.062824e+09
8.130000e+02 1.092910e+09
8.140000e+02 1.123783e+09
8.150000e+02 1.155463e+09
8.160000e+02 1.187882e+09
8.170000e+02 1.221145e+09
8.180000e+02 1.255250e+09
8.190000e+02 1.290214e+09
8.200000e+02 1.326053e+09
8.210000e+02 1.362727e+09
8.220000e+02 1.400371e+09
8.230000e+02 1.438969e+09
8.240000e+02 1.478485e+09
8.250000e+02 1.518994e+09
8.260000e+02 1.560500e+09
8.270000e+02 1.603024e+09
8.280000e+02 1.646588e+09
8.290000e+02 1.691216e+09
8.300000e+02 1.736927e+09
8.310000e+02 1.783748e+09
8.320000e+02 1.831701e+09
8.330000e+02 1.880822e+09
8.340000e+02 1.931105e+09
8.350000e+02 1.983089e+09
8.360000e+02 2.035385e+09
8.370000e+02 2.089296e+09
8.380000e+02 2.144584e+09
8.390000e+02 2.201140e+09
8.400000e+02 2.259046e+09
8.410000e+02 2.318272e+09
8.420000e+02 2.379692e+09
8.430000e+02 2.441008e+09
8.440000e+02 2.504546e+09
8.450000e+02 2.569561e+09
8.460000e+02 2.636155e+09
8.470000e+02 2.704206e+09
8.480000e+02 2.773913e+09
8.490000e+02 2.845091e+09
8.500000e+02 2.917967e+09
8.510000e+02 2.992524e+09
8.520000e+02 3.068815e+09
8.530000e+02 3.146819e+09
8.540000e+02 3.226488e+09
8.550000e+02 3.308047e+09
8.560000e+02 3.391491e+09
8.570000e+02 3.476772e+09
8.580000e+02 3.563980e+09
8.590000e+02 3.653114e+09
8.600000e+02 3.744251e+09
8.610000e+02 3.837412e+09
8.620000e+02 3.932651e+09
8.630000e+02 4.030032e+09
8.640000e+02 4.129481e+09
8.650000e+02 4.231173e+09
8.660000e+02 4.335062e+09
8.670000e+02 4.441245e+09
8.680000e+02 4.549746e+09
8.690000e+02 4.660519e+09
8.700000e+02 4.773885e+09
8.710000e+02 4.889505e+09
8.720000e+02 5.007721e+09
8.730000e+02 5.128492e+09
8.740000e+02 5.251835e+09
8.750000e+02 5.377827e+09
8.760000e+02 5.506516e+09
8.770000e+02 5.637953e+09
8.780000e+02 5.772145e+09
8.790000e+02 5.909189e+09
8.800000e+02 6.049149e+09
8.810000e+02 6.192025e+09
8.820000e+02 6.337913e+09
8.830000e+02 6.486857e+09
8.840000e+02 6.638914e+09
8.850000e+02 6.794130e+09
8.860000e+02 6.952791e+09
8.870000e+02 7.114293e+09
8.880000e+02 7.279460e+09
8.890000e+02 7.447925e+09
8.900000e+02 7.619852e+09
8.910000e+02 7.795285e+09
8.920000e+02 8.070214e+09
8.930000e+02 8.156983e+09
8.940000e+02 8.343455e+09
8.950000e+02 8.533749e+09
8.960000e+02 8.727519e+09
8.970000e+02 8.925427e+09
8.980000e+02 9.127310e+09
8.990000e+02 9.333239e+09
9.000000e+02 9.543285e+09
9.010000e+02 9.757519e+09
9.020000e+02 9.976008e+09
9.030000e+02 1.019884e+10
9.040000e+02 1.042785e+10
9.050000e+02 1.065781e+10
9.060000e+02 1.089400e+10
9.070000e+02 1.113637e+10
9.080000e+02 1.138049e+10
9.090000e+02 1.163087e+10
9.100000e+02 1.188612e+10
9.110000e+02 1.214653e+10
9.120000e+02 1.241166e+10
9.130000e+02 1.292499e+10
9.140000e+02 1.292088e+10
9.150000e+02 1.393419e+10
9.160000e+02 1.751959e+10
9.170000e+02 1.859107e+10
9.180000e+02 1.704294e+10
9.190000e+02 2.716275e+10
9.200000e+02 4.041977e+10
9.210000e+02 1.727351e+10
9.220000e+02 5.721165e+10
9.230000e+02 1.979454e+10
9.240000e+02 5.579720e+10
9.250000e+02 7.674121e+10
9.260000e+02 2.481942e+10
9.270000e+02 6.048017e+10
9.280000e+02 1.089737e+11
9.290000e+02 9.979737e+10
9.300000e+02 6.204327e+10
9.310000e+02 2.883085e+10
9.320000e+02 9.928249e+10
9.330000e+02 1.462922e+11
9.340000e+02 1.664900e+11
9.350000e+02 9.617414e+10
9.360000e+02 1.373984e+11
9.370000e+02 5.508076e+10
9.380000e+02 2.905914e+10
9.390000e+02 1.086791e+11
9.400000e+02 1.687434e+11
9.410000e+02 1.554619e+11
9.420000e+02 2.213722e+11
9.430000e+02 2.332807e+11
9.440000e+02 1.406869e+11
9.450000e+02 2.388181e+11
9.460000e+02 2.305447e+11
9.470000e+02 1.767586e+11
9.480000e+02 1.633668e+11
9.490000e+02 8.509516e+10
9.500000e+02 4.003879e+10
9.510000e+02 1.337725e+11
9.520000e+02 2.088452e+11
9.530000e+02 2.501279e+11
9.540000e+02 2.367987e+11
9.550000e+02 2.937109e+11
9.560000e+02 2.918088e+11
9.570000e+02 2.750449e+11
9.580000e+02 3.210194e+11
9.590000e+02 3.300357e+11
9.600000e+02 1.051985e+11
9.610000e+02 3.421485e+11
9.620000e+02 3.400938e+11
9.630000e+02 3.517420e+11
9.640000e+02 3.480230e+10
9.650000e+02 3.291693e+11
9.660000e+02 3.584008e+11
9.670000e+02 3.542640e+11
9.680000e+02 3.419455e+11
9.690000e+02 3.277426e+11
9.700000e+02 2.900215e+11
9.710000e+02 2.153295e+11
9.720000e+02 9.443248e+10
9.730000e+02 8.657616e+10
9.740000e+02 2.176862e+11
9.750000e+02 3.087979e+11
9.760000e+02 3.635847e+11
9.770000e+02 3.964648e+11
9.780000e+02 4.184563e+11
9.790000e+02 4.350954e+11
9.800000e+02 4.480420e+11
9.810000e+02 4.586509e+11
9.820000e+02 4.592577e+11
9.830000e+02 4.768563e+11
9.840000e+02 1.934322e+11
9.850000e+02 4.936345e+11
9.860000e+02 5.013814e+11
9.870000e+02 5.067855e+11
9.880000e+02 4.984940e+11
9.890000e+02 3.162837e+11
9.900000e+02 6.440931e+10
9.910000e+02 5.347830e+11
9.920000e+02 5.000267e+11
9.930000e+02 5.277552e+11
9.940000e+02 1.048001e+11
9.950000e+02 1.345957e+11
9.960000e+02 9.860782e+10
9.970000e+02 1.392527e+11
9.980000e+02 5.936687e+11
9.990000e+02 5.848236e+11
1.000000e+03 6.107008e+11
1.001000e+03 6.198342e+11
1.002000e+03 6.271548e+11
1.003000e+03 4.840272e+11
1.004000e+03 6.448209e+11
1.005000e+03 5.307551e+11
1.006000e+03 6.615849e+11
1.007000e+03 6.696143e+11
1.008000e+03 6.777589e+11
1.009000e+03 6.275790e+11
1.010000e+03 6.951895e+11
1.011000e+03 7.035645e+11
1.012000e+03 7.105592e+11
1.013000e+03 7.191653e+11
1.014000e+03 7.270367e+11
1.015000e+03 7.136743e+11
1.016000e+03 7.379411e+11
1.017000e+03 7.440838e+11
1.018000e+03 7.454988e+11
1.019000e+03 7.444690e+11
1.020000e+03 7.360306e+11
1.021000e+03 6.053166e+11
1.022000e+03 6.715193e+11
1.023000e+03 6.080154e+11
1.024000e+03 4.657949e+11
1.025000e+03 2.450199e+11
1.026000e+03 1.430804e+11
1.027000e+03 3.906800e+11
1.028000e+03 3.056774e+11
1.029000e+03 7.179011e+11
1.030000e+03 7.737585e+11
1.031000e+03 8.477032e+11
1.032000e+03 8.571939e+11
1.033000e+03 6.098424e+11
1.034000e+03 9.355024e+11
1.035000e+03 2.630987e+11
1.036000e+03 9.523470e+11
1.037000e+03 1.284128e+11
1.038000e+03 1.004273e+12
1.039000e+03 9.930168e+11
1.040000e+03 1.034238e+12
1.041000e+03 1.043962e+12
1.042000e+03 9.241047e+11
1.043000e+03 1.063268e+12
1.044000e+03 1.067807e+12
1.045000e+03 1.102450e+12
1.046000e+03 1.117288e+12
1.047000e+03 1.128562e+12
1.048000e+03 1.087259e+12
1.049000e+03 1.143805e+12
1.050000e+03 1.176923e+12
1.051000e+03 1.191456e+12
1.052000e+03 1.205800e+12
1.053000e+03 1.124179e+12
1.054000e+03 1.233369e+12
1.055000e+03 1.248599e+12
1.056000e+03 1.265690e+12
1.057000e+03 1.276867e+12
1.058000e+03 1.293862e+12
1.059000e+03 1.310456e+12
1.060000e+03 1.327060e+12
1.061000e+03 1.343037e+12
1.062000e+03 1.358655e+12
1.063000e+03 8.131190e+11
1.064000e+03 3.250601e+11
1.065000e+03 1.466983e+12
1.066000e+03 1.395551e+12
1.067000e+03 1.214939e+12
1.068000e+03 1.522511e+12
1.069000e+03 1.539832e+12
1.070000e+03 1.412341e+12
1.071000e+03 1.579352e+12
1.072000e+03 1.596105e+12
1.073000e+03 1.616135e+12
1.074000e+03 1.632941e+12
1.075000e+03 1.646642e+12
1.076000e+03 1.671031e+12
1.077000e+03 1.680024e+12
1.078000e+03 1.704768e+12
1.079000e+03 1.710902e+12
1.080000e+03 1.737310e+12
1.081000e+03 1.768736e+12
1.082000e+03 1.788136e+12
1.083000e+03 1.798643e+12
1.084000e+03 8.438180e+11
1.085000e+03 1.485524e+12
1.086000e+03 1.870440e+12
1.087000e+03 1.886660e+12
1.088000e+03 1.905538e+12
1.089000e+03 1.926081e+12
1.090000e+03 1.939239e+12
1.091000e+03 1.975016e+12
1.092000e+03 1.997438e+12
1.093000e+03 2.017707e+12
1.094000e+03 2.041670e+12
1.095000e+03 2.052347e+12
1.096000e+03 2.083232e+12
1.097000e+03 2.092710e+12
1.098000e+03 1.980022e+12
1.099000e+03 2.140447e+12
1.100000e+03 2.148279e+12
1.101000e+03 2.074559e+12
1.102000e+03 3.261385e+12
1.103000e+03 5.505829e+12
1.104000e+03 3.566750e+12
1.105000e+03 2.160483e+12
1.106000e+03 8.345675e+12
1.107000e+03 8.139380e+12
1.108000e+03 8.536806e+12
1.109000e+03 5.066113e+12
1.110000e+03 2.055264e+12
1.111000e+03 3.537722e+12
1.112000e+03 7.771293e+12
1.113000e+03 8.902547e+12
1.114000e+03 1.762860e+12
1.115000e+03 8.800325e+12
1.116000e+03 8.946177e+12
1.117000e+03 1.987899e+12
1.118000e+03 7.607989e+12
1.119000e+03 9.072749e+12
1.120000e+03 9.211281e+12
1.121000e+03 6.856361e+12
1.122000e+03 4.758669e+11
1.123000e+03 2.794247e+12
1.124000e+03 9.352312e+12
1.125000e+03 4.335723e+12
1.126000e+03 9.640666e+12
1.127000e+03 9.412302e+12
1.128000e+03 5.591092e+12
1.129000e+03 9.423683e+12
1.130000e+03 6.550571e+12
1.131000e+03 1.016359e+13
1.132000e+03 1.220853e+12
1.133000e+03 9.366098e+12
1.134000e+03 1.029636e+13
1.135000e+03 6.344986e+11
1.136000e+03 9.957952e+12
1.137000e+03 1.073493e+13
1.138000e+03 1.087008e+13
1.139000e+03 1.039777e+13
1.140000e+03 8.980230e+11
1.141000e+03 1.110293e+13
1.142000e+03 9.308018e+12
1.143000e+03 1.120200e+13
1.144000e+03 1.130913e+13
1.145000e+03 1.020354e+13
1.146000e+03 1.137315e+13
1.147000e+03 1.152530e+13
1.148000e+03 1.164600e+13
1.149000e+03 1.181407e+13
1.150000e+03 1.104873e+13
1.151000e+03 1.193767e+13
1.152000e+03 1.162162e+13
1.153000e+03 4.121906e+12
1.154000e+03 1.596169e+12
1.155000e+03 1.030368e+13
1.156000e+03 5.658455e+12
1.157000e+03 1.247188e+13
1.158000e+03 1.090832e+12
1.159000e+03 1.073526e+13
1.160000e+03 1.201953e+13
1.161000e+03 1.292804e+13
1.162000e+03 3.099601e+12
1.163000e+03 1.167807e+13
1.164000e+03 1.877192e+12
1.165000e+03 1.328772e+13
1.166000e+03 1.292015e+13
1.167000e+03 1.142432e+13
1.168000e+03 1.354423e+13
1.169000e+03 1.289297e+13
1.170000e+03 1.377673e+13
1.171000e+03 1.386453e+13
1.172000e+03 1.238772e+13
1.173000e+03 1.390499e+13
1.174000e+03 1.335242e+13
1.175000e+03 1.925880e+12
1.176000e+03 1.381437e+12
1.177000e+03 1.374595e+13
1.178000e+03 1.211662e+13
1.179000e+03 1.437005e+13
1.180000e+03 1.116733e+13
1.181000e+03 1.412085e+13
1.182000e+03 1.468588e+13
1.183000e+03 1.471612e+13
1.184000e+03 1.479056e+13
1.185000e+03 1.340667e+13
1.186000e+03 1.484113e+13
1.187000e+03 1.488576e+13
1.188000e+03 1.318633e+13
1.189000e+03 1.446852e+12
1.190000e+03 5.241805e+12
1.191000e+03 1.446549e+13
1.192000e+03 1.466528e+13
1.193000e+03 1.090037e+12
1.194000e+03 1.655654e+12
1.195000e+03 8.438298e+12
1.196000e+03 1.440394e+13
1.197000e+03 1.456782e+13
1.198000e+03 1.470353e+13
1.199000e+03 1.447269e+13
1.200000e+03 1.376685e+13
1.201000e+03 1.382775e+13
1.202000e+03 1.356876e+13
1.203000e+03 1.343971e+13
1.204000e+03 1.270234e+13
1.205000e+03 1.224689e+13
1.206000e+03 9.077768e+12
1.207000e+03 8.011371e+12
1.208000e+03 9.825866e+12
1.209000e+03 8.094857e+12
1.210000e+03 2.181229e+12
1.211000e+03 6.328474e+12
1.212000e+03 4.945348e+12
1.213000e+03 3.629348e+12
1.214000e+03 2.419047e+12
1.215000e+03 1.559728e+12
1.216000e+03 1.398723e+12
1.217000e+03 2.133078e+12
1.218000e+03 3.344869e+12
1.219000e+03 4.820403e+12
1.220000e+03 6.387348e+12
1.221000e+03 7.936525e+12
1.222000e+03 9.434589e+12
1.223000e+03 1.084267e+13
1.224000e+03 1.214973e+13
1.225000e+03 1.331948e+13
1.226000e+03 1.429959e+13
1.227000e+03 1.539701e+13
1.228000e+03 1.657519e+13
1.229000e+03 1.726526e+13
1.230000e+03 1.823634e+13
1.231000e+03 1.917642e+13
1.232000e+03 1.998154e+13
1.233000e+03 2.072489e+13
1.234000e+03 1.809117e+13
1.235000e+03 2.192873e+13
1.236000e+03 2.274198e+13
1.237000e+03 2.324129e+13
1.238000e+03 2.392624e+13
1.239000e+03 2.452379e+13
1.240000e+03 2.378777e+13
1.241000e+03 3.175069e+13
1.242000e+03 2.392643e+13
1.243000e+03 2.886181e+13
1.244000e+03 1.800866e+13
1.245000e+03 2.292062e+13
1.246000e+03 3.862382e+13
1.247000e+03 4.096781e+13
1.248000e+03 1.910113e+13
1.249000e+03 2.151823e+13
1.250000e+03 4.566982e+13
1.251000e+03 4.606205e+13
1.252000e+03 4.540430e+13
1.253000e+03 5.095113e+13
1.254000e+03 5.235323e+13
1.255000e+03 5.240012e+13
1.256000e+03 5.239595e+13
1.257000e+03 5.741047e+13
1.258000e+03 5.835677e+13
1.259000e+03 5.807281e+13
1.260000e+03 5.360490e+13
1.261000e+03 2.477373e+12
1.262000e+03 1.412785e+13
1.263000e+03 6.667504e+13
1.264000e+03 6.348824e+13
1.265000e+03 2.337941e+12
1.266000e+03 7.176755e+13
1.267000e+03 7.635921e+13
