# wavelength_A flux
5.000000e+02 1.280205e-16
5.010000e+02 1.511862e-16
5.020000e+02 1.784222e-16
5.030000e+02 2.104224e-16
5.040000e+02 2.479940e-16
5.050000e+02 2.348622e-16
5.060000e+02 2.767108e-16
5.070000e+02 3.257982e-16
5.080000e+02 3.833384e-16
5.090000e+02 4.507429e-16
5.100000e+02 5.296513e-16
5.110000e+02 6.219670e-16
5.120000e+02 7.298986e-16
5.130000e+02 8.560070e-16
5.140000e+02 1.003260e-15
5.150000e+02 1.175171e-15
5.160000e+02 1.375486e-15
5.170000e+02 1.609677e-15
5.180000e+02 1.881062e-15
5.190000e+02 2.197710e-15
5.200000e+02 2.566077e-15
5.210000e+02 2.994392e-15
5.220000e+02 3.495421e-15
5.230000e+02 4.069950e-15
5.240000e+02 4.740446e-15
5.250000e+02 5.517844e-15
5.260000e+02 6.419222e-15
5.270000e+02 7.463413e-15
5.280000e+02 8.672328e-15
5.290000e+02 1.009477e-14
5.300000e+02 1.168873e-14
5.310000e+02 1.355825e-14
5.320000e+02 1.571769e-14
5.330000e+02 1.821061e-14
5.340000e+02 2.108691e-14
5.350000e+02 2.440385e-14
5.360000e+02 2.822826e-14
5.370000e+02 3.654043e-14
5.380000e+02 3.770631e-14
5.390000e+02 4.352840e-14
5.400000e+02 5.023318e-14
5.410000e+02 5.799168e-14
5.420000e+02 6.679928e-14
5.430000e+02 7.695412e-14
5.440000e+02 8.861521e-14
5.450000e+02 1.019885e-13
5.460000e+02 1.175062e-13
5.470000e+02 1.348781e-13
5.480000e+02 1.549861e-13
5.490000e+02 1.779970e-13
5.500000e+02 2.043181e-13
5.510000e+02 2.344093e-13
5.520000e+02 2.687932e-13
5.530000e+02 3.080619e-13
5.540000e+02 3.528868e-13
5.550000e+02 4.040282e-13
5.560000e+02 4.623471e-13
5.570000e+02 5.288174e-13
5.580000e+02 6.045410e-13
5.590000e+02 6.907637e-13
5.600000e+02 7.888928e-13
5.610000e+02 9.005179e-13
5.620000e+02 1.027434e-12
5.630000e+02 1.171666e-12
5.640000e+02 1.335497e-12
5.650000e+02 1.521504e-12
5.660000e+02 1.732582e-12
5.670000e+02 1.972004e-12
5.680000e+02 2.243446e-12
5.690000e+02 2.551046e-12
5.700000e+02 2.899467e-12
5.710000e+02 3.293918e-12
5.720000e+02 3.740303e-12
5.730000e+02 4.245218e-12
5.740000e+02 4.816079e-12
5.750000e+02 5.460381e-12
5.760000e+02 6.192082e-12
5.770000e+02 7.011688e-12
5.780000e+02 7.940154e-12
5.790000e+02 8.987549e-12
5.800000e+02 1.016860e-11
5.810000e+02 1.149982e-11
5.820000e+02 1.299984e-11
5.830000e+02 1.469044e-11
5.840000e+02 1.663742e-11
5.850000e+02 1.874095e-11
5.860000e+02 2.113484e-11
5.870000e+02 2.383735e-11
5.880000e+02 2.687528e-11
5.890000e+02 3.028901e-11
5.900000e+02 3.411949e-11
5.910000e+02 3.841972e-11
5.920000e+02 4.324387e-11
5.930000e+02 4.865350e-11
5.940000e+02 5.471719e-11
5.950000e+02 6.151123e-11
5.960000e+02 6.912050e-11
5.970000e+02 7.763937e-11
5.980000e+02 8.717274e-11
5.990000e+02 9.783716e-11
6.000000e+02 1.097621e-10
6.010000e+02 1.230916e-10
6.020000e+02 1.379840e-10
6.030000e+02 1.546174e-10
6.040000e+02 1.731876e-10
6.050000e+02 1.939122e-10
6.060000e+02 2.170357e-10
6.070000e+02 2.428141e-10
6.080000e+02 2.715540e-10
6.090000e+02 3.035789e-10
6.100000e+02 3.392508e-10
6.110000e+02 3.789699e-10
6.120000e+02 4.231790e-10
6.130000e+02 4.723673e-10
6.140000e+02 5.270755e-10
6.150000e+02 5.879000e-10
6.160000e+02 6.555005e-10
6.170000e+02 7.306040e-10
6.180000e+02 8.140132e-10
6.190000e+02 9.066137e-10
6.200000e+02 1.009379e-09
6.210000e+02 1.123386e-09
6.220000e+02 1.249820e-09
6.230000e+02 1.389984e-09
6.240000e+02 1.545316e-09
6.250000e+02 1.717396e-09
6.260000e+02 1.907963e-09
6.270000e+02 2.118931e-09
6.280000e+02 2.352401e-09
6.290000e+02 2.610685e-09
6.300000e+02 2.896356e-09
6.310000e+02 3.233126e-09
6.320000e+02 3.561093e-09
6.330000e+02 3.946800e-09
6.340000e+02 4.372456e-09
6.350000e+02 4.843372e-09
6.360000e+02 5.361424e-09
6.370000e+02 5.933862e-09
6.380000e+02 6.565239e-09
6.390000e+02 7.261385e-09
6.400000e+02 8.028690e-09
6.410000e+02 8.874155e-09
6.420000e+02 9.805441e-09
6.430000e+02 1.083092e-08
6.440000e+02 1.195978e-08
6.450000e+02 1.320206e-08
6.460000e+02 1.456861e-08
6.470000e+02 1.607155e-08
6.480000e+02 1.772381e-08
6.490000e+02 1.953979e-08
6.500000e+02 2.153512e-08
6.510000e+02 2.372658e-08
6.520000e+02 2.613297e-08
6.530000e+02 2.877446e-08
6.540000e+02 3.167319e-08
6.550000e+02 3.485310e-08
6.560000e+02 3.834055e-08
6.570000e+02 4.216806e-08
6.580000e+02 4.635482e-08
6.590000e+02 5.094665e-08
6.600000e+02 5.597653e-08
6.610000e+02 6.148449e-08
6.620000e+02 6.751431e-08
6.630000e+02 7.411349e-08
6.640000e+02 8.133360e-08
6.650000e+02 8.923108e-08
6.660000e+02 9.786616e-08
6.670000e+02 1.073058e-07
6.680000e+02 1.176218e-07
6.690000e+02 1.288923e-07
6.700000e+02 1.412025e-07
6.710000e+02 1.546432e-07
6.720000e+02 1.693155e-07
6.730000e+02 1.853273e-07
6.740000e+02 2.027960e-07
6.750000e+02 2.218488e-07
6.760000e+02 2.426237e-07
6.770000e+02 2.652701e-07
6.780000e+02 2.899498e-07
6.790000e+02 3.168382e-07
6.800000e+02 3.461248e-07
6.810000e+02 3.780149e-07
6.820000e+02 4.127308e-07
6.830000e+02 4.505121e-07
6.840000e+02 4.916197e-07
6.850000e+02 5.363339e-07
6.860000e+02 5.849583e-07
6.870000e+02 6.378211e-07
6.880000e+02 6.952765e-07
6.890000e+02 7.577073e-07
6.900000e+02 8.255268e-07
6.910000e+02 8.991802e-07
6.920000e+02 9.791503e-07
6.930000e+02 1.065956e-06
6.940000e+02 1.160157e-06
6.950000e+02 1.262358e-06
6.960000e+02 1.373211e-06
6.970000e+02 1.493669e-06
6.980000e+02 1.623733e-06
6.990000e+02 1.764973e-06
7.000000e+02 1.918017e-06
7.010000e+02 2.083810e-06
7.020000e+02 2.263368e-06
7.030000e+02 2.457787e-06
7.040000e+02 2.668247e-06
7.050000e+02 2.896014e-06
7.060000e+02 3.142454e-06
7.070000e+02 3.409031e-06
7.080000e+02 3.697324e-06
7.090000e+02 4.009030e-06
7.100000e+02 4.345957e-06
7.110000e+02 4.710075e-06
7.120000e+02 5.103479e-06
7.130000e+02 5.528425e-06
7.140000e+02 5.987336e-06
7.150000e+02 6.482811e-06
7.160000e+02 7.017639e-06
7.170000e+02 7.594938e-06
7.180000e+02 8.218377e-06
7.190000e+02 8.889260e-06
7.200000e+02 9.613661e-06
7.210000e+02 1.039470e-05
7.220000e+02 1.123663e-05
7.230000e+02 1.214397e-05
7.240000e+02 1.312159e-05
7.250000e+02 1.417472e-05
7.260000e+02 1.530892e-05
7.270000e+02 1.653016e-05
7.280000e+02 1.784484e-05
7.290000e+02 1.925980e-05
7.300000e+02 2.078234e-05
7.310000e+02 2.242030e-05
7.320000e+02 2.418205e-05
7.330000e+02 2.607653e-05
7.340000e+02 2.811330e-05
7.350000e+02 3.030258e-05
7.360000e+02 3.265555e-05
7.370000e+02 3.518310e-05
7.380000e+02 3.789847e-05
7.390000e+02 4.081469e-05
7.400000e+02 4.394609e-05
7.410000e+02 4.730748e-05
7.420000e+02 5.091546e-05
7.430000e+02 5.478693e-05
7.440000e+02 5.894056e-05
7.450000e+02 6.339588e-05
7.460000e+02 6.817385e-05
7.470000e+02 7.329680e-05
7.480000e+02 7.878851e-05
7.490000e+02 8.467434e-05
7.500000e+02 9.098130e-05
7.510000e+02 9.773819e-05
7.520000e+02 1.049757e-04
7.530000e+02 1.127263e-04
7.540000e+02 1.210250e-04
7.550000e+02 1.299087e-04
7.560000e+02 1.394166e-04
7.570000e+02 1.495923e-04
7.580000e+02 1.604757e-04
7.590000e+02 1.721215e-04
7.600000e+02 1.845706e-04
7.610000e+02 1.978837e-04
7.620000e+02 2.121165e-04
7.630000e+02 2.273294e-04
7.640000e+02 2.435864e-04
7.650000e+02 2.609561e-04
7.660000e+02 2.795104e-04
7.670000e+02 2.993274e-04
7.680000e+02 3.204987e-04
7.690000e+02 3.431025e-04
7.700000e+02 3.671951e-04
7.710000e+02 3.929322e-04
7.720000e+02 4.203942e-04
7.730000e+02 4.496927e-04
7.740000e+02 4.809441e-04
7.750000e+02 5.142724e-04
7.760000e+02 5.498558e-04
7.770000e+02 5.876941e-04
7.780000e+02 6.280737e-04
7.790000e+02 6.711072e-04
7.800000e+02 7.169595e-04
7.810000e+02 7.658057e-04
7.820000e+02 8.178340e-04
7.830000e+02 8.732404e-04
7.840000e+02 9.322349e-04
7.850000e+02 9.950381e-04
7.860000e+02 1.061886e-03
7.870000e+02 1.132998e-03
7.880000e+02 1.208689e-03
7.890000e+02 1.289211e-03
7.900000e+02 1.374858e-03
7.910000e+02 1.465941e-03
7.920000e+02 1.562789e-03
7.930000e+02 1.665748e-03
7.940000e+02 1.775187e-03
7.950000e+02 1.891493e-03
7.960000e+02 2.015077e-03
7.970000e+02 2.146372e-03
7.980000e+02 2.285836e-03
7.990000e+02 2.433953e-03
8.000000e+02 2.591234e-03
8.010000e+02 2.758220e-03
8.020000e+02 2.935477e-03
8.030000e+02 3.123609e-03
8.040000e+02 3.323251e-03
8.050000e+02 3.535073e-03
8.060000e+02 3.759780e-03
8.070000e+02 3.998120e-03
8.080000e+02 4.250878e-03
8.090000e+02 4.518885e-03
8.100000e+02 4.803015e-03
8.110000e+02 5.104192e-03
8.120000e+02 5.423386e-03
8.130000e+02 5.761624e-03
8.140000e+02 6.119986e-03
8.150000e+02 6.499639e-03
8.160000e+02 6.901693e-03
8.170000e+02 7.327502e-03
8.180000e+02 7.778366e-03
8.190000e+02 8.255686e-03
8.200000e+02 8.760938e-03
8.210000e+02 9.295675e-03
8.220000e+02 9.861531e-03
8.230000e+02 1.046023e-02
8.240000e+02 1.109358e-02
8.250000e+02 1.176348e-02
8.260000e+02 1.247195e-02
8.270000e+02 1.322108e-02
8.280000e+02 1.401311e-02
8.290000e+02 1.485035e-02
8.300000e+02 1.573526e-02
8.310000e+02 1.667043e-02
8.320000e+02 1.765855e-02
8.330000e+02 1.870248e-02
8.340000e+02 1.980520e-02
8.350000e+02 2.098896e-02
8.360000e+02 2.220120e-02
8.370000e+02 2.349839e-02
8.380000e+02 2.486938e-02
8.390000e+02 2.631653e-02
8.400000e+02 2.784389e-02
8.410000e+02 2.945567e-02
8.420000e+02 3.116235e-02
8.430000e+02 3.295041e-02
8.440000e+02 3.484289e-02
8.450000e+02 3.683884e-02
8.460000e+02 3.894366e-02
8.470000e+02 4.116295e-02
8.480000e+02 4.350262e-02
8.490000e+02 4.596887e-02
8.500000e+02 4.856820e-02
8.510000e+02 5.130740e-02
8.520000e+02 5.419378e-02
8.530000e+02 5.723437e-02
8.540000e+02 6.043547e-02
8.550000e+02 6.380899e-02
8.560000e+02 6.736165e-02
8.570000e+02 7.110247e-02
8.580000e+02 7.505046e-02
8.590000e+02 7.918688e-02
8.600000e+02 8.355070e-02
8.610000e+02 8.814405e-02
8.620000e+02 9.297584e-02
8.630000e+02 9.806057e-02
8.640000e+02 1.034095e-01
8.650000e+02 1.090359e-01
8.660000e+02 1.149532e-01
8.670000e+02 1.211759e-01
8.680000e+02 1.277189e-01
8.690000e+02 1.345977e-01
8.700000e+02 1.418321e-01
8.710000e+02 1.494288e-01
8.720000e+02 1.574161e-01
8.730000e+02 1.658090e-01
8.740000e+02 1.746272e-01
8.750000e+02 1.838910e-01
8.760000e+02 1.936217e-01
8.770000e+02 2.038425e-01
8.780000e+02 2.145743e-01
8.790000e+02 2.258432e-01
8.800000e+02 2.376748e-01
8.810000e+02 2.500947e-01
8.820000e+02 2.631310e-01
8.830000e+02 2.768130e-01
8.840000e+02 2.911705e-01
8.850000e+02 3.062348e-01
8.860000e+02 3.220395e-01
8.870000e+02 3.386184e-01
8.880000e+02 3.560079e-01
8.890000e+02 3.742449e-01
8.900000e+02 3.933685e-01
8.910000e+02 4.134200e-01
8.920000e+02 4.383376e-01
8.930000e+02 4.564775e-01
8.940000e+02 4.795744e-01
8.950000e+02 5.037800e-01
8.960000e+02 5.291448e-01
8.970000e+02 5.557214e-01
8.980000e+02 5.835648e-01
8.990000e+02 6.127310e-01
9.000000e+02 6.432807e-01
9.010000e+02 6.752745e-01
9.020000e+02 7.087789e-01
9.030000e+02 7.438657e-01
9.040000e+02 7.805863e-01
9.050000e+02 8.190308e-01
9.060000e+02 8.592722e-01
9.070000e+02 9.014152e-01
9.080000e+02 9.454623e-01
9.090000e+02 9.915790e-01
9.100000e+02 1.039828e+00
9.110000e+02 1.090284e+00
9.120000e+02 1.142916e+00
9.130000e+02 1.281339e+00
9.140000e+02 9.235649e-01
9.150000e+02 1.881912e+01
9.160000e+02 8.295962e+01
9.170000e+02 1.356256e+01
9.180000e+02 5.781839e+01
9.190000e+02 2.780506e+02
9.200000e+02 5.039630e+02
9.210000e+02 1.869569e+00
9.220000e+02 2.952100e+02
9.230000e+02 2.022263e+01
9.240000e+02 2.723328e+01
9.250000e+02 8.909286e+01
9.260000e+02 1.818854e+02
9.270000e+02 1.650365e+01
9.280000e+02 9.661591e+02
9.290000e+02 9.928603e+02
9.300000e+02 8.423619e+02
9.310000e+02 1.669205e+01
9.320000e+02 1.173024e+03
9.330000e+02 2.711913e+02
9.340000e+02 1.284457e+02
9.350000e+02 4.655840e+00
9.360000e+02 2.380758e+01
9.370000e+02 2.045258e+00
9.380000e+02 7.093256e+01
9.390000e+02 4.152611e+01
9.400000e+02 1.006186e+03
9.410000e+02 1.341589e+02
9.420000e+02 1.787913e+03
9.430000e+02 6.120087e+01
9.440000e+02 1.664159e+03
9.450000e+02 1.920441e+03
9.460000e+02 6.119029e+02
9.470000e+02 7.149063e+00
9.480000e+02 1.741788e+03
9.490000e+02 1.355388e+03
9.500000e+02 1.840067e+01
9.510000e+02 4.913099e+02
9.520000e+02 7.064711e+02
9.530000e+02 1.354395e+01
9.540000e+02 7.944965e+00
9.550000e+02 1.772517e+02
9.560000e+02 2.687690e+03
9.570000e+02 6.629849e+01
9.580000e+02 3.654083e+00
9.590000e+02 2.507628e+03
9.600000e+02 6.171234e+00
9.610000e+02 6.374760e+02
9.620000e+02 2.790219e+02
9.630000e+02 1.901455e+02
9.640000e+02 5.071259e+00
9.650000e+02 1.530029e+01
9.660000e+02 1.894053e+02
9.670000e+02 4.660632e+01
9.680000e+02 2.401733e+01
9.690000e+02 5.892510e+02
9.700000e+02 4.558703e+02
9.710000e+02 4.799788e+01
9.720000e+02 6.988098e+01
9.730000e+02 1.539871e+03
9.740000e+02 7.248240e+02
9.750000e+02 2.764576e+02
9.760000e+02 2.538984e+03
9.770000e+02 1.696346e+03
9.780000e+02 6.534257e+02
9.790000e+02 5.926062e+03
9.800000e+02 6.061805e+03
9.810000e+02 7.558232e+02
9.820000e+02 1.610396e+02
9.830000e+02 4.866102e+03
9.840000e+02 4.020363e+02
9.850000e+02 4.498865e+02
9.860000e+02 5.037457e+02
9.870000e+02 5.563183e+03
9.880000e+02 2.717627e+01
9.890000e+02 1.685439e+03
9.900000e+02 4.667719e+01
9.910000e+02 9.392223e+01
9.920000e+02 1.262823e+01
9.930000e+02 8.559517e+03
9.940000e+02 1.379810e+01
9.950000e+02 5.793330e+02
9.960000e+02 6.038477e+01
9.970000e+02 4.332844e+02
9.980000e+02 3.436627e+03
9.990000e+02 1.745311e+02
1.000000e+03 1.150054e+04
1.001000e+03 1.260074e+04
1.002000e+03 9.972015e+03
1.003000e+03 2.962441e+02
1.004000e+03 4.864453e+01
1.005000e+03 5.790986e+02
1.006000e+03 9.133356e+03
1.007000e+03 1.264326e+04
1.008000e+03 6.346495e+03
1.009000e+03 4.532299e+02
1.010000e+03 6.836886e+03
1.011000e+03 1.091077e+04
1.012000e+03 7.044201e+03
1.013000e+03 6.179614e+03
1.014000e+03 2.729639e+01
1.015000e+03 5.468164e+01
1.016000e+03 5.392183e+02
1.017000e+03 2.950488e+01
1.018000e+03 4.512090e+02
1.019000e+03 5.898047e+01
1.020000e+03 1.669816e+04
1.021000e+03 3.099248e+02
1.022000e+03 5.663027e+02
1.023000e+03 8.112891e+01
1.024000e+03 1.653351e+04
1.025000e+03 3.640735e+01
1.026000e+03 3.111988e+02
1.027000e+03 3.122065e+03
1.028000e+03 7.720508e+01
1.029000e+03 4.764746e+01
1.030000e+03 3.227984e+03
1.031000e+03 1.854812e+03
1.032000e+03 1.264248e+04
1.033000e+03 5.145532e+02
1.034000e+03 3.956927e+03
1.035000e+03 6.822754e+01
1.036000e+03 6.593359e+01
1.037000e+03 1.148684e+04
1.038000e+03 2.964387e+04
1.039000e+03 1.384638e+04
1.040000e+03 1.604346e+04
1.041000e+03 3.899870e+04
1.042000e+03 2.865977e+04
1.043000e+03 2.509853e+04
1.044000e+03 4.679933e+04
1.045000e+03 1.912030e+04
1.046000e+03 2.503959e+04
1.047000e+03 5.249109e+03
1.048000e+03 3.370039e+02
1.049000e+03 8.361672e+03
1.050000e+03 4.281061e+03
1.051000e+03 2.370289e+03
1.052000e+03 2.893369e+04
1.053000e+03 4.728129e+04
1.054000e+03 1.128906e+02
1.055000e+03 5.569714e+04
1.056000e+03 5.656768e+04
1.057000e+03 1.152894e+04
1.058000e+03 3.517242e+03
1.059000e+03 1.119258e+03
1.060000e+03 5.030723e+02
1.061000e+03 1.489986e+04
1.062000e+03 1.834026e+03
1.063000e+03 9.162459e+03
1.064000e+03 1.821875e+02
1.065000e+03 1.733242e+02
1.066000e+03 1.922596e+04
1.067000e+03 8.785528e+02
1.068000e+03 8.915689e+04
1.069000e+03 3.536849e+02
1.070000e+03 1.530232e+04
1.071000e+03 7.630170e+04
1.072000e+03 7.491377e+04
1.073000e+03 2.629766e+02
1.074000e+03 1.094930e+04
1.075000e+03 7.165492e+03
1.076000e+03 8.636957e+04
1.077000e+03 9.277051e+02
1.078000e+03 3.514930e+03
1.079000e+03 1.103335e+04
1.080000e+03 1.928193e+04
1.081000e+03 3.758330e+04
1.082000e+03 3.203819e+04
1.083000e+03 2.138615e+04
1.084000e+03 1.348899e+05
1.085000e+03 8.142398e+03
1.086000e+03 1.309918e+05
1.087000e+03 1.926938e+03
1.088000e+03 1.606309e+05
1.089000e+03 1.616776e+05
1.090000e+03 6.403746e+03
1.091000e+03 6.850672e+03
1.092000e+03 1.496157e+05
1.093000e+03 1.537626e+05
1.094000e+03 5.059418e+04
1.095000e+03 1.851169e+05
1.096000e+03 4.165360e+04
1.097000e+03 7.297790e+04
1.098000e+03 1.925582e+05
1.099000e+03 2.375975e+04
1.100000e+03 1.180750e+03
1.101000e+03 2.321769e+03
1.102000e+03 1.010166e+04
1.103000e+03 2.162773e+05
1.104000e+03 2.628698e+05
1.105000e+03 2.120045e+05
1.106000e+03 4.241462e+04
1.107000e+03 1.150438e+03
1.108000e+03 1.251212e+05
1.109000e+03 6.092969e+03
1.110000e+03 2.857467e+05
1.111000e+03 2.173564e+05
1.112000e+03 8.283510e+04
1.113000e+03 2.739613e+05
1.114000e+03 5.498799e+04
1.115000e+03 1.136160e+04
1.116000e+03 7.575047e+03
1.117000e+03 1.685649e+05
1.118000e+03 8.965906e+03
1.119000e+03 1.193060e+05
1.120000e+03 7.532344e+03
1.121000e+03 2.164712e+05
1.122000e+03 6.599844e+03
1.123000e+03 2.661168e+05
1.124000e+03 2.812801e+05
1.125000e+03 1.890715e+05
1.126000e+03 4.721225e+05
1.127000e+03 3.115738e+05
1.128000e+03 2.627392e+05
1.129000e+03 1.619866e+05
1.130000e+03 3.527353e+05
1.131000e+03 4.239550e+05
1.132000e+03 1.125459e+04
1.133000e+03 2.315984e+04
1.134000e+03 1.604624e+05
1.135000e+03 5.161010e+04
1.136000e+03 5.853053e+04
1.137000e+03 3.971579e+05
1.138000e+03 1.532064e+05
1.139000e+03 5.112392e+05
1.140000e+03 1.366648e+05
1.141000e+03 4.516058e+05
1.142000e+03 5.972868e+05
1.143000e+03 3.098219e+05
1.144000e+03 6.128584e+05
1.145000e+03 5.665406e+03
1.146000e+03 6.774252e+05
1.147000e+03 5.728547e+05
1.148000e+03 2.315088e+04
1.149000e+03 4.758196e+05
1.150000e+03 2.988119e+05
1.151000e+03 7.323638e+05
1.152000e+03 6.155676e+05
1.153000e+03 5.893561e+05
1.154000e+03 7.636876e+05
1.155000e+03 4.106062e+05
1.156000e+03 7.977738e+05
1.157000e+03 7.846714e+05
1.158000e+03 2.759622e+05
1.159000e+03 7.229578e+05
1.160000e+03 2.534544e+05
1.161000e+03 7.541809e+05
1.162000e+03 7.201525e+04
1.163000e+03 1.552739e+05
1.164000e+03 6.054469e+03
1.165000e+03 7.337762e+05
1.166000e+03 5.355148e+05
1.167000e+03 5.191902e+05
1.168000e+03 9.799669e+05
1.169000e+03 9.984289e+05
1.170000e+03 5.460729e+05
1.171000e+03 7.874122e+05
1.172000e+03 3.328609e+05
1.173000e+03 1.030087e+06
1.174000e+03 2.423319e+04
1.175000e+03 6.094969e+03
1.176000e+03 6.176062e+03
1.177000e+03 1.182215e+06
1.178000e+03 1.208173e+06
1.179000e+03 1.088468e+06
1.180000e+03 5.493231e+05
1.181000e+03 1.265783e+06
1.182000e+03 1.081771e+06
1.183000e+03 7.305786e+05
1.184000e+03 6.305051e+05
1.185000e+03 8.800071e+05
1.186000e+03 1.070901e+05
1.187000e+03 9.941744e+05
1.188000e+03 4.362620e+05
1.189000e+03 3.424585e+05
1.190000e+03 1.345180e+06
1.191000e+03 9.517596e+05
1.192000e+03 1.296680e+06
1.193000e+03 2.739638e+04
1.194000e+03 4.002246e+05
1.195000e+03 1.270377e+06
1.196000e+03 1.243858e+06
1.197000e+03 1.929843e+06
1.198000e+03 2.390169e+05
1.199000e+03 1.933390e+06
1.200000e+03 4.011488e+05
1.201000e+03 1.856701e+06
1.202000e+03 8.788688e+05
1.203000e+03 1.843624e+06
1.204000e+03 3.190151e+05
1.205000e+03 1.575051e+06
1.206000e+03 1.771507e+06
1.207000e+03 3.728979e+05
1.208000e+03 1.380335e+06
1.209000e+03 1.310878e+06
1.210000e+03 1.470969e+04
1.211000e+03 7.933345e+05
1.212000e+03 4.037458e+05
1.213000e+03 3.000709e+05
1.214000e+03 1.031381e+05
1.215000e+03 1.907972e+04
1.216000e+03 1.863495e+04
1.217000e+03 6.380745e+04
1.218000e+03 2.484605e+05
1.219000e+03 5.226130e+05
1.220000e+03 3.174922e+05
1.221000e+03 1.218351e+06
1.222000e+03 1.295222e+06
1.223000e+03 1.501263e+06
1.224000e+03 2.112744e+06
1.225000e+03 2.588378e+05
1.226000e+03 2.925501e+06
1.227000e+03 2.963368e+06
1.228000e+03 9.158553e+05
1.229000e+03 2.601084e+06
1.230000e+03 2.139799e+06
1.231000e+03 7.362185e+05
1.232000e+03 4.178814e+06
1.233000e+03 4.470957e+06
1.234000e+03 3.494900e+06
1.235000e+03 4.305210e+06
1.236000e+03 1.155509e+06
1.237000e+03 4.864250e+06
1.238000e+03 4.308802e+06
1.239000e+03 3.710301e+06
1.240000e+03 3.053043e+06
1.241000e+03 3.299118e+06
1.242000e+03 4.467991e+06
1.243000e+03 5.613963e+06
1.244000e+03 5.981442e+06
1.245000e+03 5.480382e+06
1.246000e+03 4.912002e+06
1.247000e+03 5.289048e+06
1.248000e+03 5.237492e+06
1.249000e+03 6.715584e+06
1.250000e+03 4.693730e+06
1.251000e+03 6.893887e+06
1.252000e+03 5.974320e+06
1.253000e+03 7.139450e+06
1.254000e+03 6.319408e+06
1.255000e+03 7.363884e+06
1.256000e+03 6.308115e+06
1.257000e+03 6.364391e+06
1.258000e+03 4.489230e+06
1.259000e+03 6.283704e+06
1.260000e+03 7.953624e+06
1.261000e+03 2.541695e+05
1.262000e+03 8.429024e+06
1.263000e+03 7.885593e+06
1.264000e+03 5.588556e+06
1.265000e+03 9.980700e+04
1.266000e+03 8.464109e+06
1.267000e+03 6.376307e+06
