# wavelength_A flux
5.000000e+02 1.771029e-23
5.010000e+02 2.150511e-23
5.020000e+02 2.609254e-23
5.030000e+02 3.163384e-23
5.040000e+02 3.832232e-23
5.050000e+02 5.491892e-23
5.060000e+02 6.634270e-23
5.070000e+02 8.008286e-23
5.080000e+02 9.659687e-23
5.090000e+02 1.164301e-22
5.100000e+02 1.402325e-22
5.110000e+02 1.687774e-22
5.120000e+02 2.029852e-22
5.130000e+02 2.439500e-22
5.140000e+02 2.929713e-22
5.150000e+02 3.515840e-22
5.160000e+02 4.216427e-22
5.170000e+02 5.052305e-22
5.180000e+02 6.051137e-22
5.190000e+02 7.241480e-22
5.200000e+02 8.659938e-22
5.210000e+02 1.034896e-21
5.220000e+02 1.234964e-21
5.230000e+02 1.474919e-21
5.240000e+02 1.759077e-21
5.250000e+02 2.096514e-21
5.260000e+02 2.496973e-21
5.270000e+02 2.971937e-21
5.280000e+02 3.534897e-21
5.290000e+02 4.198587e-21
5.300000e+02 4.991052e-21
5.310000e+02 5.924799e-21
5.320000e+02 7.028667e-21
5.330000e+02 8.332819e-21
5.340000e+02 9.872584e-21
5.350000e+02 1.168933e-20
5.360000e+02 1.383098e-20
5.370000e+02 1.508529e-20
5.380000e+02 1.932778e-20
5.390000e+02 2.282968e-20
5.400000e+02 2.694661e-20
5.410000e+02 3.177371e-20
5.420000e+02 3.747021e-20
5.430000e+02 4.414702e-20
5.440000e+02 5.198005e-20
5.450000e+02 6.116590e-20
5.460000e+02 7.189414e-20
5.470000e+02 8.454209e-20
5.480000e+02 9.930386e-20
5.490000e+02 1.165743e-19
5.500000e+02 1.367678e-19
5.510000e+02 1.603654e-19
5.520000e+02 1.879251e-19
5.530000e+02 2.200936e-19
5.540000e+02 2.576202e-19
5.550000e+02 3.013725e-19
5.560000e+02 3.523545e-19
5.570000e+02 4.117277e-19
5.580000e+02 4.808342e-19
5.590000e+02 5.612255e-19
5.600000e+02 6.546919e-19
5.610000e+02 7.633006e-19
5.620000e+02 8.894356e-19
5.630000e+02 1.035846e-18
5.640000e+02 1.205697e-18
5.650000e+02 1.402638e-18
5.660000e+02 1.630866e-18
5.670000e+02 1.895211e-18
5.680000e+02 2.201225e-18
5.690000e+02 2.555291e-18
5.700000e+02 2.964738e-18
5.710000e+02 3.437984e-18
5.720000e+02 3.984683e-18
5.730000e+02 4.615911e-18
5.740000e+02 5.344361e-18
5.750000e+02 6.185212e-18
5.760000e+02 7.151921e-18
5.770000e+02 8.270178e-18
5.780000e+02 9.555720e-18
5.790000e+02 1.103551e-17
5.800000e+02 1.273802e-17
5.810000e+02 1.469579e-17
5.820000e+02 1.694581e-17
5.830000e+02 1.952945e-17
5.840000e+02 2.245692e-17
5.850000e+02 2.589521e-17
5.860000e+02 2.981412e-17
5.870000e+02 3.429707e-17
5.880000e+02 3.943377e-17
5.890000e+02 4.531719e-17
5.900000e+02 5.205447e-17
5.910000e+02 5.976426e-17
5.920000e+02 6.858347e-17
5.930000e+02 7.866705e-17
5.940000e+02 9.019094e-17
5.950000e+02 1.033548e-16
5.960000e+02 1.183851e-16
5.970000e+02 1.355386e-16
5.980000e+02 1.551064e-16
5.990000e+02 1.774182e-16
6.000000e+02 2.028474e-16
6.010000e+02 2.318162e-16
6.020000e+02 2.648035e-16
6.030000e+02 3.023492e-16
6.040000e+02 3.450646e-16
6.050000e+02 3.936402e-16
6.060000e+02 4.488549e-16
6.070000e+02 5.115923e-16
6.080000e+02 5.828426e-16
6.090000e+02 6.637274e-16
6.100000e+02 7.555104e-16
6.110000e+02 8.596156e-16
6.120000e+02 9.776470e-16
6.130000e+02 1.111411e-15
6.140000e+02 1.262942e-15
6.150000e+02 1.434526e-15
6.160000e+02 1.628738e-15
6.170000e+02 1.848470e-15
6.180000e+02 2.096974e-15
6.190000e+02 2.377900e-15
6.200000e+02 2.695352e-15
6.210000e+02 3.053932e-15
6.220000e+02 3.458803e-15
6.230000e+02 3.915759e-15
6.240000e+02 4.431294e-15
6.250000e+02 5.012685e-15
6.260000e+02 5.668086e-15
6.270000e+02 6.406625e-15
6.280000e+02 7.238527e-15
6.290000e+02 8.175221e-15
6.300000e+02 9.229501e-15
6.310000e+02 1.037501e-14
6.320000e+02 1.174971e-14
6.330000e+02 1.324922e-14
6.340000e+02 1.493494e-14
6.350000e+02 1.682663e-14
6.360000e+02 1.895452e-14
6.370000e+02 2.134126e-14
6.380000e+02 2.401943e-14
6.390000e+02 2.702351e-14
6.400000e+02 3.039191e-14
6.410000e+02 3.416743e-14
6.420000e+02 3.839771e-14
6.430000e+02 4.313581e-14
6.440000e+02 4.844074e-14
6.450000e+02 5.437815e-14
6.460000e+02 6.102110e-14
6.470000e+02 6.845070e-14
6.480000e+02 7.675720e-14
6.490000e+02 8.604074e-14
6.500000e+02 9.641241e-14
6.510000e+02 1.079963e-13
6.520000e+02 1.209288e-13
6.530000e+02 1.353622e-13
6.540000e+02 1.514650e-13
6.550000e+02 1.694243e-13
6.560000e+02 1.894471e-13
6.570000e+02 2.117574e-13
6.580000e+02 2.366254e-13
6.590000e+02 2.643163e-13
6.600000e+02 2.951468e-13
6.610000e+02 3.294614e-13
6.620000e+02 3.676409e-13
6.630000e+02 4.101065e-13
6.640000e+02 4.573236e-13
6.650000e+02 5.098063e-13
6.660000e+02 5.681237e-13
6.670000e+02 6.329020e-13
6.680000e+02 7.048341e-13
6.690000e+02 7.846839e-13
6.700000e+02 8.732938e-13
6.710000e+02 9.715951e-13
6.720000e+02 1.080611e-12
6.730000e+02 1.201471e-12
6.740000e+02 1.335419e-12
6.750000e+02 1.483827e-12
6.760000e+02 1.648203e-12
6.770000e+02 1.830208e-12
6.780000e+02 2.031671e-12
6.790000e+02 2.254602e-12
6.800000e+02 2.501212e-12
6.810000e+02 2.773934e-12
6.820000e+02 3.075438e-12
6.830000e+02 3.408662e-12
6.840000e+02 3.776829e-12
6.850000e+02 4.183482e-12
6.860000e+02 4.632508e-12
6.870000e+02 5.128174e-12
6.880000e+02 5.675163e-12
6.890000e+02 6.278606e-12
6.900000e+02 6.944136e-12
6.910000e+02 7.677924e-12
6.920000e+02 8.486733e-12
6.930000e+02 9.377972e-12
6.940000e+02 1.035976e-11
6.950000e+02 1.144097e-11
6.960000e+02 1.263135e-11
6.970000e+02 1.394105e-11
6.980000e+02 1.538316e-11
6.990000e+02 1.696897e-11
7.000000e+02 1.871290e-11
7.010000e+02 2.063016e-11
7.020000e+02 2.273740e-11
7.030000e+02 2.505278e-11
7.040000e+02 2.759616e-11
7.050000e+02 3.038922e-11
7.060000e+02 3.345562e-11
7.070000e+02 3.682118e-11
7.080000e+02 4.051409e-11
7.090000e+02 4.456505e-11
7.100000e+02 4.900763e-11
7.110000e+02 5.387832e-11
7.120000e+02 5.921694e-11
7.130000e+02 6.506690e-11
7.140000e+02 7.147546e-11
7.150000e+02 7.849407e-11
7.160000e+02 8.617880e-11
7.170000e+02 9.459032e-11
7.180000e+02 1.037938e-10
7.190000e+02 1.138670e-10
7.200000e+02 1.248824e-10
7.210000e+02 1.369274e-10
7.220000e+02 1.500949e-10
7.230000e+02 1.644859e-10
7.240000e+02 1.802099e-10
7.250000e+02 1.973861e-10
7.260000e+02 2.161439e-10
7.270000e+02 2.366237e-10
7.280000e+02 2.589778e-10
7.290000e+02 2.833719e-10
7.300000e+02 3.099853e-10
7.310000e+02 3.390129e-10
7.320000e+02 3.706656e-10
7.330000e+02 4.051725e-10
7.340000e+02 4.427815e-10
7.350000e+02 4.837617e-10
7.360000e+02 5.284024e-10
7.370000e+02 5.770248e-10
7.380000e+02 6.299649e-10
7.390000e+02 6.875944e-10
7.400000e+02 7.503134e-10
7.410000e+02 8.185562e-10
7.420000e+02 8.927900e-10
7.430000e+02 9.735232e-10
7.440000e+02 1.061303e-09
7.450000e+02 1.156722e-09
7.460000e+02 1.260422e-09
7.470000e+02 1.373094e-09
7.480000e+02 1.495487e-09
7.490000e+02 1.628408e-09
7.500000e+02 1.772730e-09
7.510000e+02 1.929395e-09
7.520000e+02 2.099419e-09
7.530000e+02 2.283900e-09
7.540000e+02 2.484021e-09
7.550000e+02 2.701061e-09
7.560000e+02 2.936395e-09
7.570000e+02 3.191502e-09
7.580000e+02 3.468004e-09
7.590000e+02 3.767593e-09
7.600000e+02 4.092171e-09
7.610000e+02 4.443708e-09
7.620000e+02 4.824369e-09
7.630000e+02 5.236478e-09
7.640000e+02 5.682537e-09
7.650000e+02 6.165236e-09
7.660000e+02 6.687476e-09
7.670000e+02 7.252370e-09
7.680000e+02 7.863229e-09
7.690000e+02 8.521416e-09
7.700000e+02 9.237797e-09
7.710000e+02 1.000948e-08
7.720000e+02 1.084330e-08
7.730000e+02 1.174408e-08
7.740000e+02 1.271698e-08
7.750000e+02 1.376757e-08
7.760000e+02 1.490158e-08
7.770000e+02 1.612612e-08
7.780000e+02 1.744738e-08
7.790000e+02 1.887295e-08
7.800000e+02 2.041078e-08
7.810000e+02 2.206935e-08
7.820000e+02 2.385779e-08
7.830000e+02 2.578587e-08
7.840000e+02 2.786408e-08
7.850000e+02 3.010367e-08
7.860000e+02 3.251666e-08
7.870000e+02 3.511633e-08
7.880000e+02 3.791584e-08
7.890000e+02 4.093033e-08
7.900000e+02 4.417568e-08
7.910000e+02 4.766887e-08
7.920000e+02 5.142810e-08
7.930000e+02 5.547284e-08
7.940000e+02 5.982393e-08
7.950000e+02 6.450367e-08
7.960000e+02 6.953592e-08
7.970000e+02 7.494620e-08
7.980000e+02 8.076179e-08
7.990000e+02 8.701186e-08
8.000000e+02 9.372761e-08
8.010000e+02 1.009424e-07
8.020000e+02 1.086918e-07
8.030000e+02 1.170138e-07
8.040000e+02 1.259493e-07
8.050000e+02 1.355414e-07
8.060000e+02 1.458368e-07
8.070000e+02 1.568847e-07
8.080000e+02 1.687381e-07
8.090000e+02 1.814534e-07
8.100000e+02 1.950907e-07
8.110000e+02 2.097142e-07
8.120000e+02 2.253925e-07
8.130000e+02 2.421986e-07
8.140000e+02 2.602102e-07
8.150000e+02 2.795105e-07
8.160000e+02 3.001882e-07
8.170000e+02 3.223372e-07
8.180000e+02 3.460584e-07
8.190000e+02 3.714586e-07
8.200000e+02 3.986520e-07
8.210000e+02 4.277602e-07
8.220000e+02 4.589124e-07
8.230000e+02 4.922465e-07
8.240000e+02 5.279090e-07
8.250000e+02 5.660561e-07
8.260000e+02 6.068537e-07
8.270000e+02 6.504786e-07
8.280000e+02 6.971187e-07
8.290000e+02 7.469739e-07
8.300000e+02 8.002569e-07
8.310000e+02 8.571938e-07
8.320000e+02 9.180247e-07
8.330000e+02 9.830052e-07
8.340000e+02 1.052407e-06
8.350000e+02 1.126125e-06
8.360000e+02 1.205631e-06
8.370000e+02 1.290113e-06
8.380000e+02 1.380268e-06
8.390000e+02 1.476478e-06
8.400000e+02 1.579132e-06
8.410000e+02 1.688644e-06
8.420000e+02 1.805406e-06
8.430000e+02 1.930024e-06
8.440000e+02 2.062853e-06
8.450000e+02 2.204465e-06
8.460000e+02 2.355415e-06
8.470000e+02 2.516293e-06
8.480000e+02 2.687727e-06
8.490000e+02 2.870379e-06
8.500000e+02 3.064952e-06
8.510000e+02 3.272194e-06
8.520000e+02 3.492889e-06
8.530000e+02 3.727884e-06
8.540000e+02 3.978089e-06
8.550000e+02 4.244386e-06
8.560000e+02 4.527798e-06
8.570000e+02 4.829380e-06
8.580000e+02 5.147992e-06
8.590000e+02 5.491580e-06
8.600000e+02 5.854630e-06
8.610000e+02 6.240516e-06
8.620000e+02 6.651248e-06
8.630000e+02 7.087696e-06
8.640000e+02 7.551627e-06
8.650000e+02 8.044714e-06
8.660000e+02 8.568698e-06
8.670000e+02 9.125430e-06
8.680000e+02 9.716872e-06
8.690000e+02 1.034510e-05
8.700000e+02 1.101224e-05
8.710000e+02 1.172077e-05
8.720000e+02 1.247298e-05
8.730000e+02 1.327151e-05
8.740000e+02 1.411908e-05
8.750000e+02 1.501857e-05
8.760000e+02 1.597302e-05
8.770000e+02 1.698565e-05
8.780000e+02 1.805984e-05
8.790000e+02 1.919923e-05
8.800000e+02 2.040748e-05
8.810000e+02 2.168876e-05
8.820000e+02 2.304713e-05
8.830000e+02 2.448705e-05
8.840000e+02 2.601324e-05
8.850000e+02 2.763066e-05
8.860000e+02 2.934446e-05
8.870000e+02 3.116019e-05
8.880000e+02 3.308360e-05
8.890000e+02 3.512083e-05
8.900000e+02 3.727833e-05
8.910000e+02 3.956284e-05
8.920000e+02 4.196128e-05
8.930000e+02 4.454197e-05
8.940000e+02 4.725202e-05
8.950000e+02 5.012013e-05
8.960000e+02 5.315504e-05
8.970000e+02 5.636603e-05
8.980000e+02 5.976286e-05
8.990000e+02 6.335587e-05
9.000000e+02 6.715579e-05
9.010000e+02 7.117409e-05
9.020000e+02 7.542261e-05
9.030000e+02 7.991320e-05
9.040000e+02 8.466183e-05
9.050000e+02 8.967992e-05
9.060000e+02 9.498273e-05
9.070000e+02 1.005854e-04
9.080000e+02 1.065054e-04
9.090000e+02 1.127587e-04
9.100000e+02 1.193635e-04
9.110000e+02 1.263391e-04
9.120000e+02 1.337106e-04
9.130000e+02 1.387832e-04
9.140000e+02 1.876354e-04
9.150000e+02 1.034992e+00
9.160000e+02 3.824836e+00
9.170000e+02 2.052519e-01
9.180000e+02 2.987248e+00
9.190000e+02 9.450598e+00
9.200000e+02 1.283793e+01
9.210000e+02 2.174820e-04
9.220000e+02 7.066625e+00
9.230000e+02 3.515859e-01
9.240000e+02 3.838634e-01
9.250000e+02 1.794789e+00
9.260000e+02 7.338599e+00
9.270000e+02 2.230069e-01
9.280000e+02 1.898778e+01
9.290000e+02 1.887002e+01
9.300000e+02 1.935494e+01
9.310000e+02 2.697304e-01
9.320000e+02 2.290514e+01
9.330000e+02 6.376410e+00
9.340000e+02 2.636499e+00
9.350000e+02 2.628782e-02
9.360000e+02 3.979020e-01
9.370000e+02 9.431958e-03
9.380000e+02 1.320807e+00
9.390000e+02 8.308269e-01
9.400000e+02 2.499029e+01
9.410000e+02 1.566055e+00
9.420000e+02 3.314235e+01
9.430000e+02 1.230188e+00
9.440000e+02 3.124025e+01
9.450000e+02 3.629490e+01
9.460000e+02 1.473495e+01
9.470000e+02 6.297970e-02
9.480000e+02 3.462883e+01
9.490000e+02 3.382222e+01
9.500000e+02 1.375079e-01
9.510000e+02 1.310195e+01
9.520000e+02 1.872492e+01
9.530000e+02 2.080019e-01
9.540000e+02 6.516922e-02
9.550000e+02 3.600258e+00
9.560000e+02 5.204571e+01
9.570000e+02 9.511290e-01
9.580000e+02 1.835966e-02
9.590000e+02 5.248433e+01
9.600000e+02 3.212643e-02
9.610000e+02 1.668030e+01
9.620000e+02 6.925041e+00
9.630000e+02 3.280136e+00
9.640000e+02 6.827354e-03
9.650000e+02 1.533966e-01
9.660000e+02 3.751633e+00
9.670000e+02 6.980476e-01
9.680000e+02 3.483391e-01
9.690000e+02 1.586891e+01
9.700000e+02 1.275730e+01
9.710000e+02 7.979831e-01
9.720000e+02 9.022484e-01
9.730000e+02 4.216922e+01
9.740000e+02 1.951512e+01
9.750000e+02 6.084597e+00
9.760000e+02 6.907087e+01
9.770000e+02 4.765531e+01
9.780000e+02 1.870524e+01
9.790000e+02 1.265519e+02
9.800000e+02 1.298629e+02
9.810000e+02 1.909722e+01
9.820000e+02 3.396324e+00
9.830000e+02 1.209855e+02
9.840000e+02 4.507409e+00
9.850000e+02 1.018294e+01
9.860000e+02 1.239277e+01
9.870000e+02 1.411125e+02
9.880000e+02 2.802429e-01
9.890000e+02 4.961973e+01
9.900000e+02 1.128283e+00
9.910000e+02 1.946327e+00
9.920000e+02 6.677097e-02
9.930000e+02 1.807311e+02
9.940000e+02 2.319336e-02
9.950000e+02 9.145546e+00
9.960000e+02 8.743591e-01
9.970000e+02 5.333110e+00
9.980000e+02 1.069950e+02
9.990000e+02 3.186302e+00
1.000000e+03 2.590802e+02
1.001000e+03 2.904977e+02
1.002000e+03 2.672104e+02
1.003000e+03 6.070168e+00
1.004000e+03 4.726257e-01
1.005000e+03 1.519144e+01
1.006000e+03 2.616967e+02
1.007000e+03 3.282473e+02
1.008000e+03 1.976206e+02
1.009000e+03 9.415667e+00
1.010000e+03 2.149622e+02
1.011000e+03 3.128622e+02
1.012000e+03 2.310592e+02
1.013000e+03 2.103157e+02
1.014000e+03 1.512451e-01
1.015000e+03 5.450439e-01
1.016000e+03 1.428976e+01
1.017000e+03 1.454163e-01
1.018000e+03 9.106720e+00
1.019000e+03 5.339355e-01
1.020000e+03 4.675704e+02
1.021000e+03 6.977081e+00
1.022000e+03 1.397076e+01
1.023000e+03 9.831238e-01
1.024000e+03 4.146433e+02
1.025000e+03 1.595764e-01
1.026000e+03 4.497684e+00
1.027000e+03 8.880719e+01
1.028000e+03 4.890442e-01
1.029000e+03 2.645874e-01
1.030000e+03 9.054800e+01
1.031000e+03 6.567203e+01
1.032000e+03 3.996278e+02
1.033000e+03 5.445801e+00
1.034000e+03 1.266424e+02
1.035000e+03 2.768555e-01
1.036000e+03 4.328308e-01
1.037000e+03 4.343458e+02
1.038000e+03 9.110191e+02
1.039000e+03 4.975472e+02
1.040000e+03 5.828106e+02
1.041000e+03 1.096313e+03
1.042000e+03 9.237880e+02
1.043000e+03 7.567533e+02
1.044000e+03 1.287924e+03
1.045000e+03 6.787939e+02
1.046000e+03 7.810699e+02
1.047000e+03 1.924293e+02
1.048000e+03 6.379639e+00
1.049000e+03 2.837204e+02
1.050000e+03 1.230721e+02
1.051000e+03 6.425354e+01
1.052000e+03 1.070945e+03
1.053000e+03 1.503195e+03
1.054000e+03 6.918945e-01
1.055000e+03 1.701648e+03
1.056000e+03 1.734184e+03
1.057000e+03 4.521340e+02
1.058000e+03 8.636452e+01
1.059000e+03 3.292322e+01
1.060000e+03 9.517700e+00
1.061000e+03 6.235675e+02
1.062000e+03 4.055643e+01
1.063000e+03 2.092053e+02
1.064000e+03 5.090332e-01
1.065000e+03 1.148560e+00
1.066000e+03 8.049128e+02
1.067000e+03 2.198284e+01
1.068000e+03 2.701668e+03
1.069000e+03 5.443752e+00
1.070000e+03 5.172764e+02
1.071000e+03 2.486811e+03
1.072000e+03 2.658805e+03
1.073000e+03 2.228760e+00
1.074000e+03 4.544353e+02
1.075000e+03 2.808027e+02
1.076000e+03 3.050722e+03
1.077000e+03 1.095013e+01
1.078000e+03 8.605566e+01
1.079000e+03 3.520814e+02
1.080000e+03 7.218736e+02
1.081000e+03 1.666430e+03
1.082000e+03 1.335317e+03
1.083000e+03 8.591162e+02
1.084000e+03 4.375819e+03
1.085000e+03 2.772871e+02
1.086000e+03 4.441761e+03
1.087000e+03 5.155664e+01
1.088000e+03 5.050554e+03
1.089000e+03 5.164657e+03
1.090000e+03 2.131716e+02
1.091000e+03 2.492163e+02
1.092000e+03 5.219338e+03
1.093000e+03 5.425084e+03
1.094000e+03 2.053886e+03
1.095000e+03 6.079400e+03
1.096000e+03 7.025366e+02
1.097000e+03 3.376744e+03
1.098000e+03 6.494749e+03
1.099000e+03 8.515454e+02
1.100000e+03 1.864197e+01
1.101000e+03 5.088899e+01
1.102000e+03 3.815112e+02
1.103000e+03 7.409495e+03
1.104000e+03 8.227504e+03
1.105000e+03 7.558610e+03
1.106000e+03 1.749292e+03
1.107000e+03 1.948730e+01
1.108000e+03 5.278972e+03
1.109000e+03 2.078442e+02
1.110000e+03 8.511498e+03
1.111000e+03 8.053270e+03
1.112000e+03 3.595110e+03
1.113000e+03 8.075055e+03
1.114000e+03 2.423722e+03
1.115000e+03 3.601995e+02
1.116000e+03 2.069470e+02
1.117000e+03 7.450112e+03
1.118000e+03 3.201870e+02
1.119000e+03 4.938247e+03
1.120000e+03 2.108154e+02
1.121000e+03 8.539505e+03
1.122000e+03 9.151104e+02
1.123000e+03 1.020077e+04
1.124000e+03 1.064862e+04
1.125000e+03 7.960630e+03
1.126000e+03 1.383053e+04
1.127000e+03 1.110658e+04
1.128000e+03 8.182425e+03
1.129000e+03 7.173513e+03
1.130000e+03 1.292213e+04
1.131000e+03 1.313967e+04
1.132000e+03 3.309717e+02
1.133000e+03 1.043046e+03
1.134000e+03 7.502142e+03
1.135000e+03 1.917764e+03
1.136000e+03 2.578524e+03
1.137000e+03 1.437268e+04
1.138000e+03 7.132953e+03
1.139000e+03 1.692730e+04
1.140000e+03 8.499139e+03
1.141000e+03 1.650906e+04
1.142000e+03 1.836507e+04
1.143000e+03 1.188233e+04
1.144000e+03 1.901643e+04
1.145000e+03 1.322461e+02
1.146000e+03 2.038486e+04
1.147000e+03 1.949119e+04
1.148000e+03 8.652500e+02
1.149000e+03 1.756697e+04
1.150000e+03 1.374536e+04
1.151000e+03 2.232301e+04
1.152000e+03 2.102476e+04
1.153000e+03 2.049187e+04
1.154000e+03 2.358922e+04
1.155000e+03 1.740828e+04
1.156000e+03 2.461371e+04
1.157000e+03 2.366289e+04
1.158000e+03 1.279720e+04
1.159000e+03 2.485636e+04
1.160000e+03 1.229497e+04
1.161000e+03 2.554944e+04
1.162000e+03 3.072707e+03
1.163000e+03 7.404891e+03
1.164000e+03 6.877344e+01
1.165000e+03 2.564577e+04
1.166000e+03 2.185637e+04
1.167000e+03 2.212471e+04
1.168000e+03 3.083067e+04
1.169000e+03 3.120251e+04
1.170000e+03 2.171634e+04
1.171000e+03 2.953503e+04
1.172000e+03 1.695402e+04
1.173000e+03 3.370216e+04
1.174000e+03 7.430840e+02
1.175000e+03 5.027930e+01
1.176000e+03 2.389648e+01
1.177000e+03 3.738939e+04
1.178000e+03 3.807139e+04
1.179000e+03 3.722822e+04
1.180000e+03 2.487432e+04
1.181000e+03 3.999617e+04
1.182000e+03 3.879427e+04
1.183000e+03 3.076762e+04
1.184000e+03 2.796476e+04
1.185000e+03 3.450868e+04
1.186000e+03 3.996158e+03
1.187000e+03 3.894384e+04
1.188000e+03 2.163453e+04
1.189000e+03 2.352079e+04
1.190000e+03 4.637593e+04
1.191000e+03 3.985296e+04
1.192000e+03 4.614894e+04
1.193000e+03 4.433000e+03
1.194000e+03 2.647239e+04
1.195000e+03 4.649058e+04
1.196000e+03 4.702083e+04
1.197000e+03 6.920813e+04
1.198000e+03 1.001273e+04
1.199000e+03 6.904398e+04
1.200000e+03 1.914373e+04
1.201000e+03 6.705984e+04
1.202000e+03 4.319910e+04
1.203000e+03 7.430333e+04
1.204000e+03 1.650591e+04
1.205000e+03 6.577685e+04
1.206000e+03 6.867025e+04
1.207000e+03 9.179008e+03
1.208000e+03 5.360655e+04
1.209000e+03 4.647606e+04
1.210000e+03 8.514063e+01
1.211000e+03 2.657157e+04
1.212000e+03 1.359660e+04
1.213000e+03 7.861263e+03
1.214000e+03 2.247876e+03
1.215000e+03 2.046867e+02
1.216000e+03 7.879974e+01
1.217000e+03 1.258909e+03
1.218000e+03 6.244396e+03
1.219000e+03 1.491120e+04
1.220000e+03 1.336820e+04
1.221000e+03 4.206164e+04
1.222000e+03 5.219082e+04
1.223000e+03 6.124925e+04
1.224000e+03 7.557370e+04
1.225000e+03 1.152923e+04
1.226000e+03 1.121458e+05
1.227000e+03 1.193012e+05
1.228000e+03 4.893491e+04
1.229000e+03 1.225794e+05
1.230000e+03 1.124960e+05
1.231000e+03 3.702850e+04
1.232000e+03 1.631754e+05
1.233000e+03 1.734291e+05
1.234000e+03 1.302278e+05
1.235000e+03 1.788145e+05
1.236000e+03 6.621806e+04
1.237000e+03 1.957385e+05
1.238000e+03 1.925139e+05
1.239000e+03 1.747875e+05
1.240000e+03 9.298343e+04
1.241000e+03 1.652255e+05
1.242000e+03 2.066454e+05
1.243000e+03 2.267302e+05
1.244000e+03 2.355056e+05
1.245000e+03 2.346855e+05
1.246000e+03 2.219160e+05
1.247000e+03 2.354199e+05
1.248000e+03 1.996436e+05
1.249000e+03 2.650517e+05
1.250000e+03 1.873406e+05
1.251000e+03 2.751316e+05
1.252000e+03 2.579180e+05
1.253000e+03 2.870409e+05
1.254000e+03 2.770858e+05
1.255000e+03 2.931444e+05
1.256000e+03 2.815326e+05
1.257000e+03 2.426421e+05
1.258000e+03 2.388918e+05
1.259000e+03 2.905380e+05
1.260000e+03 3.290343e+05
1.261000e+03 1.612456e+04
1.262000e+03 3.452372e+05
1.263000e+03 3.375424e+05
1.264000e+03 2.897970e+05
1.265000e+03 1.098094e+03
1.266000e+03 3.673366e+05
1.267000e+03 3.224689e+05
