# wavelength_A flux
5.000000e+02 1.074311e-34
5.010000e+02 1.376139e-34
5.020000e+02 1.760992e-34
5.030000e+02 2.251220e-34
5.040000e+02 2.875059e-34
5.050000e+02 3.669931e-34
5.060000e+02 4.677598e-34
5.070000e+02 5.956079e-34
5.080000e+02 7.576726e-34
5.090000e+02 9.629004e-34
5.100000e+02 1.222053e-33
5.110000e+02 1.550724e-33
5.120000e+02 1.965123e-33
5.130000e+02 2.487953e-33
5.140000e+02 3.146914e-33
5.150000e+02 3.976705e-33
5.160000e+02 5.020648e-33
5.170000e+02 6.332821e-33
5.180000e+02 7.980630e-33
5.190000e+02 1.004806e-32
5.200000e+02 1.263964e-32
5.210000e+02 1.588535e-32
5.220000e+02 1.994661e-32
5.230000e+02 2.502411e-32
5.240000e+02 3.136630e-32
5.250000e+02 3.928134e-32
5.260000e+02 4.915074e-32
5.270000e+02 6.144643e-32
5.280000e+02 7.675178e-32
5.290000e+02 9.578717e-32
5.300000e+02 1.194416e-31
5.310000e+02 1.488110e-31
5.320000e+02 1.852458e-31
5.330000e+02 2.304077e-31
5.340000e+02 2.863408e-31
5.350000e+02 3.555571e-31
5.360000e+02 4.411405e-31
5.370000e+02 5.468214e-31
5.380000e+02 6.774003e-31
5.390000e+02 8.383980e-31
5.400000e+02 1.036823e-30
5.410000e+02 1.281181e-30
5.420000e+02 1.581868e-30
5.430000e+02 1.951575e-30
5.440000e+02 2.405790e-30
5.450000e+02 2.963394e-30
5.460000e+02 3.647390e-30
5.470000e+02 4.485782e-30
5.480000e+02 5.512630e-30
5.490000e+02 6.769341e-30
5.500000e+02 8.306200e-30
5.510000e+02 1.018424e-29
5.520000e+02 1.247749e-29
5.530000e+02 1.527565e-29
5.540000e+02 1.868736e-29
5.550000e+02 2.284408e-29
5.560000e+02 2.790479e-29
5.570000e+02 3.406157e-29
5.580000e+02 4.154640e-29
5.590000e+02 5.063916e-29
5.600000e+02 6.167734e-29
5.610000e+02 7.506763e-29
5.620000e+02 9.129967e-29
5.630000e+02 1.109627e-28
5.640000e+02 1.347651e-28
5.650000e+02 1.635582e-28
5.660000e+02 1.983642e-28
5.670000e+02 2.404098e-28
5.680000e+02 2.911656e-28
5.690000e+02 3.523945e-28
5.700000e+02 4.262069e-28
5.710000e+02 5.151290e-28
5.720000e+02 6.221815e-28
5.730000e+02 7.509748e-28
5.740000e+02 9.058211e-28
5.750000e+02 1.091867e-27
5.760000e+02 1.315251e-27
5.770000e+02 1.583292e-27
5.780000e+02 1.904707e-27
5.790000e+02 2.289874e-27
5.800000e+02 2.751140e-27
5.810000e+02 3.303185e-27
5.820000e+02 3.963454e-27
5.830000e+02 4.752662e-27
5.840000e+02 5.695389e-27
5.850000e+02 6.820798e-27
5.860000e+02 8.163442e-27
5.870000e+02 9.764256e-27
5.880000e+02 1.167170e-26
5.890000e+02 1.394312e-26
5.900000e+02 1.664629e-26
5.910000e+02 1.986134e-26
5.920000e+02 2.368286e-26
5.930000e+02 2.822253e-26
5.940000e+02 3.361206e-26
5.950000e+02 4.000672e-26
5.960000e+02 4.758948e-26
5.970000e+02 5.657575e-26
5.980000e+02 6.721905e-26
5.990000e+02 7.981754e-26
6.000000e+02 9.472174e-26
6.010000e+02 1.123434e-25
6.020000e+02 1.331660e-25
6.030000e+02 1.577568e-25
6.040000e+02 1.867812e-25
6.050000e+02 2.210191e-25
6.060000e+02 2.613843e-25
6.070000e+02 3.089464e-25
6.080000e+02 3.649573e-25
6.090000e+02 4.308811e-25
6.100000e+02 5.084293e-25
6.110000e+02 5.996014e-25
6.120000e+02 7.067321e-25
6.130000e+02 8.325460e-25
6.140000e+02 9.802215e-25
6.150000e+02 1.153463e-24
6.160000e+02 1.356588e-24
6.170000e+02 1.594624e-24
6.180000e+02 1.873423e-24
6.190000e+02 2.199791e-24
6.200000e+02 2.581644e-24
6.210000e+02 3.028181e-24
6.220000e+02 3.550085e-24
6.230000e+02 4.159763e-24
6.240000e+02 4.871606e-24
6.250000e+02 5.702307e-24
6.260000e+02 6.671216e-24
6.270000e+02 7.800754e-24
6.280000e+02 9.116880e-24
6.290000e+02 1.064964e-23
6.300000e+02 1.243381e-23
6.310000e+02 1.450957e-23
6.320000e+02 1.692340e-23
6.330000e+02 1.972894e-23
6.340000e+02 2.298817e-23
6.350000e+02 2.677260e-23
6.360000e+02 3.116473e-23
6.370000e+02 3.625964e-23
6.380000e+02 4.216694e-23
6.390000e+02 4.901289e-23
6.400000e+02 5.694283e-23
6.410000e+02 6.612401e-23
6.420000e+02 7.674885e-23
6.430000e+02 8.903854e-23
6.440000e+02 1.032473e-22
6.450000e+02 1.196670e-22
6.460000e+02 1.386331e-22
6.470000e+02 1.605301e-22
6.480000e+02 1.857994e-22
6.490000e+02 2.149470e-22
6.500000e+02 2.485527e-22
6.510000e+02 2.872809e-22
6.520000e+02 3.318921e-22
6.530000e+02 3.832569e-22
6.540000e+02 4.423712e-22
6.550000e+02 5.103739e-22
6.560000e+02 5.885667e-22
6.570000e+02 6.784368e-22
6.580000e+02 7.816828e-22
6.590000e+02 9.002434e-22
6.600000e+02 1.036331e-21
6.610000e+02 1.192469e-21
6.620000e+02 1.371534e-21
6.630000e+02 1.576805e-21
6.640000e+02 1.812015e-21
6.650000e+02 2.081417e-21
6.660000e+02 2.389851e-21
6.670000e+02 2.742822e-21
6.680000e+02 3.146593e-21
6.690000e+02 3.608280e-21
6.700000e+02 4.135972e-21
6.710000e+02 4.738856e-21
6.720000e+02 5.427360e-21
6.730000e+02 6.213322e-21
6.740000e+02 7.110172e-21
6.750000e+02 8.133135e-21
6.760000e+02 9.299475e-21
6.770000e+02 1.062875e-20
6.780000e+02 1.214311e-20
6.790000e+02 1.386765e-20
6.800000e+02 1.583074e-20
6.810000e+02 1.806451e-20
6.820000e+02 2.060527e-20
6.830000e+02 2.349407e-20
6.840000e+02 2.677732e-20
6.850000e+02 3.050742e-20
6.860000e+02 3.474354e-20
6.870000e+02 3.955247e-20
6.880000e+02 4.500958e-20
6.890000e+02 5.119986e-20
6.900000e+02 5.821914e-20
6.910000e+02 6.617543e-20
6.920000e+02 7.519041e-20
6.930000e+02 8.540111e-20
6.940000e+02 9.696179e-20
6.950000e+02 1.100461e-19
6.960000e+02 1.248493e-19
6.970000e+02 1.415911e-19
6.980000e+02 1.605184e-19
6.990000e+02 1.819085e-19
7.000000e+02 2.060733e-19
7.010000e+02 2.333627e-19
7.020000e+02 2.641697e-19
7.030000e+02 2.989350e-19
7.040000e+02 3.381534e-19
7.050000e+02 3.823793e-19
7.060000e+02 4.322345e-19
7.070000e+02 4.884157e-19
7.080000e+02 5.517033e-19
7.090000e+02 6.229710e-19
7.100000e+02 7.031974e-19
7.110000e+02 7.934770e-19
7.120000e+02 8.950344e-19
7.130000e+02 1.009239e-18
7.140000e+02 1.137623e-18
7.150000e+02 1.281896e-18
7.160000e+02 1.443969e-18
7.170000e+02 1.625979e-18
7.180000e+02 1.830306e-18
7.190000e+02 2.059613e-18
7.200000e+02 2.316865e-18
7.210000e+02 2.605374e-18
7.220000e+02 2.928828e-18
7.230000e+02 3.291342e-18
7.240000e+02 3.697499e-18
7.250000e+02 4.152402e-18
7.260000e+02 4.661739e-18
7.270000e+02 5.231835e-18
7.280000e+02 5.869734e-18
7.290000e+02 6.583270e-18
7.300000e+02 7.381154e-18
7.310000e+02 8.273074e-18
7.320000e+02 9.269795e-18
7.330000e+02 1.038328e-17
7.340000e+02 1.162681e-17
7.350000e+02 1.301514e-17
7.360000e+02 1.456466e-17
7.370000e+02 1.629352e-17
7.380000e+02 1.822190e-17
7.390000e+02 2.037215e-17
7.400000e+02 2.276906e-17
7.410000e+02 2.544012e-17
7.420000e+02 2.841576e-17
7.430000e+02 3.172972e-17
7.440000e+02 3.541934e-17
7.450000e+02 3.952597e-17
7.460000e+02 4.409536e-17
7.470000e+02 4.917815e-17
7.480000e+02 5.483035e-17
7.490000e+02 6.111386e-17
7.500000e+02 6.809714e-17
7.510000e+02 7.585584e-17
7.520000e+02 8.447356e-17
7.530000e+02 9.404258e-17
7.540000e+02 1.046649e-16
7.550000e+02 1.164529e-16
7.560000e+02 1.295309e-16
7.570000e+02 1.440357e-16
7.580000e+02 1.601186e-16
7.590000e+02 1.779462e-16
7.600000e+02 1.977020e-16
7.610000e+02 2.195884e-16
7.620000e+02 2.438284e-16
7.630000e+02 2.706677e-16
7.640000e+02 3.003765e-16
7.650000e+02 3.332526e-16
7.660000e+02 3.696236e-16
7.670000e+02 4.098499e-16
7.680000e+02 4.543280e-16
7.690000e+02 5.034937e-16
7.700000e+02 5.578264e-16
7.710000e+02 6.178527e-16
7.720000e+02 6.841514e-16
7.730000e+02 7.573582e-16
7.740000e+02 8.381711e-16
7.750000e+02 9.273568e-16
7.760000e+02 1.025756e-15
7.770000e+02 1.134293e-15
7.780000e+02 1.253979e-15
7.790000e+02 1.385926e-15
7.800000e+02 1.531351e-15
7.810000e+02 1.691589e-15
7.820000e+02 1.868103e-15
7.830000e+02 2.062497e-15
7.840000e+02 2.276526e-15
7.850000e+02 2.512112e-15
7.860000e+02 2.771361e-15
7.870000e+02 3.056576e-15
7.880000e+02 3.370280e-15
7.890000e+02 3.715229e-15
7.900000e+02 4.094442e-15
7.910000e+02 4.511215e-15
7.920000e+02 4.969155e-15
7.930000e+02 5.472204e-15
7.940000e+02 6.024667e-15
7.950000e+02 6.631249e-15
7.960000e+02 7.297086e-15
7.970000e+02 8.027788e-15
7.980000e+02 8.829477e-15
7.990000e+02 9.708838e-15
8.000000e+02 1.067316e-14
8.010000e+02 1.173040e-14
8.020000e+02 1.288922e-14
8.030000e+02 1.415910e-14
8.040000e+02 1.555032e-14
8.050000e+02 1.707414e-14
8.060000e+02 1.874279e-14
8.070000e+02 2.056960e-14
8.080000e+02 2.256909e-14
8.090000e+02 2.475708e-14
8.100000e+02 2.715078e-14
8.110000e+02 2.976892e-14
8.120000e+02 3.263187e-14
8.130000e+02 3.576181e-14
8.140000e+02 3.918285e-14
8.150000e+02 4.292120e-14
8.160000e+02 4.700537e-14
8.170000e+02 5.146632e-14
8.180000e+02 5.633773e-14
8.190000e+02 6.165615e-14
8.200000e+02 6.746129e-14
8.210000e+02 7.379628e-14
8.220000e+02 8.070794e-14
8.230000e+02 8.824708e-14
8.240000e+02 9.646884e-14
8.250000e+02 1.054331e-13
8.260000e+02 1.152046e-13
8.270000e+02 1.258539e-13
8.280000e+02 1.374573e-13
8.290000e+02 1.500974e-13
8.300000e+02 1.638639e-13
8.310000e+02 1.788540e-13
8.320000e+02 1.951728e-13
8.330000e+02 2.129344e-13
8.340000e+02 2.322623e-13
8.350000e+02 2.532899e-13
8.360000e+02 2.761621e-13
8.370000e+02 3.010352e-13
8.380000e+02 3.280788e-13
8.390000e+02 3.574759e-13
8.400000e+02 3.894248e-13
8.410000e+02 4.241397e-13
8.420000e+02 4.618523e-13
8.430000e+02 5.028130e-13
8.440000e+02 5.472923e-13
8.450000e+02 5.955827e-13
8.460000e+02 6.479998e-13
8.470000e+02 7.048848e-13
8.480000e+02 7.666061e-13
8.490000e+02 8.335611e-13
8.500000e+02 9.061792e-13
8.510000e+02 9.849234e-13
8.520000e+02 1.070293e-12
8.530000e+02 1.162829e-12
8.540000e+02 1.263110e-12
8.550000e+02 1.371765e-12
8.560000e+02 1.489469e-12
8.570000e+02 1.616951e-12
8.580000e+02 1.754996e-12
8.590000e+02 1.904450e-12
8.600000e+02 2.066225e-12
8.610000e+02 2.241302e-12
8.620000e+02 2.430739e-12
8.630000e+02 2.635674e-12
8.640000e+02 2.857332e-12
8.650000e+02 3.097033e-12
8.660000e+02 3.356195e-12
8.670000e+02 3.636346e-12
8.680000e+02 3.939128e-12
8.690000e+02 4.266308e-12
8.700000e+02 4.619784e-12
8.710000e+02 5.001600e-12
8.720000e+02 5.413951e-12
8.730000e+02 5.859195e-12
8.740000e+02 6.339868e-12
8.750000e+02 6.858693e-12
8.760000e+02 7.418595e-12
8.770000e+02 8.022717e-12
8.780000e+02 8.674431e-12
8.790000e+02 9.377358e-12
8.800000e+02 1.013539e-11
8.810000e+02 1.095269e-11
8.820000e+02 1.183374e-11
8.830000e+02 1.278334e-11
8.840000e+02 1.380663e-11
8.850000e+02 1.490916e-11
8.860000e+02 1.609683e-11
8.870000e+02 1.737600e-11
8.880000e+02 1.875347e-11
8.890000e+02 2.023654e-11
8.900000e+02 2.183302e-11
8.910000e+02 2.355128e-11
8.920000e+02 2.540030e-11
8.930000e+02 2.738968e-11
8.940000e+02 2.952970e-11
8.950000e+02 3.183137e-11
8.960000e+02 3.430648e-11
8.970000e+02 3.696765e-11
8.980000e+02 3.982838e-11
8.990000e+02 4.290309e-11
9.000000e+02 4.620725e-11
9.010000e+02 4.975738e-11
9.020000e+02 5.357114e-11
9.030000e+02 5.766743e-11
9.040000e+02 6.206644e-11
9.050000e+02 6.678975e-11
9.060000e+02 7.186045e-11
9.070000e+02 7.730316e-11
9.080000e+02 8.314423e-11
9.090000e+02 8.941178e-11
9.100000e+02 9.613585e-11
9.110000e+02 1.033485e-10
9.120000e+02 1.110840e-10
9.130000e+02 1.193789e-10
9.140000e+02 1.302558e-10
9.150000e+02 2.687910e-08
9.160000e+02 1.568137e-07
9.170000e+02 2.638514e-09
9.180000e+02 3.475714e-08
9.190000e+02 4.359498e-07
9.200000e+02 1.163736e-06
9.210000e+02 2.111537e-10
9.220000e+02 4.371770e-07
9.230000e+02 3.223234e-09
9.240000e+02 3.919013e-09
9.250000e+02 5.580399e-08
9.260000e+02 5.056404e-08
9.270000e+02 3.859990e-09
9.280000e+02 6.334245e-06
9.290000e+02 6.459201e-06
9.300000e+02 1.521011e-06
9.310000e+02 5.838952e-09
9.320000e+02 5.285942e-06
9.330000e+02 4.069107e-07
9.340000e+02 9.312316e-08
9.350000e+02 1.442692e-08
9.360000e+02 1.373429e-08
9.370000e+02 2.700992e-09
9.380000e+02 1.133127e-08
9.390000e+02 4.804765e-08
9.400000e+02 4.419186e-06
9.410000e+02 6.104751e-07
9.420000e+02 2.203254e-05
9.430000e+02 7.380686e-08
9.440000e+02 2.501485e-05
9.450000e+02 2.209457e-05
9.460000e+02 1.389664e-06
9.470000e+02 1.826123e-09
9.480000e+02 6.395565e-06
9.490000e+02 8.651100e-07
9.500000e+02 2.167441e-08
9.510000e+02 1.198480e-06
9.520000e+02 2.991472e-06
9.530000e+02 1.602805e-08
9.540000e+02 2.407395e-09
9.550000e+02 1.788030e-07
9.560000e+02 2.524613e-05
9.570000e+02 8.892994e-08
9.580000e+02 2.604281e-09
9.590000e+02 8.143795e-06
9.600000e+02 4.336897e-08
9.610000e+02 2.184936e-06
9.620000e+02 7.196267e-07
9.630000e+02 9.130054e-08
9.640000e+02 2.428533e-08
9.650000e+02 6.464688e-09
9.660000e+02 1.906119e-07
9.670000e+02 3.011792e-08
9.680000e+02 2.104935e-08
9.690000e+02 1.215564e-06
9.700000e+02 2.124622e-06
9.710000e+02 5.163268e-08
9.720000e+02 1.980305e-08
9.730000e+02 2.156562e-07
9.740000e+02 1.838840e-06
9.750000e+02 4.489521e-07
9.760000e+02 2.289192e-05
9.770000e+02 9.916945e-06
9.780000e+02 3.797550e-06
9.790000e+02 1.317346e-04
9.800000e+02 1.066789e-04
9.810000e+02 2.041343e-06
9.820000e+02 3.392670e-07
9.830000e+02 8.197578e-05
9.840000e+02 4.563075e-06
9.850000e+02 8.533510e-07
9.860000e+02 1.515558e-06
9.870000e+02 7.944645e-05
9.880000e+02 2.464003e-08
9.890000e+02 1.335652e-05
9.900000e+02 5.087004e-05
9.910000e+02 3.965811e-07
9.920000e+02 2.196485e-08
9.930000e+02 2.599944e-04
9.940000e+02 3.994978e-08
9.950000e+02 9.518176e-06
9.960000e+02 9.266660e-08
9.970000e+02 2.104396e-05
9.980000e+02 5.691603e-05
9.990000e+02 6.557058e-07
1.000000e+03 4.866449e-04
1.001000e+03 3.780646e-04
1.002000e+03 2.730498e-04
1.003000e+03 6.439514e-07
1.004000e+03 5.142647e-08
1.005000e+03 2.760033e-06
1.006000e+03 1.912249e-04
1.007000e+03 3.567078e-04
1.008000e+03 9.699594e-05
1.009000e+03 1.022724e-06
1.010000e+03 9.400782e-05
1.011000e+03 1.158781e-04
1.012000e+03 1.460592e-04
1.013000e+03 1.384807e-04
1.014000e+03 8.071947e-08
1.015000e+03 1.012158e-07
1.016000e+03 3.927227e-06
1.017000e+03 9.583891e-08
1.018000e+03 9.839132e-07
1.019000e+03 1.141452e-07
1.020000e+03 2.401069e-04
1.021000e+03 2.482207e-06
1.022000e+03 3.503315e-06
1.023000e+03 2.047163e-07
1.024000e+03 3.654866e-05
1.025000e+03 1.512001e-07
1.026000e+03 2.290422e-07
1.027000e+03 1.001376e-05
1.028000e+03 1.280838e-06
1.029000e+03 1.894223e-07
1.030000e+03 1.376233e-05
1.031000e+03 3.836479e-05
1.032000e+03 5.804874e-04
1.033000e+03 1.098399e-05
1.034000e+03 4.547294e-05
1.035000e+03 9.480573e-07
1.036000e+03 2.802844e-07
1.037000e+03 4.396966e-04
1.038000e+03 3.230687e-03
1.039000e+03 4.887162e-04
1.040000e+03 3.558995e-04
1.041000e+03 3.023180e-03
1.042000e+03 1.870158e-03
1.043000e+03 2.158527e-03
1.044000e+03 1.023245e-02
1.045000e+03 7.605831e-07
1.046000e+03 3.568672e-04
1.047000e+03 1.480924e-04
1.048000e+03 2.172776e-06
1.049000e+03 1.274887e-04
1.050000e+03 2.873543e-05
1.051000e+03 1.529558e-05
1.052000e+03 2.672954e-03
1.053000e+03 4.682059e-03
1.054000e+03 7.435447e-07
1.055000e+03 5.733481e-03
1.056000e+03 6.752273e-03
1.057000e+03 4.876237e-04
1.058000e+03 1.405061e-05
1.059000e+03 1.502503e-05
1.060000e+03 3.459631e-06
1.061000e+03 9.720977e-04
1.062000e+03 7.547042e-06
1.063000e+03 6.765583e-04
1.064000e+03 1.860783e-06
1.065000e+03 1.328532e-06
1.066000e+03 1.477074e-03
1.067000e+03 1.229454e-05
1.068000e+03 1.730169e-02
1.069000e+03 3.027557e-06
1.070000e+03 1.569800e-04
1.071000e+03 3.769020e-03
1.072000e+03 1.873957e-02
1.073000e+03 2.021901e-06
1.074000e+03 5.540852e-04
1.075000e+03 2.986453e-04
1.076000e+03 2.067250e-02
1.077000e+03 1.190370e-05
1.078000e+03 2.171472e-05
1.079000e+03 1.122845e-04
1.080000e+03 6.100094e-04
1.081000e+03 4.059064e-03
1.082000e+03 1.932332e-03
1.083000e+03 9.084120e-04
1.084000e+03 5.841622e-02
1.085000e+03 1.838226e-04
1.086000e+03 3.040042e-02
1.087000e+03 3.401190e-05
1.088000e+03 6.565068e-02
1.089000e+03 7.279343e-02
1.090000e+03 1.431682e-04
1.091000e+03 2.359301e-04
1.092000e+03 5.531996e-02
1.093000e+03 7.889248e-02
1.094000e+03 2.225098e-03
1.095000e+03 1.096806e-01
1.096000e+03 5.627298e-03
1.097000e+03 1.875918e-02
1.098000e+03 8.828930e-02
1.099000e+03 5.673617e-04
1.100000e+03 1.031067e-05
1.101000e+03 2.594229e-05
1.102000e+03 4.054269e-04
1.103000e+03 1.039759e-01
1.104000e+03 1.266902e-01
1.105000e+03 1.232008e-01
1.106000e+03 2.290852e-03
1.107000e+03 1.886860e-05
1.108000e+03 2.174477e-02
1.109000e+03 2.304241e-04
1.110000e+03 1.433309e-01
1.111000e+03 7.616890e-02
1.112000e+03 8.201700e-03
1.113000e+03 1.118725e-01
1.114000e+03 4.296929e-03
1.115000e+03 2.641298e-04
1.116000e+03 8.143113e-05
1.117000e+03 9.468227e-02
1.118000e+03 4.043607e-04
1.119000e+03 8.430582e-03
1.120000e+03 1.371577e-04
1.121000e+03 5.438570e-02
1.122000e+03 3.355702e-01
1.123000e+03 1.405107e-01
1.124000e+03 1.728089e-01
1.125000e+03 6.602892e-02
1.126000e+03 5.746711e-01
1.127000e+03 7.627225e-02
1.128000e+03 2.475876e-01
1.129000e+03 3.112830e-02
1.130000e+03 2.308468e-01
1.131000e+03 2.681232e-01
1.132000e+03 2.575899e-04
1.133000e+03 2.748996e-03
1.134000e+03 4.427877e-02
1.135000e+03 2.582970e-01
1.136000e+03 5.692244e-03
1.137000e+03 1.465193e-01
1.138000e+03 3.280962e-02
1.139000e+03 2.719022e-01
1.140000e+03 2.300792e-01
1.141000e+03 2.591324e-01
1.142000e+03 2.995091e-01
1.143000e+03 3.645638e-02
1.144000e+03 2.977489e-01
1.145000e+03 1.595467e-04
1.146000e+03 3.162078e-01
1.147000e+03 2.760907e-01
1.148000e+03 1.334757e-03
1.149000e+03 1.567121e-01
1.150000e+03 1.189378e-01
1.151000e+03 2.910532e-01
1.152000e+03 1.717668e-01
1.153000e+03 2.726724e-01
1.154000e+03 3.180828e-01
1.155000e+03 1.505930e-01
1.156000e+03 2.369097e-01
1.157000e+03 2.803345e-01
1.158000e+03 4.488698e-02
1.159000e+03 2.763304e-01
1.160000e+03 6.654938e-02
1.161000e+03 2.454259e-01
1.162000e+03 6.468579e-03
1.163000e+03 2.743550e-02
1.164000e+03 1.006112e-03
1.165000e+03 1.194306e-01
1.166000e+03 6.768168e-02
1.167000e+03 5.335233e-02
1.168000e+03 2.989294e-01
1.169000e+03 3.207057e-01
1.170000e+03 4.132900e-02
1.171000e+03 1.465358e-01
1.172000e+03 7.922508e-02
1.173000e+03 1.100590e-01
1.174000e+03 1.011822e-03
1.175000e+03 6.456487e-04
1.176000e+03 2.890602e-04
1.177000e+03 4.058592e-01
1.178000e+03 3.877876e-01
1.179000e+03 3.518850e-01
1.180000e+03 1.969245e-01
1.181000e+03 3.366521e-01
1.182000e+03 3.093370e-01
1.183000e+03 1.851925e-01
1.184000e+03 1.567804e-01
1.185000e+03 1.810903e-01
1.186000e+03 5.480008e-03
1.187000e+03 2.474792e-01
1.188000e+03 1.238850e-01
1.189000e+03 2.686258e-01
1.190000e+03 2.599145e-01
1.191000e+03 2.216094e-01
1.192000e+03 2.225427e-01
1.193000e+03 1.929997e-01
1.194000e+03 2.149311e-01
1.195000e+03 2.043234e-01
1.196000e+03 2.091785e+00
1.197000e+03 3.135502e+00
1.198000e+03 1.868671e-02
1.199000e+03 2.622220e+00
1.200000e+03 7.463664e-02
1.201000e+03 1.920073e+00
1.202000e+03 6.015506e-01
1.203000e+03 1.323465e+00
1.204000e+03 8.531207e-02
1.205000e+03 8.638270e-01
1.206000e+03 7.244442e-01
1.207000e+03 1.246301e-01
1.208000e+03 3.813925e-01
1.209000e+03 2.971899e-01
1.210000e+03 1.410499e-03
1.211000e+03 1.160149e-01
1.212000e+03 5.369015e-02
1.213000e+03 2.681004e-02
1.214000e+03 8.143002e-03
1.215000e+03 1.479047e-03
1.216000e+03 1.268415e-03
1.217000e+03 5.193082e-03
1.218000e+03 2.233863e-02
1.219000e+03 5.895096e-02
1.220000e+03 6.001125e-02
1.221000e+03 2.351176e-01
1.222000e+03 3.535489e-01
1.223000e+03 4.013202e-01
1.224000e+03 7.868356e-01
1.225000e+03 3.528774e-02
1.226000e+03 1.674012e+00
1.227000e+03 2.188191e+00
1.228000e+03 3.407941e-01
1.229000e+03 2.825330e+00
1.230000e+03 2.183113e+00
1.231000e+03 1.703472e-01
1.232000e+03 6.050019e+00
1.233000e+03 7.171213e+00
1.234000e+03 7.254692e+00
1.235000e+03 7.646199e+00
1.236000e+03 6.204715e-01
1.237000e+03 1.096465e+01
1.238000e+03 1.081060e+01
1.239000e+03 4.422567e+00
1.240000e+03 4.721794e+00
1.241000e+03 5.578416e+00
1.242000e+03 1.167467e+01
1.243000e+03 1.721580e+01
1.244000e+03 1.884480e+01
1.245000e+03 1.854115e+01
1.246000e+03 1.089827e+01
1.247000e+03 1.586058e+01
1.248000e+03 1.758972e+01
1.249000e+03 2.503299e+01
1.250000e+03 1.550981e+01
1.251000e+03 2.572737e+01
1.252000e+03 2.010189e+01
1.253000e+03 2.793811e+01
1.254000e+03 2.202087e+01
1.255000e+03 6.393189e+00
1.256000e+03 1.631290e+01
1.257000e+03 1.557740e+01
1.258000e+03 8.931822e+00
1.259000e+03 1.407616e+01
1.260000e+03 3.028805e+01
1.261000e+03 6.234055e-01
1.262000e+03 3.229027e+01
1.263000e+03 2.722576e+01
1.264000e+03 1.153270e+01
1.265000e+03 1.666910e+01
1.266000e+03 3.678284e+01
1.267000e+03 2.020848e+01
