# wavelength_A flux
5.000000e+02 1.366332e-32
5.010000e+02 1.733360e-32
5.020000e+02 2.196855e-32
5.030000e+02 2.781608e-32
5.040000e+02 3.518644e-32
5.050000e+02 4.448606e-32
5.060000e+02 5.616600e-32
5.070000e+02 7.084550e-32
5.080000e+02 8.927914e-32
5.090000e+02 1.124043e-31
5.100000e+02 1.413398e-31
5.110000e+02 1.776845e-31
5.120000e+02 2.230932e-31
5.130000e+02 2.798557e-31
5.140000e+02 3.507426e-31
5.150000e+02 4.391914e-31
5.160000e+02 5.494557e-31
5.170000e+02 6.867958e-31
5.180000e+02 8.577098e-31
5.190000e+02 1.070221e-30
5.200000e+02 1.334224e-30
5.210000e+02 1.661914e-30
5.220000e+02 2.068302e-30
5.230000e+02 2.571882e-30
5.240000e+02 3.195345e-30
5.250000e+02 3.966591e-30
5.260000e+02 4.919856e-30
5.270000e+02 6.097120e-30
5.280000e+02 7.549817e-30
5.290000e+02 9.340918e-30
5.300000e+02 1.154745e-29
5.310000e+02 1.426358e-29
5.320000e+02 1.760428e-29
5.330000e+02 2.170988e-29
5.340000e+02 2.675150e-29
5.350000e+02 3.293764e-29
5.360000e+02 4.052211e-29
5.370000e+02 4.980942e-29
5.380000e+02 6.118787e-29
5.390000e+02 7.510049e-29
5.400000e+02 9.210502e-29
5.410000e+02 1.128726e-28
5.420000e+02 1.382169e-28
5.430000e+02 1.691228e-28
5.440000e+02 2.067824e-28
5.450000e+02 2.526372e-28
5.460000e+02 3.084290e-28
5.470000e+02 3.762610e-28
5.480000e+02 4.586705e-28
5.490000e+02 5.587170e-28
5.500000e+02 6.800866e-28
5.510000e+02 8.272172e-28
5.520000e+02 1.005448e-27
5.530000e+02 1.221198e-27
5.540000e+02 1.482180e-27
5.550000e+02 1.797652e-27
5.560000e+02 2.178721e-27
5.570000e+02 2.638706e-27
5.580000e+02 3.193561e-27
5.590000e+02 3.862389e-27
5.600000e+02 4.668044e-27
5.610000e+02 5.637851e-27
5.620000e+02 6.804461e-27
5.630000e+02 8.206857e-27
5.640000e+02 9.891555e-27
5.650000e+02 1.191402e-26
5.660000e+02 1.434036e-26
5.670000e+02 1.724928e-26
5.680000e+02 2.073446e-26
5.690000e+02 2.490732e-26
5.700000e+02 2.990026e-26
5.710000e+02 3.587059e-26
5.720000e+02 4.300500e-26
5.730000e+02 5.152497e-26
5.740000e+02 6.169308e-26
5.750000e+02 7.382043e-26
5.760000e+02 8.827535e-26
5.770000e+02 1.054938e-25
5.780000e+02 1.259910e-25
5.790000e+02 1.503764e-25
5.800000e+02 1.793695e-25
5.810000e+02 2.138194e-25
5.820000e+02 2.547283e-25
5.830000e+02 3.032774e-25
5.840000e+02 3.608584e-25
5.850000e+02 4.291110e-25
5.860000e+02 5.099636e-25
5.870000e+02 6.056852e-25
5.880000e+02 7.189427e-25
5.890000e+02 8.528696e-25
5.900000e+02 1.011144e-24
5.910000e+02 1.198084e-24
5.920000e+02 1.418752e-24
5.930000e+02 1.679081e-24
5.940000e+02 1.986024e-24
5.950000e+02 2.347718e-24
5.960000e+02 2.773688e-24
5.970000e+02 3.275069e-24
5.980000e+02 3.864880e-24
5.990000e+02 4.558325e-24
6.000000e+02 5.373159e-24
6.010000e+02 6.330097e-24
6.020000e+02 7.453300e-24
6.030000e+02 8.770927e-24
6.040000e+02 1.031579e-23
6.050000e+02 1.212608e-23
6.060000e+02 1.424626e-23
6.070000e+02 1.672803e-23
6.080000e+02 1.963149e-23
6.090000e+02 2.302649e-23
6.100000e+02 2.699412e-23
6.110000e+02 3.162852e-23
6.120000e+02 3.703888e-23
6.130000e+02 4.335182e-23
6.140000e+02 5.071406e-23
6.150000e+02 5.929556e-23
6.160000e+02 6.929306e-23
6.170000e+02 8.093424e-23
6.180000e+02 9.448240e-23
6.190000e+02 1.102419e-22
6.200000e+02 1.285644e-22
6.210000e+02 1.498559e-22
6.220000e+02 1.745853e-22
6.230000e+02 2.032931e-22
6.240000e+02 2.366030e-22
6.250000e+02 2.752336e-22
6.260000e+02 3.200127e-22
6.270000e+02 3.718936e-22
6.280000e+02 4.319732e-22
6.290000e+02 5.015135e-22
6.300000e+02 5.819654e-22
6.310000e+02 6.749963e-22
6.320000e+02 7.825219e-22
6.330000e+02 9.067410e-22
6.340000e+02 1.050178e-21
6.350000e+02 1.215727e-21
6.360000e+02 1.406708e-21
6.370000e+02 1.626925e-21
6.380000e+02 1.880736e-21
6.390000e+02 2.173130e-21
6.400000e+02 2.509818e-21
6.410000e+02 2.897332e-21
6.420000e+02 3.343141e-21
6.430000e+02 3.855782e-21
6.440000e+02 4.445010e-21
6.450000e+02 5.121961e-21
6.460000e+02 5.899346e-21
6.470000e+02 6.791671e-21
6.480000e+02 7.815476e-21
6.490000e+02 8.989616e-21
6.500000e+02 1.033558e-20
6.510000e+02 1.187783e-20
6.520000e+02 1.364422e-20
6.530000e+02 1.566647e-20
6.540000e+02 1.798063e-20
6.550000e+02 2.062770e-20
6.560000e+02 2.365428e-20
6.570000e+02 2.711332e-20
6.580000e+02 3.106494e-20
6.590000e+02 3.557738e-20
6.600000e+02 4.072808e-20
6.610000e+02 4.660487e-20
6.620000e+02 5.330732e-20
6.630000e+02 6.094827e-20
6.640000e+02 6.965555e-20
6.650000e+02 7.957393e-20
6.660000e+02 9.086723e-20
6.670000e+02 1.037209e-19
6.680000e+02 1.183445e-19
6.690000e+02 1.349751e-19
6.700000e+02 1.538808e-19
6.710000e+02 1.753639e-19
6.720000e+02 1.997664e-19
6.730000e+02 2.274740e-19
6.740000e+02 2.589220e-19
6.750000e+02 2.946013e-19
6.760000e+02 3.350655e-19
6.770000e+02 3.809385e-19
6.780000e+02 4.329234e-19
6.790000e+02 4.918116e-19
6.800000e+02 5.584945e-19
6.810000e+02 6.339750e-19
6.820000e+02 7.193816e-19
6.830000e+02 8.159829e-19
6.840000e+02 9.252054e-19
6.850000e+02 1.048652e-18
6.860000e+02 1.188123e-18
6.870000e+02 1.345640e-18
6.880000e+02 1.523472e-18
6.890000e+02 1.724167e-18
6.900000e+02 1.950579e-18
6.910000e+02 2.205912e-18
6.920000e+02 2.493756e-18
6.930000e+02 2.818133e-18
6.940000e+02 3.183548e-18
6.950000e+02 3.595046e-18
6.960000e+02 4.058273e-18
6.970000e+02 4.579548e-18
6.980000e+02 5.165936e-18
6.990000e+02 5.825342e-18
7.000000e+02 6.566595e-18
7.010000e+02 7.399565e-18
7.020000e+02 8.335277e-18
7.030000e+02 9.386037e-18
7.040000e+02 1.056559e-17
7.050000e+02 1.188926e-17
7.060000e+02 1.337416e-17
7.070000e+02 1.503935e-17
7.080000e+02 1.690610e-17
7.090000e+02 1.899810e-17
7.100000e+02 2.134174e-17
7.110000e+02 2.396642e-17
7.120000e+02 2.690485e-17
7.130000e+02 3.019346e-17
7.140000e+02 3.387277e-17
7.150000e+02 3.798783e-17
7.160000e+02 4.258876e-17
7.170000e+02 4.773124e-17
7.180000e+02 5.347716e-17
7.190000e+02 5.989526e-17
7.200000e+02 6.706187e-17
7.210000e+02 7.506172e-17
7.220000e+02 8.398884e-17
7.230000e+02 9.394756e-17
7.240000e+02 1.050536e-16
7.250000e+02 1.174352e-16
7.260000e+02 1.312345e-16
7.270000e+02 1.466092e-16
7.280000e+02 1.637337e-16
7.290000e+02 1.828012e-16
7.300000e+02 2.040258e-16
7.310000e+02 2.276441e-16
7.320000e+02 2.539181e-16
7.330000e+02 2.831376e-16
7.340000e+02 3.156228e-16
7.350000e+02 3.517280e-16
7.360000e+02 3.918444e-16
7.370000e+02 4.364043e-16
7.380000e+02 4.858852e-16
7.390000e+02 5.408141e-16
7.400000e+02 6.017731e-16
7.410000e+02 6.694041e-16
7.420000e+02 7.444153e-16
7.430000e+02 8.275879e-16
7.440000e+02 9.197830e-16
7.450000e+02 1.021950e-15
7.460000e+02 1.135134e-15
7.470000e+02 1.260488e-15
7.480000e+02 1.399281e-15
7.490000e+02 1.552909e-15
7.500000e+02 1.722910e-15
7.510000e+02 1.910976e-15
7.520000e+02 2.118967e-15
7.530000e+02 2.348931e-15
7.540000e+02 2.603118e-15
7.550000e+02 2.884001e-15
7.560000e+02 3.194297e-15
7.570000e+02 3.536993e-15
7.580000e+02 3.915368e-15
7.590000e+02 4.333022e-15
7.600000e+02 4.793907e-15
7.610000e+02 5.302360e-15
7.620000e+02 5.863138e-15
7.630000e+02 6.481460e-15
7.640000e+02 7.163048e-15
7.650000e+02 7.914174e-15
7.660000e+02 8.741715e-15
7.670000e+02 9.653200e-15
7.680000e+02 1.065688e-14
7.690000e+02 1.176179e-14
7.700000e+02 1.297783e-14
7.710000e+02 1.431581e-14
7.720000e+02 1.578759e-14
7.730000e+02 1.740613e-14
7.740000e+02 1.918560e-14
7.750000e+02 2.114150e-14
7.760000e+02 2.329078e-14
7.770000e+02 2.565195e-14
7.780000e+02 2.824524e-14
7.790000e+02 3.109276e-14
7.800000e+02 3.421864e-14
7.810000e+02 3.764923e-14
7.820000e+02 4.141330e-14
7.830000e+02 4.554222e-14
7.840000e+02 5.007026e-14
7.850000e+02 5.503475e-14
7.860000e+02 6.047644e-14
7.870000e+02 6.643973e-14
7.880000e+02 7.297301e-14
7.890000e+02 8.012905e-14
7.900000e+02 8.796530e-14
7.910000e+02 9.654434e-14
7.920000e+02 1.059343e-13
7.930000e+02 1.162095e-13
7.940000e+02 1.274505e-13
7.950000e+02 1.397454e-13
7.960000e+02 1.531896e-13
7.970000e+02 1.678872e-13
7.980000e+02 1.839512e-13
7.990000e+02 2.015047e-13
8.000000e+02 2.206811e-13
8.010000e+02 2.416258e-13
8.020000e+02 2.644964e-13
8.030000e+02 2.894644e-13
8.040000e+02 3.167157e-13
8.050000e+02 3.464525e-13
8.060000e+02 3.788940e-13
8.070000e+02 4.142782e-13
8.080000e+02 4.528633e-13
8.090000e+02 4.949294e-13
8.100000e+02 5.407802e-13
8.110000e+02 5.907451e-13
8.120000e+02 6.451811e-13
8.130000e+02 7.044752e-13
8.140000e+02 7.690466e-13
8.150000e+02 8.393496e-13
8.160000e+02 9.158761e-13
8.170000e+02 9.991589e-13
8.180000e+02 1.089775e-12
8.190000e+02 1.188348e-12
8.200000e+02 1.295554e-12
8.210000e+02 1.412124e-12
8.220000e+02 1.538848e-12
8.230000e+02 1.676582e-12
8.240000e+02 1.826251e-12
8.250000e+02 1.988853e-12
8.260000e+02 2.165470e-12
8.270000e+02 2.357269e-12
8.280000e+02 2.565511e-12
8.290000e+02 2.791558e-12
8.300000e+02 3.036883e-12
8.310000e+02 3.303073e-12
8.320000e+02 3.591844e-12
8.330000e+02 3.905046e-12
8.340000e+02 4.244678e-12
8.350000e+02 4.612893e-12
8.360000e+02 5.012018e-12
8.370000e+02 5.444557e-12
8.380000e+02 5.913213e-12
8.390000e+02 6.420902e-12
8.400000e+02 6.970762e-12
8.410000e+02 7.566177e-12
8.420000e+02 8.210794e-12
8.430000e+02 8.908540e-12
8.440000e+02 9.663643e-12
8.450000e+02 1.048066e-11
8.460000e+02 1.136449e-11
8.470000e+02 1.232041e-11
8.480000e+02 1.335410e-11
8.490000e+02 1.447167e-11
8.500000e+02 1.567970e-11
8.510000e+02 1.698524e-11
8.520000e+02 1.839591e-11
8.530000e+02 1.991988e-11
8.540000e+02 2.156593e-11
8.550000e+02 2.334350e-11
8.560000e+02 2.526274e-11
8.570000e+02 2.733454e-11
8.580000e+02 2.957062e-11
8.590000e+02 3.198355e-11
8.600000e+02 3.458683e-11
8.610000e+02 3.739494e-11
8.620000e+02 4.042346e-11
8.630000e+02 4.368907e-11
8.640000e+02 4.720968e-11
8.650000e+02 5.100451e-11
8.660000e+02 5.509418e-11
8.670000e+02 5.950078e-11
8.680000e+02 6.424801e-11
8.690000e+02 6.936129e-11
8.700000e+02 7.486783e-11
8.710000e+02 8.079683e-11
8.720000e+02 8.717956e-11
8.730000e+02 9.404949e-11
8.740000e+02 1.014425e-10
8.750000e+02 1.093971e-10
8.760000e+02 1.179542e-10
8.770000e+02 1.271581e-10
8.780000e+02 1.370558e-10
8.790000e+02 1.476978e-10
8.800000e+02 1.591380e-10
8.810000e+02 1.714341e-10
8.820000e+02 1.846481e-10
8.830000e+02 1.988458e-10
8.840000e+02 2.140979e-10
8.850000e+02 2.304799e-10
8.860000e+02 2.480726e-10
8.870000e+02 2.669621e-10
8.880000e+02 2.872407e-10
8.890000e+02 3.090068e-10
8.900000e+02 3.323656e-10
8.910000e+02 3.574294e-10
8.920000e+02 3.843182e-10
8.930000e+02 4.131601e-10
8.940000e+02 4.440919e-10
8.950000e+02 4.772594e-10
8.960000e+02 5.128183e-10
8.970000e+02 5.509350e-10
8.980000e+02 5.917866e-10
8.990000e+02 6.355623e-10
9.000000e+02 6.824636e-10
9.010000e+02 7.327058e-10
9.020000e+02 7.865180e-10
9.030000e+02 8.441446e-10
9.040000e+02 9.058461e-10
9.050000e+02 9.719001e-10
9.060000e+02 1.042602e-09
9.070000e+02 1.118268e-09
9.080000e+02 1.199233e-09
9.090000e+02 1.285854e-09
9.100000e+02 1.378512e-09
9.110000e+02 1.477612e-09
9.120000e+02 1.583586e-09
9.130000e+02 1.696893e-09
9.140000e+02 1.825924e-09
9.150000e+02 4.443945e-07
9.160000e+02 3.745751e-06
9.170000e+02 9.067072e-07
9.180000e+02 5.772339e-07
9.190000e+02 1.173230e-05
9.200000e+02 3.825391e-05
9.210000e+02 2.933036e-09
9.220000e+02 4.822548e-05
9.230000e+02 2.249356e-07
9.240000e+02 3.753910e-06
9.250000e+02 2.878351e-05
9.260000e+02 8.341656e-07
9.270000e+02 2.755182e-06
9.280000e+02 2.646489e-04
9.290000e+02 2.472119e-04
9.300000e+02 4.421643e-05
9.310000e+02 5.418226e-07
9.320000e+02 1.863224e-04
9.330000e+02 2.226243e-04
9.340000e+02 9.789719e-05
9.350000e+02 3.294554e-07
9.360000e+02 9.640192e-06
9.370000e+02 1.058156e-07
9.380000e+02 1.695951e-07
9.390000e+02 2.072102e-05
9.400000e+02 4.682177e-04
9.410000e+02 1.233230e-05
9.420000e+02 8.058048e-04
9.430000e+02 5.308120e-05
9.440000e+02 8.831889e-04
9.450000e+02 8.909427e-04
9.460000e+02 5.355203e-04
9.470000e+02 8.836214e-07
9.480000e+02 2.158552e-04
9.490000e+02 1.688501e-05
9.500000e+02 1.504834e-07
9.510000e+02 1.055796e-04
9.520000e+02 4.561560e-04
9.530000e+02 7.710449e-06
9.540000e+02 9.819460e-07
9.550000e+02 1.449252e-04
9.560000e+02 1.088524e-03
9.570000e+02 2.424652e-05
9.580000e+02 2.925808e-07
9.590000e+02 2.059167e-03
9.600000e+02 5.178154e-07
9.610000e+02 1.151510e-03
9.620000e+02 5.259130e-04
9.630000e+02 8.032122e-05
9.640000e+02 6.662449e-07
9.650000e+02 2.889428e-06
9.660000e+02 1.536920e-04
9.670000e+02 1.841760e-05
9.680000e+02 1.104572e-05
9.690000e+02 6.047850e-04
9.700000e+02 4.348421e-04
9.710000e+02 1.821625e-05
9.720000e+02 2.446145e-06
9.730000e+02 2.602941e-06
9.740000e+02 1.463176e-04
9.750000e+02 1.956201e-04
9.760000e+02 1.748478e-03
9.770000e+02 2.099930e-03
9.780000e+02 1.440401e-03
9.790000e+02 4.210103e-03
9.800000e+02 4.731401e-03
9.810000e+02 1.363736e-03
9.820000e+02 1.994059e-04
9.830000e+02 5.606487e-03
9.840000e+02 9.549739e-05
9.850000e+02 6.177517e-04
9.860000e+02 7.705955e-04
9.870000e+02 6.857497e-03
9.880000e+02 7.730443e-06
9.890000e+02 4.538833e-03
9.900000e+02 4.391718e-04
9.910000e+02 1.430311e-04
9.920000e+02 1.534885e-06
9.930000e+02 7.149083e-03
9.940000e+02 4.277099e-07
9.950000e+02 2.887498e-04
9.960000e+02 3.222562e-05
9.970000e+02 3.329566e-05
9.980000e+02 8.305856e-03
9.990000e+02 2.141619e-04
1.000000e+03 1.179949e-02
1.001000e+03 1.124589e-02
1.002000e+03 1.363133e-02
1.003000e+03 3.186737e-04
1.004000e+03 1.273397e-05
1.005000e+03 1.363280e-03
1.006000e+03 1.481344e-02
1.007000e+03 1.611720e-02
1.008000e+03 1.383483e-02
1.009000e+03 4.385664e-04
1.010000e+03 1.446798e-02
1.011000e+03 1.769319e-02
1.012000e+03 1.602214e-02
1.013000e+03 1.558775e-02
1.014000e+03 4.752539e-06
1.015000e+03 2.090074e-05
1.016000e+03 1.183391e-03
1.017000e+03 3.699213e-06
1.018000e+03 4.417254e-04
1.019000e+03 1.924578e-05
1.020000e+03 1.132189e-02
1.021000e+03 3.315611e-04
1.022000e+03 7.392322e-04
1.023000e+03 4.766532e-05
1.024000e+03 5.026762e-04
1.025000e+03 3.193314e-06
1.026000e+03 2.413375e-06
1.027000e+03 2.135794e-04
1.028000e+03 1.447566e-05
1.029000e+03 8.023810e-06
1.030000e+03 5.326348e-03
1.031000e+03 9.805311e-03
1.032000e+03 2.931744e-02
1.033000e+03 2.038442e-04
1.034000e+03 1.895437e-02
1.035000e+03 7.912517e-06
1.036000e+03 1.799688e-05
1.037000e+03 9.321560e-02
1.038000e+03 1.304690e-01
1.039000e+03 1.039773e-01
1.040000e+03 1.167224e-01
1.041000e+03 1.571345e-01
1.042000e+03 1.628129e-01
1.043000e+03 1.085680e-01
1.044000e+03 2.006836e-01
1.045000e+03 1.103718e-05
1.046000e+03 1.382287e-01
1.047000e+03 5.358694e-02
1.048000e+03 5.979612e-04
1.049000e+03 6.352019e-02
1.050000e+03 1.464944e-02
1.051000e+03 6.250098e-03
1.052000e+03 2.480337e-01
1.053000e+03 2.862395e-01
1.054000e+03 3.048778e-05
1.055000e+03 2.717927e-01
1.056000e+03 3.103091e-01
1.057000e+03 1.263932e-01
1.058000e+03 7.159287e-03
1.059000e+03 1.233190e-03
1.060000e+03 8.231699e-04
1.061000e+03 2.176466e-01
1.062000e+03 3.030118e-03
1.063000e+03 2.841548e-03
1.064000e+03 2.005696e-05
1.065000e+03 5.212426e-05
1.066000e+03 1.556554e-01
1.067000e+03 3.103759e-03
1.068000e+03 4.932748e-01
1.069000e+03 6.175098e-04
1.070000e+03 9.312749e-02
1.071000e+03 4.825538e-01
1.072000e+03 5.409723e-01
1.073000e+03 1.375079e-04
1.074000e+03 1.671987e-01
1.075000e+03 9.657198e-02
1.076000e+03 4.406083e-01
1.077000e+03 6.572604e-04
1.078000e+03 8.038342e-03
1.079000e+03 5.784669e-02
1.080000e+03 1.856152e-01
1.081000e+03 5.523844e-01
1.082000e+03 4.240138e-01
1.083000e+03 2.719336e-01
1.084000e+03 8.061450e-01
1.085000e+03 5.740684e-02
1.086000e+03 8.830782e-01
1.087000e+03 7.771313e-03
1.088000e+03 9.460920e-01
1.089000e+03 9.729623e-01
1.090000e+03 4.400247e-02
1.091000e+03 6.755096e-02
1.092000e+03 1.012050e+00
1.093000e+03 1.074851e+00
1.094000e+03 6.274214e-01
1.095000e+03 1.177487e+00
1.096000e+03 4.251224e-02
1.097000e+03 1.050287e+00
1.098000e+03 1.224514e+00
1.099000e+03 1.892166e-01
1.100000e+03 1.795977e-03
1.101000e+03 5.625723e-03
1.102000e+03 1.080069e-01
1.103000e+03 1.481232e+00
1.104000e+03 1.555342e+00
1.105000e+03 1.582994e+00
1.106000e+03 5.572447e-01
1.107000e+03 3.128409e-03
1.108000e+03 1.490754e+00
1.109000e+03 4.977047e-02
1.110000e+03 1.737363e+00
1.111000e+03 1.708952e+00
1.112000e+03 1.230860e+00
1.113000e+03 1.502519e+00
1.114000e+03 8.360870e-01
1.115000e+03 5.696666e-02
1.116000e+03 2.319302e-02
1.117000e+03 2.139830e+00
1.118000e+03 8.462858e-02
1.119000e+03 1.505297e+00
1.120000e+03 3.237414e-02
1.121000e+03 2.286476e+00
1.122000e+03 1.774600e+00
1.123000e+03 3.089360e+00
1.124000e+03 3.515819e+00
1.125000e+03 2.923093e+00
1.126000e+03 3.389428e+00
1.127000e+03 2.997054e+00
1.128000e+03 2.249108e+00
1.129000e+03 2.286878e+00
1.130000e+03 2.894731e+00
1.131000e+03 2.497998e+00
1.132000e+03 5.450928e-02
1.133000e+03 4.480054e-01
1.134000e+03 2.271131e+00
1.135000e+03 7.085575e-01
1.136000e+03 8.606068e-01
1.137000e+03 2.346446e+00
1.138000e+03 2.047068e+00
1.139000e+03 2.672386e+00
1.140000e+03 2.543131e+00
1.141000e+03 2.573221e+00
1.142000e+03 2.653404e+00
1.143000e+03 2.109817e+00
1.144000e+03 2.603842e+00
1.145000e+03 2.472353e-02
1.146000e+03 2.778064e+00
1.147000e+03 2.782656e+00
1.148000e+03 2.320895e-01
1.149000e+03 2.692839e+00
1.150000e+03 2.638041e+00
1.151000e+03 2.770122e+00
1.152000e+03 2.687690e+00
1.153000e+03 2.671410e+00
1.154000e+03 2.674542e+00
1.155000e+03 2.557787e+00
1.156000e+03 2.149657e+00
1.157000e+03 2.522804e+00
1.158000e+03 2.201761e+00
1.159000e+03 2.613118e+00
1.160000e+03 2.264151e+00
1.161000e+03 2.460228e+00
1.162000e+03 7.452338e-01
1.163000e+03 1.528447e+00
1.164000e+03 7.392883e-03
1.165000e+03 1.569719e+00
1.166000e+03 8.961940e-01
1.167000e+03 6.132041e-01
1.168000e+03 2.750197e+00
1.169000e+03 2.787470e+00
1.170000e+03 6.340169e-01
1.171000e+03 1.453182e+00
1.172000e+03 1.174270e+00
1.173000e+03 1.045296e+00
1.174000e+03 1.510375e-01
1.175000e+03 6.471395e-03
1.176000e+03 2.512693e-03
1.177000e+03 3.431437e+00
1.178000e+03 3.286650e+00
1.179000e+03 3.153747e+00
1.180000e+03 2.827748e+00
1.181000e+03 2.920325e+00
1.182000e+03 2.836642e+00
1.183000e+03 2.658956e+00
1.184000e+03 2.564582e+00
1.185000e+03 2.524089e+00
1.186000e+03 6.650342e-01
1.187000e+03 2.438182e+00
1.188000e+03 2.217705e+00
1.189000e+03 2.346358e+00
1.190000e+03 2.299561e+00
1.191000e+03 2.178112e+00
1.192000e+03 2.000212e+00
1.193000e+03 1.866017e+00
1.194000e+03 1.920433e+00
1.195000e+03 1.846267e+00
1.196000e+03 1.616267e+01
1.197000e+03 1.581175e+01
1.198000e+03 3.184308e+00
1.199000e+03 1.436503e+01
1.200000e+03 6.728386e+00
1.201000e+03 1.237100e+01
1.202000e+03 1.049267e+01
1.203000e+03 1.005408e+01
1.204000e+03 5.110957e+00
1.205000e+03 7.395024e+00
1.206000e+03 6.066714e+00
1.207000e+03 9.871998e-01
1.208000e+03 3.201783e+00
1.209000e+03 2.430913e+00
1.210000e+03 1.185119e-02
1.211000e+03 9.245420e-01
1.212000e+03 4.611036e-01
1.213000e+03 1.930082e-01
1.214000e+03 5.508488e-02
1.215000e+03 1.060137e-02
1.216000e+03 9.307795e-03
1.217000e+03 3.463728e-02
1.218000e+03 1.560546e-01
1.219000e+03 4.384449e-01
1.220000e+03 9.173471e-01
1.221000e+03 1.835357e+00
1.222000e+03 3.133891e+00
1.223000e+03 4.695348e+00
1.224000e+03 6.311247e+00
1.225000e+03 3.123920e+00
1.226000e+03 1.183434e+01
1.227000e+03 1.502589e+01
1.228000e+03 1.400513e+01
1.229000e+03 2.128753e+01
1.230000e+03 1.987652e+01
1.231000e+03 1.333132e+01
1.232000e+03 3.091750e+01
1.233000e+03 3.437124e+01
1.234000e+03 2.852073e+01
1.235000e+03 4.041917e+01
1.236000e+03 3.103126e+01
1.237000e+03 4.640834e+01
1.238000e+03 4.922130e+01
1.239000e+03 5.019864e+01
1.240000e+03 1.373872e+01
1.241000e+03 5.237104e+01
1.242000e+03 5.967457e+01
1.243000e+03 6.264437e+01
1.244000e+03 6.535721e+01
1.245000e+03 6.771976e+01
1.246000e+03 6.896503e+01
1.247000e+03 7.201012e+01
1.248000e+03 5.716265e+01
1.249000e+03 7.769015e+01
1.250000e+03 6.612109e+01
1.251000e+03 8.309843e+01
1.252000e+03 8.216930e+01
1.253000e+03 8.707096e+01
1.254000e+03 8.707724e+01
1.255000e+03 3.505761e+01
1.256000e+03 8.242284e+01
1.257000e+03 6.927831e+01
1.258000e+03 8.971383e+01
1.259000e+03 9.000271e+01
1.260000e+03 1.002790e+02
1.261000e+03 4.953629e+00
1.262000e+03 1.042401e+02
1.263000e+03 9.996410e+01
1.264000e+03 1.010784e+02
1.265000e+03 5.157143e+00
1.266000e+03 1.188648e+02
1.267000e+03 1.218347e+02
