# wavelength_A flux
5.000000e+02 2.076511e-02
5.010000e+02 2.292534e-02
5.020000e+02 2.529991e-02
5.030000e+02 2.790862e-02
5.040000e+02 3.077421e-02
5.050000e+02 3.293889e-02
5.060000e+02 3.629154e-02
5.070000e+02 3.997068e-02
5.080000e+02 4.400516e-02
5.090000e+02 4.844395e-02
5.100000e+02 5.327192e-02
5.110000e+02 5.858002e-02
5.120000e+02 6.439201e-02
5.130000e+02 7.075330e-02
5.140000e+02 7.771318e-02
5.150000e+02 8.532529e-02
5.160000e+02 9.364714e-02
5.170000e+02 1.027383e-01
5.180000e+02 1.126730e-01
5.190000e+02 1.235233e-01
5.200000e+02 1.353683e-01
5.210000e+02 1.482894e-01
5.220000e+02 1.624053e-01
5.230000e+02 1.777673e-01
5.240000e+02 1.945297e-01
5.250000e+02 2.127918e-01
5.260000e+02 2.326895e-01
5.270000e+02 2.543572e-01
5.280000e+02 2.779443e-01
5.290000e+02 3.036289e-01
5.300000e+02 3.315340e-01
5.310000e+02 3.618978e-01
5.320000e+02 3.949038e-01
5.330000e+02 4.307746e-01
5.340000e+02 4.697433e-01
5.350000e+02 5.120215e-01
5.360000e+02 5.579657e-01
5.370000e+02 6.176793e-01
5.380000e+02 6.619212e-01
5.390000e+02 7.205836e-01
5.400000e+02 7.841802e-01
5.410000e+02 8.531377e-01
5.420000e+02 9.278166e-01
5.430000e+02 1.008723e+00
5.440000e+02 1.096334e+00
5.450000e+02 1.191172e+00
5.460000e+02 1.293875e+00
5.470000e+02 1.404824e+00
5.480000e+02 1.524926e+00
5.490000e+02 1.654644e+00
5.500000e+02 1.794937e+00
5.510000e+02 1.946525e+00
5.520000e+02 2.110161e+00
5.530000e+02 2.286959e+00
5.540000e+02 2.477812e+00
5.550000e+02 2.683742e+00
5.560000e+02 2.905947e+00
5.570000e+02 3.145604e+00
5.580000e+02 3.404001e+00
5.590000e+02 3.682536e+00
5.600000e+02 3.982685e+00
5.610000e+02 4.305794e+00
5.620000e+02 4.653832e+00
5.630000e+02 5.028732e+00
5.640000e+02 5.432263e+00
5.650000e+02 5.866474e+00
5.660000e+02 6.333587e+00
5.670000e+02 6.835949e+00
5.680000e+02 7.375699e+00
5.690000e+02 7.956224e+00
5.700000e+02 8.580042e+00
5.710000e+02 9.250157e+00
5.720000e+02 9.969953e+00
5.730000e+02 1.074262e+01
5.740000e+02 1.157186e+01
5.750000e+02 1.246171e+01
5.760000e+02 1.341833e+01
5.770000e+02 1.444077e+01
5.780000e+02 1.553895e+01
5.790000e+02 1.671618e+01
5.800000e+02 1.797783e+01
5.810000e+02 1.932961e+01
5.820000e+02 2.077759e+01
5.830000e+02 2.232819e+01
5.840000e+02 2.399573e+01
5.850000e+02 2.576557e+01
5.860000e+02 2.766446e+01
5.870000e+02 2.969808e+01
5.880000e+02 3.187300e+01
5.890000e+02 3.419891e+01
5.900000e+02 3.668498e+01
5.910000e+02 3.934200e+01
5.920000e+02 4.218098e+01
5.930000e+02 4.521365e+01
5.940000e+02 4.845240e+01
5.950000e+02 5.191398e+01
5.960000e+02 5.560140e+01
5.970000e+02 5.954046e+01
5.980000e+02 6.374334e+01
5.990000e+02 6.822266e+01
6.000000e+02 7.300307e+01
6.010000e+02 7.810013e+01
6.020000e+02 8.353268e+01
6.030000e+02 8.932234e+01
6.040000e+02 9.549087e+01
6.050000e+02 1.020614e+02
6.060000e+02 1.090593e+02
6.070000e+02 1.165090e+02
6.080000e+02 1.244394e+02
6.090000e+02 1.328696e+02
6.100000e+02 1.418464e+02
6.110000e+02 1.513980e+02
6.120000e+02 1.615563e+02
6.130000e+02 1.723482e+02
6.140000e+02 1.838301e+02
6.150000e+02 1.960328e+02
6.160000e+02 2.089995e+02
6.170000e+02 2.227751e+02
6.180000e+02 2.374064e+02
6.190000e+02 2.529436e+02
6.200000e+02 2.694393e+02
6.210000e+02 2.869488e+02
6.220000e+02 3.055306e+02
6.230000e+02 3.252461e+02
6.240000e+02 3.461603e+02
6.250000e+02 3.683412e+02
6.260000e+02 3.918502e+02
6.270000e+02 4.167837e+02
6.280000e+02 4.432115e+02
6.290000e+02 4.712174e+02
6.300000e+02 5.008889e+02
6.310000e+02 5.323183e+02
6.320000e+02 5.656071e+02
6.330000e+02 6.008437e+02
6.340000e+02 6.381570e+02
6.350000e+02 6.776513e+02
6.360000e+02 7.215624e+02
6.370000e+02 7.636636e+02
6.380000e+02 8.104393e+02
6.390000e+02 8.599101e+02
6.400000e+02 9.122209e+02
6.410000e+02 9.675250e+02
6.420000e+02 1.025983e+03
6.430000e+02 1.087759e+03
6.440000e+02 1.153033e+03
6.450000e+02 1.221994e+03
6.460000e+02 1.294823e+03
6.470000e+02 1.371745e+03
6.480000e+02 1.452943e+03
6.490000e+02 1.538665e+03
6.500000e+02 1.629140e+03
6.510000e+02 1.724510e+03
6.520000e+02 1.825229e+03
6.530000e+02 1.931478e+03
6.540000e+02 2.043535e+03
6.550000e+02 2.161656e+03
6.560000e+02 2.286231e+03
6.570000e+02 2.417577e+03
6.580000e+02 2.555934e+03
6.590000e+02 2.701765e+03
6.600000e+02 2.855405e+03
6.610000e+02 3.017243e+03
6.620000e+02 3.187681e+03
6.630000e+02 3.367166e+03
6.640000e+02 3.556108e+03
6.650000e+02 3.755018e+03
6.660000e+02 3.964352e+03
6.670000e+02 4.184637e+03
6.680000e+02 4.416398e+03
6.690000e+02 4.660196e+03
6.700000e+02 4.916619e+03
6.710000e+02 5.186326e+03
6.720000e+02 5.522651e+03
6.730000e+02 5.767922e+03
6.740000e+02 6.081170e+03
6.750000e+02 6.410358e+03
6.760000e+02 6.756241e+03
6.770000e+02 7.119472e+03
6.780000e+02 7.501137e+03
6.790000e+02 7.901965e+03
6.800000e+02 8.322853e+03
6.810000e+02 8.764476e+03
6.820000e+02 9.228307e+03
6.830000e+02 9.715110e+03
6.840000e+02 1.022597e+04
6.850000e+02 1.076196e+04
6.860000e+02 1.132424e+04
6.870000e+02 1.191425e+04
6.880000e+02 1.253252e+04
6.890000e+02 1.318029e+04
6.900000e+02 1.386018e+04
6.910000e+02 1.457283e+04
6.920000e+02 1.531980e+04
6.930000e+02 1.610258e+04
6.940000e+02 1.692275e+04
6.950000e+02 1.778202e+04
6.960000e+02 1.868199e+04
6.970000e+02 1.962479e+04
6.980000e+02 2.061121e+04
6.990000e+02 2.164462e+04
7.000000e+02 2.272645e+04
7.010000e+02 2.385879e+04
7.020000e+02 2.504385e+04
7.030000e+02 2.628388e+04
7.040000e+02 2.758125e+04
7.050000e+02 2.893843e+04
7.060000e+02 3.035798e+04
7.070000e+02 3.184251e+04
7.080000e+02 3.339482e+04
7.090000e+02 3.501781e+04
7.100000e+02 3.671425e+04
7.110000e+02 3.848752e+04
7.120000e+02 4.034071e+04
7.130000e+02 4.227716e+04
7.140000e+02 4.430032e+04
7.150000e+02 4.641380e+04
7.160000e+02 4.862028e+04
7.170000e+02 5.092581e+04
7.180000e+02 5.333425e+04
7.190000e+02 5.584629e+04
7.200000e+02 5.847014e+04
7.210000e+02 6.120891e+04
7.220000e+02 6.406725e+04
7.230000e+02 6.704995e+04
7.240000e+02 7.015749e+04
7.250000e+02 7.340399e+04
7.260000e+02 7.679043e+04
7.270000e+02 8.032240e+04
7.280000e+02 8.400568e+04
7.290000e+02 8.784627e+04
7.300000e+02 9.194231e+04
7.310000e+02 9.602437e+04
7.320000e+02 1.004136e+05
7.330000e+02 1.049091e+05
7.340000e+02 1.096338e+05
7.350000e+02 1.145580e+05
7.360000e+02 1.196827e+05
7.370000e+02 1.250243e+05
7.380000e+02 1.305887e+05
7.390000e+02 1.363828e+05
7.400000e+02 1.424163e+05
7.410000e+02 1.486974e+05
7.420000e+02 1.552369e+05
7.430000e+02 1.620431e+05
7.440000e+02 1.691270e+05
7.450000e+02 1.764987e+05
7.460000e+02 1.841691e+05
7.470000e+02 1.921500e+05
7.480000e+02 2.004508e+05
7.490000e+02 2.090856e+05
7.500000e+02 2.180681e+05
7.510000e+02 2.274045e+05
7.520000e+02 2.371085e+05
7.530000e+02 2.472026e+05
7.540000e+02 2.576966e+05
7.550000e+02 2.686047e+05
7.560000e+02 2.799214e+05
7.570000e+02 2.917037e+05
7.580000e+02 3.039403e+05
7.590000e+02 3.166584e+05
7.600000e+02 3.298663e+05
7.610000e+02 3.435867e+05
7.620000e+02 3.578369e+05
7.630000e+02 3.726357e+05
7.640000e+02 3.880021e+05
7.650000e+02 4.039563e+05
7.660000e+02 4.205184e+05
7.670000e+02 4.377102e+05
7.680000e+02 4.555588e+05
7.690000e+02 4.740652e+05
7.700000e+02 4.932802e+05
7.710000e+02 5.132171e+05
7.720000e+02 5.339005e+05
7.730000e+02 5.553561e+05
7.740000e+02 5.776108e+05
7.750000e+02 6.006913e+05
7.760000e+02 6.246660e+05
7.770000e+02 6.494441e+05
7.780000e+02 6.751746e+05
7.790000e+02 7.018494e+05
7.800000e+02 7.294998e+05
7.810000e+02 7.581580e+05
7.820000e+02 7.878574e+05
7.830000e+02 8.186354e+05
7.840000e+02 8.505241e+05
7.850000e+02 8.835636e+05
7.860000e+02 9.177258e+05
7.870000e+02 9.531739e+05
7.880000e+02 9.898899e+05
7.890000e+02 1.027914e+06
7.900000e+02 1.067292e+06
7.910000e+02 1.108058e+06
7.920000e+02 1.150261e+06
7.930000e+02 1.193955e+06
7.940000e+02 1.239184e+06
7.950000e+02 1.285994e+06
7.960000e+02 1.334438e+06
7.970000e+02 1.384569e+06
7.980000e+02 1.436442e+06
7.990000e+02 1.490104e+06
8.000000e+02 1.545620e+06
8.010000e+02 1.603047e+06
8.020000e+02 1.662442e+06
8.030000e+02 1.723780e+06
8.040000e+02 1.787295e+06
8.050000e+02 1.852974e+06
8.060000e+02 1.920880e+06
8.070000e+02 1.991079e+06
8.080000e+02 2.063648e+06
8.090000e+02 2.138656e+06
8.100000e+02 2.216180e+06
8.110000e+02 2.296298e+06
8.120000e+02 2.379090e+06
8.130000e+02 2.464617e+06
8.140000e+02 2.552989e+06
8.150000e+02 2.644114e+06
8.160000e+02 2.738385e+06
8.170000e+02 2.835785e+06
8.180000e+02 2.936362e+06
8.190000e+02 3.040234e+06
8.200000e+02 3.147492e+06
8.210000e+02 3.258233e+06
8.220000e+02 3.372563e+06
8.230000e+02 3.490596e+06
8.240000e+02 3.612413e+06
8.250000e+02 3.738153e+06
8.260000e+02 3.867926e+06
8.270000e+02 4.001826e+06
8.280000e+02 4.140008e+06
8.290000e+02 4.282575e+06
8.300000e+02 4.429682e+06
8.310000e+02 4.581418e+06
8.320000e+02 4.737962e+06
8.330000e+02 4.899412e+06
8.340000e+02 5.065899e+06
8.350000e+02 5.238052e+06
8.360000e+02 5.414737e+06
8.370000e+02 5.597190e+06
8.380000e+02 5.785387e+06
8.390000e+02 5.979402e+06
8.400000e+02 6.179432e+06
8.410000e+02 6.385590e+06
8.420000e+02 6.598450e+06
8.430000e+02 6.816485e+06
8.440000e+02 7.042094e+06
8.450000e+02 7.274560e+06
8.460000e+02 7.514084e+06
8.470000e+02 7.760824e+06
8.480000e+02 8.015023e+06
8.490000e+02 8.276841e+06
8.500000e+02 8.546520e+06
8.510000e+02 8.824263e+06
8.520000e+02 9.110317e+06
8.530000e+02 9.404857e+06
8.540000e+02 9.708065e+06
8.550000e+02 1.002029e+07
8.560000e+02 1.034173e+07
8.570000e+02 1.067262e+07
8.580000e+02 1.101323e+07
8.590000e+02 1.136377e+07
8.600000e+02 1.172456e+07
8.610000e+02 1.209579e+07
8.620000e+02 1.247785e+07
8.630000e+02 1.287097e+07
8.640000e+02 1.327541e+07
8.650000e+02 1.369152e+07
8.660000e+02 1.411954e+07
8.670000e+02 1.455871e+07
8.680000e+02 1.501154e+07
8.690000e+02 1.547726e+07
8.700000e+02 1.595638e+07
8.710000e+02 1.644870e+07
8.720000e+02 1.695512e+07
8.730000e+02 1.747582e+07
8.740000e+02 1.801113e+07
8.750000e+02 1.856144e+07
8.760000e+02 1.912714e+07
8.770000e+02 1.970859e+07
8.780000e+02 2.030620e+07
8.790000e+02 2.092038e+07
8.800000e+02 2.155155e+07
8.810000e+02 2.220011e+07
8.820000e+02 2.286653e+07
8.830000e+02 2.355118e+07
8.840000e+02 2.425460e+07
8.850000e+02 2.497723e+07
8.860000e+02 2.571969e+07
8.870000e+02 2.648189e+07
8.880000e+02 2.726494e+07
8.890000e+02 2.806913e+07
8.900000e+02 2.889498e+07
8.910000e+02 2.974301e+07
8.920000e+02 3.080182e+07
8.930000e+02 3.150517e+07
8.940000e+02 3.242295e+07
8.950000e+02 3.336521e+07
8.960000e+02 3.433218e+07
8.970000e+02 3.532486e+07
8.980000e+02 3.634168e+07
8.990000e+02 3.738726e+07
9.000000e+02 3.846028e+07
9.010000e+02 3.956136e+07
9.020000e+02 4.069118e+07
9.030000e+02 4.185041e+07
9.040000e+02 4.304249e+07
9.050000e+02 4.425985e+07
9.060000e+02 4.551143e+07
9.070000e+02 4.679710e+07
9.080000e+02 4.811212e+07
9.090000e+02 4.946299e+07
9.100000e+02 5.084812e+07
9.110000e+02 5.226845e+07
9.120000e+02 5.372480e+07
9.130000e+02 5.543668e+07
9.140000e+02 5.677030e+07
9.150000e+02 1.087903e+08
9.160000e+02 3.761855e+08
9.170000e+02 4.581046e+08
9.180000e+02 3.343396e+08
9.190000e+02 9.120106e+08
9.200000e+02 1.360528e+09
9.210000e+02 7.141873e+07
9.220000e+02 1.697787e+09
9.230000e+02 4.412730e+08
9.240000e+02 1.144148e+09
9.250000e+02 1.933987e+09
9.260000e+02 7.220122e+08
9.270000e+02 1.849361e+09
9.280000e+02 2.244737e+09
9.290000e+02 1.507169e+09
9.300000e+02 1.912458e+09
9.310000e+02 8.914813e+08
9.320000e+02 2.360241e+09
9.330000e+02 2.534615e+09
9.340000e+02 2.639793e+09
9.350000e+02 8.679099e+08
9.360000e+02 2.661670e+09
9.370000e+02 5.513090e+08
9.380000e+02 7.080988e+08
9.390000e+02 2.678776e+09
9.400000e+02 2.938989e+09
9.410000e+02 2.031270e+09
9.420000e+02 3.102491e+09
9.430000e+02 3.164537e+09
9.440000e+02 1.534396e+09
9.450000e+02 3.272232e+09
9.460000e+02 3.339858e+09
9.470000e+02 2.128521e+09
9.480000e+02 3.278290e+09
9.490000e+02 2.756279e+09
9.500000e+02 6.407562e+08
9.510000e+02 3.001755e+09
9.520000e+02 3.685622e+09
9.530000e+02 3.787251e+09
9.540000e+02 2.818329e+09
9.550000e+02 3.978226e+09
9.560000e+02 4.008771e+09
9.570000e+02 3.363524e+09
9.580000e+02 4.151808e+09
9.590000e+02 4.308346e+09
9.600000e+02 9.076961e+08
9.610000e+02 4.484663e+09
9.620000e+02 4.479106e+09
9.630000e+02 4.648420e+09
9.640000e+02 2.117699e+08
9.650000e+02 4.066786e+09
9.660000e+02 4.898985e+09
9.670000e+02 4.964064e+09
9.680000e+02 4.932485e+09
9.690000e+02 5.075014e+09
9.700000e+02 5.143426e+09
9.710000e+02 4.973307e+09
9.720000e+02 3.224102e+09
9.730000e+02 2.962344e+09
9.740000e+02 5.174147e+09
9.750000e+02 5.609164e+09
9.760000e+02 5.801975e+09
9.770000e+02 5.923539e+09
9.780000e+02 6.035969e+09
9.790000e+02 6.165144e+09
9.800000e+02 6.280589e+09
9.810000e+02 6.395130e+09
9.820000e+02 6.343337e+09
9.830000e+02 6.616319e+09
9.840000e+02 1.418652e+09
9.850000e+02 6.856622e+09
9.860000e+02 6.973667e+09
9.870000e+02 7.071814e+09
9.880000e+02 7.053436e+09
9.890000e+02 3.316763e+09
9.900000e+02 4.511767e+08
9.910000e+02 7.482075e+09
9.920000e+02 7.129187e+09
9.930000e+02 7.247826e+09
9.940000e+02 8.920243e+08
9.950000e+02 9.529917e+08
9.960000e+02 1.037713e+09
9.970000e+02 1.263230e+09
9.980000e+02 8.492794e+09
9.990000e+02 8.393123e+09
1.000000e+03 8.836040e+09
1.001000e+03 8.987109e+09
1.002000e+03 9.122401e+09
1.003000e+03 6.514959e+09
1.004000e+03 9.441808e+09
1.005000e+03 7.408737e+09
1.006000e+03 9.753943e+09
1.007000e+03 9.914720e+09
1.008000e+03 1.006090e+10
1.009000e+03 9.004204e+09
1.010000e+03 1.040043e+10
1.011000e+03 1.056790e+10
1.012000e+03 1.072202e+10
1.013000e+03 1.090321e+10
1.014000e+03 1.107794e+10
1.015000e+03 1.070150e+10
1.016000e+03 1.137712e+10
1.017000e+03 1.158173e+10
1.018000e+03 1.174309e+10
1.019000e+03 1.189896e+10
1.020000e+03 1.202379e+10
1.021000e+03 9.996845e+09
1.022000e+03 1.185747e+10
1.023000e+03 1.199065e+10
1.024000e+03 1.082957e+10
1.025000e+03 6.093367e+09
1.026000e+03 2.071157e+09
1.027000e+03 9.907432e+09
1.028000e+03 3.616865e+09
1.029000e+03 1.353431e+10
1.030000e+03 1.350713e+10
1.031000e+03 1.444656e+10
1.032000e+03 1.428278e+10
1.033000e+03 8.353561e+09
1.034000e+03 1.533205e+10
1.035000e+03 2.903137e+09
1.036000e+03 1.555414e+10
1.037000e+03 1.146981e+09
1.038000e+03 1.636069e+10
1.039000e+03 1.624647e+10
1.040000e+03 1.691282e+10
1.041000e+03 1.711378e+10
1.042000e+03 1.533695e+10
1.043000e+03 1.748107e+10
1.044000e+03 1.773768e+10
1.045000e+03 1.822274e+10
1.046000e+03 1.853260e+10
1.047000e+03 1.882386e+10
1.048000e+03 1.847102e+10
1.049000e+03 1.921108e+10
1.050000e+03 1.972980e+10
1.051000e+03 2.002927e+10
1.052000e+03 2.032916e+10
1.053000e+03 1.908091e+10
1.054000e+03 2.093592e+10
1.055000e+03 2.125227e+10
1.056000e+03 2.157925e+10
1.057000e+03 2.186031e+10
1.058000e+03 2.220554e+10
1.059000e+03 2.254928e+10
1.060000e+03 2.288777e+10
1.061000e+03 2.322738e+10
1.062000e+03 2.356626e+10
1.063000e+03 1.596187e+10
1.064000e+03 3.901098e+09
1.065000e+03 2.561675e+10
1.066000e+03 2.546966e+10
1.067000e+03 2.196656e+10
1.068000e+03 2.678743e+10
1.069000e+03 2.718095e+10
1.070000e+03 2.559963e+10
1.071000e+03 2.803524e+10
1.072000e+03 2.842014e+10
1.073000e+03 2.884764e+10
1.074000e+03 2.924352e+10
1.075000e+03 2.958467e+10
1.076000e+03 3.009593e+10
1.077000e+03 3.042230e+10
1.078000e+03 3.094186e+10
1.079000e+03 3.109286e+10
1.080000e+03 3.168020e+10
1.081000e+03 3.229370e+10
1.082000e+03 3.271809e+10
1.083000e+03 3.318334e+10
1.084000e+03 1.872413e+10
1.085000e+03 2.736939e+10
1.086000e+03 3.462661e+10
1.087000e+03 3.505921e+10
1.088000e+03 3.537606e+10
1.089000e+03 3.601326e+10
1.090000e+03 3.643645e+10
1.091000e+03 3.708486e+10
1.092000e+03 3.758803e+10
1.093000e+03 3.804920e+10
1.094000e+03 3.863846e+10
1.095000e+03 3.893376e+10
1.096000e+03 3.967064e+10
1.097000e+03 3.972051e+10
1.098000e+03 3.908957e+10
1.099000e+03 4.118669e+10
1.100000e+03 4.095265e+10
1.101000e+03 3.875144e+10
1.102000e+03 8.191346e+10
1.103000e+03 2.195729e+11
1.104000e+03 9.260587e+10
1.105000e+03 4.116863e+10
1.106000e+03 4.220695e+11
1.107000e+03 4.102034e+11
1.108000e+03 4.319935e+11
1.109000e+03 2.177144e+11
1.110000e+03 4.816460e+10
1.111000e+03 8.753299e+10
1.112000e+03 3.957225e+11
1.113000e+03 4.545871e+11
1.114000e+03 3.053643e+10
1.115000e+03 4.450615e+11
1.116000e+03 4.617966e+11
1.117000e+03 3.193776e+10
1.118000e+03 3.995452e+11
1.119000e+03 4.732206e+11
1.120000e+03 4.818221e+11
1.121000e+03 2.805335e+11
1.122000e+03 6.090359e+09
1.123000e+03 7.412705e+10
1.124000e+03 4.940027e+11
1.125000e+03 1.554303e+11
1.126000e+03 5.078347e+11
1.127000e+03 4.878316e+11
1.128000e+03 2.334557e+11
1.129000e+03 5.163772e+11
1.130000e+03 2.878300e+11
1.131000e+03 5.390512e+11
1.132000e+03 1.704047e+10
1.133000e+03 5.104011e+11
1.134000e+03 5.332355e+11
1.135000e+03 1.001859e+10
1.136000e+03 5.335222e+11
1.137000e+03 5.716410e+11
1.138000e+03 5.833177e+11
1.139000e+03 5.751067e+11
1.140000e+03 1.274928e+10
1.141000e+03 6.007305e+11
1.142000e+03 4.903094e+11
1.143000e+03 6.071280e+11
1.144000e+03 6.153910e+11
1.145000e+03 4.793061e+11
1.146000e+03 6.191457e+11
1.147000e+03 6.195899e+11
1.148000e+03 6.285214e+11
1.149000e+03 6.443941e+11
1.150000e+03 5.751704e+11
1.151000e+03 6.497126e+11
1.152000e+03 6.408040e+11
1.153000e+03 1.282922e+11
1.154000e+03 2.356793e+10
1.155000e+03 5.384172e+11
1.156000e+03 2.346864e+11
1.157000e+03 6.904719e+11
1.158000e+03 2.008506e+10
1.159000e+03 6.002377e+11
1.160000e+03 6.923046e+11
1.161000e+03 7.213129e+11
1.162000e+03 6.463540e+10
1.163000e+03 6.468929e+11
1.164000e+03 3.773358e+10
1.165000e+03 7.454439e+11
1.166000e+03 7.170534e+11
1.167000e+03 5.921549e+11
1.168000e+03 7.641005e+11
1.169000e+03 7.448231e+11
1.170000e+03 7.788330e+11
1.171000e+03 7.849970e+11
1.172000e+03 6.671219e+11
1.173000e+03 7.907109e+11
1.174000e+03 7.514666e+11
1.175000e+03 3.654202e+10
1.176000e+03 2.399666e+10
1.177000e+03 7.787245e+11
1.178000e+03 6.520780e+11
1.179000e+03 8.212899e+11
1.180000e+03 5.558322e+11
1.181000e+03 7.820060e+11
1.182000e+03 8.375398e+11
1.183000e+03 8.382295e+11
1.184000e+03 8.430555e+11
1.185000e+03 7.515448e+11
1.186000e+03 8.442538e+11
1.187000e+03 8.453231e+11
1.188000e+03 7.380685e+11
1.189000e+03 2.442304e+10
1.190000e+03 1.886000e+11
1.191000e+03 8.022806e+11
1.192000e+03 8.096559e+11
1.193000e+03 1.810851e+10
1.194000e+03 2.811226e+10
1.195000e+03 2.936394e+11
1.196000e+03 7.756064e+11
1.197000e+03 7.868561e+11
1.198000e+03 8.053614e+11
1.199000e+03 7.755532e+11
1.200000e+03 6.831018e+11
1.201000e+03 7.076025e+11
1.202000e+03 6.908319e+11
1.203000e+03 6.777550e+11
1.204000e+03 6.091243e+11
1.205000e+03 5.678410e+11
1.206000e+03 3.786713e+11
1.207000e+03 2.862434e+11
1.208000e+03 3.778413e+11
1.209000e+03 2.816907e+11
1.210000e+03 4.303032e+10
1.211000e+03 1.786318e+11
1.212000e+03 1.221430e+11
1.213000e+03 7.707103e+10
1.214000e+03 4.526766e+10
1.215000e+03 2.762809e+10
1.216000e+03 2.467673e+10
1.217000e+03 3.912600e+10
1.218000e+03 6.869113e+10
1.219000e+03 1.149979e+11
1.220000e+03 1.764559e+11
1.221000e+03 2.499160e+11
1.222000e+03 3.321447e+11
1.223000e+03 4.200593e+11
1.224000e+03 5.108911e+11
1.225000e+03 6.025370e+11
1.226000e+03 6.821737e+11
1.227000e+03 7.797066e+11
1.228000e+03 8.752712e+11
1.229000e+03 9.509943e+11
1.230000e+03 1.032008e+12
1.231000e+03 1.121656e+12
1.232000e+03 1.199459e+12
1.233000e+03 1.272679e+12
1.234000e+03 8.479826e+11
1.235000e+03 1.398784e+12
1.236000e+03 1.471451e+12
1.237000e+03 1.523555e+12
1.238000e+03 1.587434e+12
1.239000e+03 1.645063e+12
1.240000e+03 1.556665e+12
1.241000e+03 2.566980e+12
1.242000e+03 1.512112e+12
1.243000e+03 2.145823e+12
1.244000e+03 9.548962e+11
1.245000e+03 1.410771e+12
1.246000e+03 3.539243e+12
1.247000e+03 3.943372e+12
1.248000e+03 1.043075e+12
1.249000e+03 1.291742e+12
1.250000e+03 4.465917e+12
1.251000e+03 4.462196e+12
1.252000e+03 4.319548e+12
1.253000e+03 5.025117e+12
1.254000e+03 5.115850e+12
1.255000e+03 5.099961e+12
1.256000e+03 5.190510e+12
1.257000e+03 5.644106e+12
1.258000e+03 5.615375e+12
1.259000e+03 5.290993e+12
1.260000e+03 4.501069e+12
1.261000e+03 5.132912e+10
1.262000e+03 6.309198e+11
1.263000e+03 6.265895e+12
1.264000e+03 5.494904e+12
1.265000e+03 4.651811e+10
1.266000e+03 6.557635e+12
1.267000e+03 7.133705e+12
