# wavelength_A flux
5.000000e+02 3.640096e-30
5.010000e+02 4.566629e-30
5.020000e+02 5.723712e-30
5.030000e+02 7.167397e-30
5.040000e+02 8.967043e-30
5.050000e+02 1.126623e-29
5.060000e+02 1.406757e-29
5.070000e+02 1.754856e-29
5.080000e+02 2.187358e-29
5.090000e+02 2.723919e-29
5.100000e+02 3.373249e-29
5.110000e+02 4.213137e-29
5.120000e+02 5.232627e-29
5.130000e+02 6.494032e-29
5.140000e+02 8.052137e-29
5.150000e+02 9.975571e-29
5.160000e+02 1.234800e-28
5.170000e+02 1.527197e-28
5.180000e+02 1.887245e-28
5.190000e+02 2.330239e-28
5.200000e+02 2.874843e-28
5.210000e+02 3.543813e-28
5.220000e+02 4.364744e-28
5.230000e+02 5.371832e-28
5.240000e+02 6.605755e-28
5.250000e+02 8.116580e-28
5.260000e+02 9.964993e-28
5.270000e+02 1.222464e-27
5.280000e+02 1.498485e-27
5.290000e+02 1.835388e-27
5.300000e+02 2.246282e-27
5.310000e+02 2.747032e-27
5.320000e+02 3.356819e-27
5.330000e+02 4.098820e-27
5.340000e+02 5.001015e-27
5.350000e+02 6.097163e-27
5.360000e+02 7.427952e-27
5.370000e+02 9.029724e-27
5.380000e+02 1.099960e-26
5.390000e+02 1.337048e-26
5.400000e+02 1.624037e-26
5.410000e+02 1.971170e-26
5.420000e+02 2.390777e-26
5.430000e+02 2.897588e-26
5.440000e+02 3.509301e-26
5.450000e+02 4.247101e-26
5.460000e+02 5.136348e-26
5.470000e+02 6.207373e-26
5.480000e+02 7.496429e-26
5.490000e+02 9.046817e-26
5.500000e+02 1.091022e-25
5.510000e+02 1.314831e-25
5.520000e+02 1.583455e-25
5.530000e+02 1.905649e-25
5.540000e+02 2.291834e-25
5.550000e+02 2.754407e-25
5.560000e+02 3.308106e-25
5.570000e+02 3.970438e-25
5.580000e+02 4.762190e-25
5.590000e+02 5.708027e-25
5.600000e+02 6.837192e-25
5.610000e+02 8.184339e-25
5.620000e+02 9.790501e-25
5.630000e+02 1.170424e-24
5.640000e+02 1.398300e-24
5.650000e+02 1.669465e-24
5.660000e+02 1.991938e-24
5.670000e+02 2.375185e-24
5.680000e+02 2.830372e-24
5.690000e+02 3.370664e-24
5.700000e+02 4.011575e-24
5.710000e+02 4.771370e-24
5.720000e+02 5.671547e-24
5.730000e+02 6.737389e-24
5.740000e+02 7.998614e-24
5.750000e+02 9.490135e-24
5.760000e+02 1.125293e-23
5.770000e+02 1.333512e-23
5.780000e+02 1.579306e-23
5.790000e+02 1.869285e-23
5.800000e+02 2.211190e-23
5.810000e+02 2.614081e-23
5.820000e+02 3.088561e-23
5.830000e+02 3.647021e-23
5.840000e+02 4.303890e-23
5.850000e+02 5.076250e-23
5.860000e+02 5.983709e-23
5.870000e+02 7.049320e-23
5.880000e+02 8.299953e-23
5.890000e+02 9.766907e-23
5.900000e+02 1.148663e-22
5.910000e+02 1.350156e-22
5.920000e+02 1.586106e-22
5.930000e+02 1.862251e-22
5.940000e+02 2.185262e-22
5.950000e+02 2.562887e-22
5.960000e+02 3.004118e-22
5.970000e+02 3.519390e-22
5.980000e+02 4.120804e-22
5.990000e+02 4.822383e-22
6.000000e+02 5.640376e-22
6.010000e+02 6.593590e-22
6.020000e+02 7.703793e-22
6.030000e+02 8.996163e-22
6.040000e+02 1.049980e-21
6.050000e+02 1.224834e-21
6.060000e+02 1.428060e-21
6.070000e+02 1.664142e-21
6.080000e+02 1.938251e-21
6.090000e+02 2.256349e-21
6.100000e+02 2.625308e-21
6.110000e+02 3.053046e-21
6.120000e+02 3.548677e-21
6.130000e+02 4.122690e-21
6.140000e+02 4.787151e-21
6.150000e+02 5.555931e-21
6.160000e+02 6.444969e-21
6.170000e+02 7.472574e-21
6.180000e+02 8.659764e-21
6.190000e+02 1.003066e-20
6.200000e+02 1.161291e-20
6.210000e+02 1.343824e-20
6.220000e+02 1.554298e-20
6.230000e+02 1.796875e-20
6.240000e+02 2.076318e-20
6.250000e+02 2.398080e-20
6.260000e+02 2.768394e-20
6.270000e+02 3.194388e-20
6.280000e+02 3.684208e-20
6.290000e+02 4.247154e-20
6.300000e+02 4.893848e-20
6.310000e+02 5.636369e-20
6.320000e+02 6.488656e-20
6.330000e+02 7.466353e-20
6.340000e+02 8.587457e-20
6.350000e+02 9.872425e-20
6.360000e+02 1.134456e-19
6.370000e+02 1.303035e-19
6.380000e+02 1.495998e-19
6.390000e+02 1.716772e-19
6.400000e+02 1.969257e-19
6.410000e+02 2.257880e-19
6.420000e+02 2.587671e-19
6.430000e+02 2.964338e-19
6.440000e+02 3.394361e-19
6.450000e+02 3.885086e-19
6.460000e+02 4.444844e-19
6.470000e+02 5.083075e-19
6.480000e+02 5.810473e-19
6.490000e+02 6.639148e-19
6.500000e+02 7.582805e-19
6.510000e+02 8.656952e-19
6.520000e+02 9.879127e-19
6.530000e+02 1.126916e-18
6.540000e+02 1.284944e-18
6.550000e+02 1.464529e-18
6.560000e+02 1.668528e-18
6.570000e+02 1.900166e-18
6.580000e+02 2.163083e-18
6.590000e+02 2.461381e-18
6.600000e+02 2.799687e-18
6.610000e+02 3.183215e-18
6.620000e+02 3.617838e-18
6.630000e+02 4.110168e-18
6.640000e+02 4.667650e-18
6.650000e+02 5.298658e-18
6.660000e+02 6.012613e-18
6.670000e+02 6.820105e-18
6.680000e+02 7.733039e-18
6.690000e+02 8.764788e-18
6.700000e+02 9.930369e-18
6.710000e+02 1.124664e-17
6.720000e+02 1.273253e-17
6.730000e+02 1.440926e-17
6.740000e+02 1.630063e-17
6.750000e+02 1.843332e-17
6.760000e+02 2.083724e-17
6.770000e+02 2.354586e-17
6.780000e+02 2.659670e-17
6.790000e+02 3.003173e-17
6.800000e+02 3.389793e-17
6.810000e+02 3.824783e-17
6.820000e+02 4.314018e-17
6.830000e+02 4.864066e-17
6.840000e+02 5.482263e-17
6.850000e+02 6.176805e-17
6.860000e+02 6.956845e-17
6.870000e+02 7.832598e-17
6.880000e+02 8.815460e-17
6.890000e+02 9.918148e-17
6.900000e+02 1.115484e-16
6.910000e+02 1.254133e-16
6.920000e+02 1.409524e-16
6.930000e+02 1.583618e-16
6.940000e+02 1.778599e-16
6.950000e+02 1.996898e-16
6.960000e+02 2.241222e-16
6.970000e+02 2.514581e-16
6.980000e+02 2.820322e-16
6.990000e+02 3.162166e-16
7.000000e+02 3.544250e-16
7.010000e+02 3.971167e-16
7.020000e+02 4.448022e-16
7.030000e+02 4.980479e-16
7.040000e+02 5.574828e-16
7.050000e+02 6.238045e-16
7.060000e+02 6.977870e-16
7.070000e+02 7.802886e-16
7.080000e+02 8.722604e-16
7.090000e+02 9.747568e-16
7.100000e+02 1.088946e-15
7.110000e+02 1.216120e-15
7.120000e+02 1.357712e-15
7.130000e+02 1.515306e-15
7.140000e+02 1.690656e-15
7.150000e+02 1.885701e-15
7.160000e+02 2.102586e-15
7.170000e+02 2.343682e-15
7.180000e+02 2.611608e-15
7.190000e+02 2.909258e-15
7.200000e+02 3.239829e-15
7.210000e+02 3.606851e-15
7.220000e+02 4.014219e-15
7.230000e+02 4.466231e-15
7.240000e+02 4.967628e-15
7.250000e+02 5.523640e-15
7.260000e+02 6.140033e-15
7.270000e+02 6.823158e-15
7.280000e+02 7.580017e-15
7.290000e+02 8.418322e-15
7.300000e+02 9.346566e-15
7.310000e+02 1.037409e-14
7.320000e+02 1.151120e-14
7.330000e+02 1.276919e-14
7.340000e+02 1.416054e-14
7.350000e+02 1.569892e-14
7.360000e+02 1.739939e-14
7.370000e+02 1.927849e-14
7.380000e+02 2.135440e-14
7.390000e+02 2.364708e-14
7.400000e+02 2.617846e-14
7.410000e+02 2.897260e-14
7.420000e+02 3.205591e-14
7.430000e+02 3.545738e-14
7.440000e+02 3.920879e-14
7.450000e+02 4.334501e-14
7.460000e+02 4.790426e-14
7.470000e+02 5.292842e-14
7.480000e+02 5.846339e-14
7.490000e+02 6.455946e-14
7.500000e+02 7.127170e-14
7.510000e+02 7.866037e-14
7.520000e+02 8.679148e-14
7.530000e+02 9.573725e-14
7.540000e+02 1.055767e-13
7.550000e+02 1.163961e-13
7.560000e+02 1.282901e-13
7.570000e+02 1.413620e-13
7.580000e+02 1.557245e-13
7.590000e+02 1.715010e-13
7.600000e+02 1.888263e-13
7.610000e+02 2.078474e-13
7.620000e+02 2.287250e-13
7.630000e+02 2.516344e-13
7.640000e+02 2.767668e-13
7.650000e+02 3.043311e-13
7.660000e+02 3.345548e-13
7.670000e+02 3.676861e-13
7.680000e+02 4.039957e-13
7.690000e+02 4.437784e-13
7.700000e+02 4.873557e-13
7.710000e+02 5.350775e-13
7.720000e+02 5.873252e-13
7.730000e+02 6.445137e-13
7.740000e+02 7.070951e-13
7.750000e+02 7.755611e-13
7.760000e+02 8.504469e-13
7.770000e+02 9.323344e-13
7.780000e+02 1.021857e-12
7.790000e+02 1.119702e-12
7.800000e+02 1.226618e-12
7.810000e+02 1.343419e-12
7.820000e+02 1.470988e-12
7.830000e+02 1.610283e-12
7.840000e+02 1.762349e-12
7.850000e+02 1.928315e-12
7.860000e+02 2.109411e-12
7.870000e+02 2.306969e-12
7.880000e+02 2.522436e-12
7.890000e+02 2.757381e-12
7.900000e+02 3.013506e-12
7.910000e+02 3.292655e-12
7.920000e+02 3.596830e-12
7.930000e+02 3.928197e-12
7.940000e+02 4.289106e-12
7.950000e+02 4.682101e-12
7.960000e+02 5.109939e-12
7.970000e+02 5.575604e-12
7.980000e+02 6.082328e-12
7.990000e+02 6.633607e-12
8.000000e+02 7.233226e-12
8.010000e+02 7.885280e-12
8.020000e+02 8.594197e-12
8.030000e+02 9.364769e-12
8.040000e+02 1.020217e-11
8.050000e+02 1.111201e-11
8.060000e+02 1.210032e-11
8.070000e+02 1.317366e-11
8.080000e+02 1.433907e-11
8.090000e+02 1.560420e-11
8.100000e+02 1.697727e-11
8.110000e+02 1.846718e-11
8.120000e+02 2.008353e-11
8.130000e+02 2.183667e-11
8.140000e+02 2.373780e-11
8.150000e+02 2.579896e-11
8.160000e+02 2.803315e-11
8.170000e+02 3.045441e-11
8.180000e+02 3.307785e-11
8.190000e+02 3.591976e-11
8.200000e+02 3.899770e-11
8.210000e+02 4.233060e-11
8.220000e+02 4.593884e-11
8.230000e+02 4.984436e-11
8.240000e+02 5.407080e-11
8.250000e+02 5.864361e-11
8.260000e+02 6.359018e-11
8.270000e+02 6.893998e-11
8.280000e+02 7.472473e-11
8.290000e+02 8.097855e-11
8.300000e+02 8.773813e-11
8.310000e+02 9.504292e-11
8.320000e+02 1.029353e-10
8.330000e+02 1.114610e-10
8.340000e+02 1.206689e-10
8.350000e+02 1.306118e-10
8.360000e+02 1.413460e-10
8.370000e+02 1.529326e-10
8.380000e+02 1.654366e-10
8.390000e+02 1.789282e-10
8.400000e+02 1.934825e-10
8.410000e+02 2.091803e-10
8.420000e+02 2.261083e-10
8.430000e+02 2.443593e-10
8.440000e+02 2.640330e-10
8.450000e+02 2.852364e-10
8.460000e+02 3.080842e-10
8.470000e+02 3.326993e-10
8.480000e+02 3.592134e-10
8.490000e+02 3.877677e-10
8.500000e+02 4.185137e-10
8.510000e+02 4.516134e-10
8.520000e+02 4.872404e-10
8.530000e+02 5.255809e-10
8.540000e+02 5.668338e-10
8.550000e+02 6.112125e-10
8.560000e+02 6.589451e-10
8.570000e+02 7.102758e-10
8.580000e+02 7.654661e-10
8.590000e+02 8.247955e-10
8.600000e+02 8.885632e-10
8.610000e+02 9.570887e-10
8.620000e+02 1.030715e-09
8.630000e+02 1.109806e-09
8.640000e+02 1.194754e-09
8.650000e+02 1.285976e-09
8.660000e+02 1.383919e-09
8.670000e+02 1.489059e-09
8.680000e+02 1.601906e-09
8.690000e+02 1.723004e-09
8.700000e+02 1.852934e-09
8.710000e+02 1.992316e-09
8.720000e+02 2.141812e-09
8.730000e+02 2.302129e-09
8.740000e+02 2.474021e-09
8.750000e+02 2.658293e-09
8.760000e+02 2.855802e-09
8.770000e+02 3.067466e-09
8.780000e+02 3.294259e-09
8.790000e+02 3.537223e-09
8.800000e+02 3.797467e-09
8.810000e+02 4.076176e-09
8.820000e+02 4.374609e-09
8.830000e+02 4.694110e-09
8.840000e+02 5.036110e-09
8.850000e+02 5.402134e-09
8.860000e+02 5.793806e-09
8.870000e+02 6.212856e-09
8.880000e+02 6.661125e-09
8.890000e+02 7.140572e-09
8.900000e+02 7.653284e-09
8.910000e+02 8.201483e-09
8.920000e+02 8.787530e-09
8.930000e+02 9.413939e-09
8.940000e+02 1.008338e-08
8.950000e+02 1.079871e-08
8.960000e+02 1.156294e-08
8.970000e+02 1.237929e-08
8.980000e+02 1.325118e-08
8.990000e+02 1.418225e-08
9.000000e+02 1.517634e-08
9.010000e+02 1.623758e-08
9.020000e+02 1.737032e-08
9.030000e+02 1.857918e-08
9.040000e+02 1.986910e-08
9.050000e+02 2.124529e-08
9.060000e+02 2.271331e-08
9.070000e+02 2.427903e-08
9.080000e+02 2.594872e-08
9.090000e+02 2.772901e-08
9.100000e+02 2.962694e-08
9.110000e+02 3.164999e-08
9.120000e+02 3.380608e-08
9.130000e+02 3.610361e-08
9.140000e+02 3.933405e-08
9.150000e+02 9.964478e-06
9.160000e+02 4.764521e-05
9.170000e+02 8.469669e-07
9.180000e+02 1.281994e-05
9.190000e+02 1.302036e-04
9.200000e+02 3.305356e-04
9.210000e+02 6.076769e-08
9.220000e+02 7.861629e-05
9.230000e+02 1.091137e-06
9.240000e+02 1.402455e-06
9.250000e+02 1.211069e-05
9.260000e+02 1.738985e-05
9.270000e+02 1.182992e-06
9.280000e+02 1.419444e-03
9.290000e+02 1.634403e-03
9.300000e+02 4.069872e-04
9.310000e+02 1.601808e-06
9.320000e+02 1.341945e-03
9.330000e+02 6.686279e-05
9.340000e+02 1.928466e-05
9.350000e+02 5.614155e-06
9.360000e+02 3.359047e-06
9.370000e+02 8.712198e-07
9.380000e+02 3.868771e-06
9.390000e+02 9.499627e-06
9.400000e+02 6.733187e-04
9.410000e+02 1.077724e-04
9.420000e+02 4.907579e-03
9.430000e+02 1.399859e-05
9.440000e+02 5.615878e-03
9.450000e+02 4.485637e-03
9.460000e+02 2.122537e-04
9.470000e+02 5.572583e-07
9.480000e+02 1.381580e-03
9.490000e+02 2.331712e-04
9.500000e+02 7.247465e-06
9.510000e+02 1.881060e-04
9.520000e+02 3.940933e-04
9.530000e+02 3.281128e-06
9.540000e+02 6.833004e-07
9.550000e+02 3.561052e-05
9.560000e+02 4.786703e-03
9.570000e+02 1.888210e-05
9.580000e+02 6.114278e-07
9.590000e+02 1.593603e-03
9.600000e+02 1.355165e-05
9.610000e+02 2.891845e-04
9.620000e+02 1.071273e-04
9.630000e+02 2.280320e-05
9.640000e+02 4.966314e-06
9.650000e+02 1.761597e-06
9.660000e+02 3.837701e-05
9.670000e+02 7.233117e-06
9.680000e+02 4.920643e-06
9.690000e+02 2.311519e-04
9.700000e+02 2.709067e-04
9.710000e+02 1.088552e-05
9.720000e+02 5.687121e-06
9.730000e+02 6.292540e-05
9.740000e+02 3.012558e-04
9.750000e+02 7.962021e-05
9.760000e+02 2.681121e-03
9.770000e+02 1.204220e-03
9.780000e+02 4.510388e-04
9.790000e+02 2.123749e-02
9.800000e+02 1.725404e-02
9.810000e+02 3.012875e-04
9.820000e+02 5.749869e-05
9.830000e+02 9.421918e-03
9.840000e+02 1.017060e-03
9.850000e+02 1.439702e-04
9.860000e+02 2.349750e-04
9.870000e+02 1.046484e-02
9.880000e+02 5.550683e-06
9.890000e+02 1.497479e-03
9.900000e+02 4.934818e-03
9.910000e+02 5.825935e-05
9.920000e+02 4.242855e-06
9.930000e+02 4.118416e-02
9.940000e+02 9.831972e-06
9.950000e+02 1.875283e-03
9.960000e+02 1.830515e-05
9.970000e+02 2.807027e-03
9.980000e+02 5.483585e-03
9.990000e+02 1.057931e-04
1.000000e+03 7.306031e-02
1.001000e+03 5.521870e-02
1.002000e+03 3.205911e-02
1.003000e+03 1.101587e-04
1.004000e+03 1.064315e-05
1.005000e+03 3.759190e-04
1.006000e+03 1.962534e-02
1.007000e+03 4.048710e-02
1.008000e+03 9.228882e-03
1.009000e+03 1.748535e-04
1.010000e+03 9.784355e-03
1.011000e+03 1.587320e-02
1.012000e+03 1.336237e-02
1.013000e+03 1.197578e-02
1.014000e+03 1.387997e-05
1.015000e+03 1.891796e-05
1.016000e+03 4.846174e-04
1.017000e+03 1.616776e-05
1.018000e+03 1.698453e-04
1.019000e+03 2.049655e-05
1.020000e+03 3.056700e-02
1.021000e+03 3.128760e-04
1.022000e+03 4.579350e-04
1.023000e+03 3.571250e-05
1.024000e+03 6.889446e-03
1.025000e+03 2.449719e-05
1.026000e+03 4.606092e-05
1.027000e+03 1.581873e-03
1.028000e+03 2.921205e-04
1.029000e+03 3.013108e-05
1.030000e+03 1.922488e-03
1.031000e+03 3.424473e-03
1.032000e+03 4.534221e-02
1.033000e+03 2.292320e-03
1.034000e+03 4.682531e-03
1.035000e+03 2.058353e-04
1.036000e+03 4.331023e-05
1.037000e+03 3.377418e-02
1.038000e+03 2.456019e-01
1.039000e+03 3.513688e-02
1.040000e+03 3.593981e-02
1.041000e+03 3.004423e-01
1.042000e+03 1.310558e-01
1.043000e+03 1.441229e-01
1.044000e+03 9.182885e-01
1.045000e+03 1.524549e-04
1.046000e+03 3.520040e-02
1.047000e+03 1.150513e-02
1.048000e+03 2.906229e-04
1.049000e+03 1.182841e-02
1.050000e+03 3.661007e-03
1.051000e+03 2.022594e-03
1.052000e+03 1.637458e-01
1.053000e+03 3.562457e-01
1.054000e+03 1.048669e-04
1.055000e+03 4.688252e-01
1.056000e+03 5.091226e-01
1.057000e+03 3.369234e-02
1.058000e+03 2.040260e-03
1.059000e+03 1.643032e-03
1.060000e+03 4.594922e-04
1.061000e+03 5.665183e-02
1.062000e+03 1.110363e-03
1.063000e+03 4.984122e-02
1.064000e+03 3.151894e-04
1.065000e+03 1.780391e-04
1.066000e+03 8.335596e-02
1.067000e+03 1.322904e-03
1.068000e+03 1.347406e+00
1.069000e+03 3.877403e-04
1.070000e+03 1.758766e-02
1.071000e+03 3.011542e-01
1.072000e+03 9.585513e-01
1.073000e+03 2.644062e-04
1.074000e+03 3.721160e-02
1.075000e+03 2.157664e-02
1.076000e+03 1.097024e+00
1.077000e+03 1.635581e-03
1.078000e+03 2.856553e-03
1.079000e+03 1.268473e-02
1.080000e+03 4.780394e-02
1.081000e+03 2.131176e-01
1.082000e+03 1.189610e-01
1.083000e+03 6.288564e-02
1.084000e+03 3.524449e+00
1.085000e+03 1.648569e-02
1.086000e+03 1.950949e+00
1.087000e+03 3.458261e-03
1.088000e+03 4.715291e+00
1.089000e+03 4.842703e+00
1.090000e+03 1.311654e-02
1.091000e+03 1.893187e-02
1.092000e+03 3.040916e+00
1.093000e+03 4.129181e+00
1.094000e+03 1.677769e-01
1.095000e+03 6.820478e+00
1.096000e+03 6.142955e-01
1.097000e+03 7.738547e-01
1.098000e+03 5.437532e+00
1.099000e+03 4.918861e-02
1.100000e+03 1.300886e-03
1.101000e+03 3.031172e-03
1.102000e+03 3.167650e-02
1.103000e+03 4.713758e+00
1.104000e+03 8.447247e+00
1.105000e+03 6.373460e+00
1.106000e+03 1.503499e-01
1.107000e+03 2.021551e-03
1.108000e+03 1.002616e+00
1.109000e+03 1.877952e-02
1.110000e+03 9.790481e+00
1.111000e+03 3.377261e+00
1.112000e+03 4.393548e-01
1.113000e+03 6.529113e+00
1.114000e+03 2.626506e-01
1.115000e+03 2.442254e-02
1.116000e+03 1.015679e-02
1.117000e+03 3.676180e+00
1.118000e+03 3.132296e-02
1.119000e+03 5.297402e-01
1.120000e+03 1.376867e-02
1.121000e+03 2.358142e+00
1.122000e+03 1.558765e+01
1.123000e+03 5.341043e+00
1.124000e+03 6.244264e+00
1.125000e+03 2.521536e+00
1.126000e+03 3.044594e+01
1.127000e+03 3.571124e+00
1.128000e+03 1.390631e+01
1.129000e+03 1.506673e+00
1.130000e+03 9.676959e+00
1.131000e+03 1.515538e+01
1.132000e+03 2.537715e-02
1.133000e+03 1.580429e-01
1.134000e+03 1.815714e+00
1.135000e+03 1.251668e+01
1.136000e+03 3.376818e-01
1.137000e+03 6.804750e+00
1.138000e+03 1.488940e+00
1.139000e+03 1.539888e+01
1.140000e+03 1.503987e+01
1.141000e+03 1.290670e+01
1.142000e+03 1.932818e+01
1.143000e+03 2.125053e+00
1.144000e+03 1.856834e+01
1.145000e+03 1.468277e-02
1.146000e+03 2.142045e+01
1.147000e+03 1.545167e+01
1.148000e+03 9.714508e-02
1.149000e+03 7.673830e+00
1.150000e+03 5.046311e+00
1.151000e+03 1.964450e+01
1.152000e+03 1.054846e+01
1.153000e+03 1.587255e+01
1.154000e+03 2.235402e+01
1.155000e+03 6.874424e+00
1.156000e+03 1.767511e+01
1.157000e+03 2.039450e+01
1.158000e+03 2.451292e+00
1.159000e+03 1.821634e+01
1.160000e+03 3.083169e+00
1.161000e+03 1.557831e+01
1.162000e+03 4.134588e-01
1.163000e+03 1.394889e+00
1.164000e+03 1.162295e-01
1.165000e+03 7.765612e+00
1.166000e+03 4.494057e+00
1.167000e+03 3.931763e+00
1.168000e+03 2.139852e+01
1.169000e+03 2.340147e+01
1.170000e+03 2.933571e+00
1.171000e+03 1.059494e+01
1.172000e+03 4.320325e+00
1.173000e+03 9.124727e+00
1.174000e+03 8.351231e-02
1.175000e+03 7.260776e-02
1.176000e+03 2.819908e-02
1.177000e+03 2.897179e+01
1.178000e+03 2.811418e+01
1.179000e+03 2.363250e+01
1.180000e+03 9.599792e+00
1.181000e+03 2.494544e+01
1.182000e+03 2.110428e+01
1.183000e+03 9.993350e+00
1.184000e+03 8.113461e+00
1.185000e+03 1.045191e+01
1.186000e+03 4.147252e-01
1.187000e+03 1.585709e+01
1.188000e+03 6.112148e+00
1.189000e+03 2.056192e+01
1.190000e+03 1.961332e+01
1.191000e+03 1.423823e+01
1.192000e+03 1.655454e+01
1.193000e+03 1.228322e+01
1.194000e+03 1.595218e+01
1.195000e+03 1.511074e+01
1.196000e+03 7.405914e+01
1.197000e+03 1.484108e+02
1.198000e+03 1.229782e+00
1.199000e+03 1.335368e+02
1.200000e+03 3.775148e+00
1.201000e+03 1.004996e+02
1.202000e+03 2.213128e+01
1.203000e+03 6.688489e+01
1.204000e+03 3.931468e+00
1.205000e+03 4.580375e+01
1.206000e+03 4.425459e+01
1.207000e+03 1.031258e+01
1.208000e+03 2.531709e+01
1.209000e+03 2.249927e+01
1.210000e+03 1.290312e-01
1.211000e+03 9.541906e+00
1.212000e+03 4.187218e+00
1.213000e+03 2.505359e+00
1.214000e+03 8.032834e-01
1.215000e+03 1.272512e-01
1.216000e+03 9.288040e-02
1.217000e+03 5.098506e-01
1.218000e+03 2.094384e+00
1.219000e+03 5.175343e+00
1.220000e+03 3.608071e+00
1.221000e+03 1.800640e+01
1.222000e+03 2.282106e+01
1.223000e+03 2.277063e+01
1.224000e+03 5.352919e+01
1.225000e+03 2.062668e+00
1.226000e+03 1.027843e+02
1.227000e+03 1.190137e+02
1.228000e+03 1.416915e+01
1.229000e+03 1.143891e+02
1.230000e+03 8.040154e+01
1.231000e+03 8.187119e+00
1.232000e+03 2.902044e+02
1.233000e+03 3.356749e+02
1.234000e+03 3.206011e+02
1.235000e+03 2.898502e+02
1.236000e+03 2.240526e+01
1.237000e+03 4.365960e+02
1.238000e+03 3.738909e+02
1.239000e+03 1.444559e+02
1.240000e+03 2.415596e+02
1.241000e+03 1.579602e+02
1.242000e+03 3.546509e+02
1.243000e+03 6.119951e+02
1.244000e+03 6.822729e+02
1.245000e+03 6.031551e+02
1.246000e+03 3.136912e+02
1.247000e+03 4.732757e+02
1.248000e+03 6.514149e+02
1.249000e+03 8.747194e+02
1.250000e+03 5.347957e+02
1.251000e+03 8.515428e+02
1.252000e+03 5.838313e+02
1.253000e+03 9.368272e+02
1.254000e+03 6.507649e+02
1.255000e+03 3.253272e+02
1.256000e+03 5.040552e+02
1.257000e+03 6.191585e+02
1.258000e+03 2.298688e+02
1.259000e+03 3.909988e+02
1.260000e+03 9.801913e+02
1.261000e+03 4.222229e+01
1.262000e+03 1.096462e+03
1.263000e+03 8.261682e+02
1.264000e+03 3.090201e+02
1.265000e+03 3.402186e+02
1.266000e+03 1.113820e+03
1.267000e+03 4.952445e+02
