# wavelength_A flux
5.000000e+02 6.339474e-42
5.010000e+02 8.410593e-42
5.020000e+02 1.114453e-41
5.030000e+02 1.475007e-41
5.040000e+02 1.949907e-41
5.050000e+02 1.968124e-41
5.060000e+02 2.597307e-41
5.070000e+02 3.429958e-41
5.080000e+02 4.514143e-41
5.090000e+02 5.941926e-41
5.100000e+02 1.713844e-40
5.110000e+02 1.026115e-40
5.120000e+02 1.348708e-40
5.130000e+02 1.764431e-40
5.140000e+02 2.309942e-40
5.150000e+02 3.021143e-40
5.160000e+02 3.947374e-40
5.170000e+02 5.150416e-40
5.180000e+02 6.714350e-40
5.190000e+02 8.744116e-40
5.200000e+02 1.137577e-39
5.210000e+02 1.478454e-39
5.220000e+02 1.921954e-39
5.230000e+02 2.489597e-39
5.240000e+02 3.225390e-39
5.250000e+02 4.174718e-39
5.260000e+02 5.398095e-39
5.270000e+02 6.973043e-39
5.280000e+02 8.998589e-39
5.290000e+02 1.160110e-38
5.300000e+02 1.494166e-38
5.310000e+02 1.922544e-38
5.320000e+02 2.471345e-38
5.330000e+02 3.173753e-38
5.340000e+02 4.071916e-38
5.350000e+02 5.219352e-38
5.360000e+02 6.684330e-38
5.370000e+02 9.840390e-38
5.380000e+02 1.093043e-37
5.390000e+02 1.395622e-37
5.400000e+02 1.780477e-37
5.410000e+02 2.270139e-37
5.420000e+02 2.889946e-37
5.430000e+02 3.676833e-37
5.440000e+02 4.673747e-37
5.450000e+02 5.935615e-37
5.460000e+02 7.531432e-37
5.470000e+02 9.547789e-37
5.480000e+02 1.209326e-36
5.490000e+02 1.530389e-36
5.500000e+02 1.934995e-36
5.510000e+02 2.444442e-36
5.520000e+02 3.085342e-36
5.530000e+02 3.890924e-36
5.540000e+02 4.902734e-36
5.550000e+02 6.172161e-36
5.560000e+02 7.763836e-36
5.570000e+02 9.757742e-36
5.580000e+02 1.225347e-35
5.590000e+02 1.537463e-35
5.600000e+02 1.927485e-35
5.610000e+02 2.414454e-35
5.620000e+02 3.021973e-35
5.630000e+02 3.779268e-35
5.640000e+02 4.722502e-35
5.650000e+02 5.896385e-35
5.660000e+02 7.356151e-35
5.670000e+02 9.169981e-35
5.680000e+02 1.142197e-34
5.690000e+02 1.421577e-34
5.700000e+02 1.767901e-34
5.710000e+02 2.196878e-34
5.720000e+02 2.727821e-34
5.730000e+02 3.384463e-34
5.740000e+02 4.195939e-34
5.750000e+02 5.197997e-34
5.760000e+02 6.433559e-34
5.770000e+02 7.956917e-34
5.780000e+02 9.834793e-34
5.790000e+02 1.214676e-33
5.800000e+02 1.499109e-33
5.810000e+02 1.848787e-33
5.820000e+02 2.278404e-33
5.830000e+02 2.806142e-33
5.840000e+02 3.465641e-33
5.850000e+02 4.249019e-33
5.860000e+02 5.216644e-33
5.870000e+02 6.404666e-33
5.880000e+02 7.858135e-33
5.890000e+02 9.634744e-33
5.900000e+02 1.180503e-32
5.910000e+02 1.445325e-32
5.920000e+02 1.768364e-32
5.930000e+02 2.162095e-32
5.940000e+02 2.641657e-32
5.950000e+02 3.225358e-32
5.960000e+02 3.935335e-32
5.970000e+02 4.798296e-32
5.980000e+02 5.846520e-32
5.990000e+02 7.118918e-32
6.000000e+02 8.662422e-32
6.010000e+02 1.053343e-31
6.020000e+02 1.280007e-31
6.030000e+02 1.554414e-31
6.040000e+02 1.886401e-31
6.050000e+02 2.287790e-31
6.060000e+02 2.772772e-31
6.070000e+02 3.358378e-31
6.080000e+02 4.065030e-31
6.090000e+02 4.917202e-31
6.100000e+02 5.944208e-31
6.110000e+02 7.181132e-31
6.120000e+02 8.669939e-31
6.130000e+02 1.046080e-30
6.140000e+02 1.261364e-30
6.150000e+02 1.520004e-30
6.160000e+02 1.830537e-30
6.170000e+02 2.203146e-30
6.180000e+02 2.649966e-30
6.190000e+02 3.185454e-30
6.200000e+02 3.826804e-30
6.210000e+02 4.594496e-30
6.220000e+02 5.512860e-30
6.230000e+02 6.610812e-30
6.240000e+02 7.922687e-30
6.250000e+02 9.489242e-30
6.260000e+02 1.135880e-29
6.270000e+02 1.358868e-29
6.280000e+02 1.624676e-29
6.290000e+02 1.941344e-29
6.300000e+02 2.318398e-29
6.310000e+02 2.792206e-29
6.320000e+02 3.300659e-29
6.330000e+02 3.934887e-29
6.340000e+02 4.688329e-29
6.350000e+02 5.584378e-29
6.360000e+02 6.644257e-29
6.370000e+02 7.903048e-29
6.380000e+02 9.395061e-29
6.390000e+02 1.116253e-28
6.400000e+02 1.325515e-28
6.410000e+02 1.573141e-28
6.420000e+02 1.865995e-28
6.430000e+02 2.212161e-28
6.440000e+02 2.621118e-28
6.450000e+02 3.103995e-28
6.460000e+02 3.673849e-28
6.470000e+02 4.345987e-28
6.480000e+02 5.138349e-28
6.490000e+02 6.071944e-28
6.500000e+02 7.171371e-28
6.510000e+02 8.465393e-28
6.520000e+02 9.987675e-28
6.530000e+02 1.177755e-27
6.540000e+02 1.388098e-27
6.550000e+02 1.635161e-27
6.560000e+02 1.925206e-27
6.570000e+02 2.265538e-27
6.580000e+02 2.664674e-27
6.590000e+02 3.132538e-27
6.600000e+02 3.680689e-27
6.610000e+02 4.322583e-27
6.620000e+02 5.073878e-27
6.630000e+02 5.952786e-27
6.640000e+02 6.980475e-27
6.650000e+02 8.181540e-27
6.660000e+02 9.583909e-27
6.670000e+02 1.122192e-26
6.680000e+02 1.313350e-26
6.690000e+02 1.536324e-26
6.700000e+02 1.796285e-26
6.710000e+02 2.099225e-26
6.720000e+02 2.452081e-26
6.730000e+02 2.862884e-26
6.740000e+02 3.340924e-26
6.750000e+02 3.896946e-26
6.760000e+02 4.543370e-26
6.770000e+02 5.294542e-26
6.780000e+02 6.167035e-26
6.790000e+02 7.179976e-26
6.800000e+02 8.355433e-26
6.810000e+02 9.718859e-26
6.820000e+02 1.129959e-25
6.830000e+02 1.313144e-25
6.840000e+02 1.525334e-25
6.850000e+02 1.771011e-25
6.860000e+02 2.055334e-25
6.870000e+02 2.384235e-25
6.880000e+02 2.764535e-25
6.890000e+02 3.204073e-25
6.900000e+02 3.711854e-25
6.910000e+02 4.298216e-25
6.920000e+02 4.975026e-25
6.930000e+02 5.755907e-25
6.940000e+02 6.656444e-25
6.950000e+02 7.694559e-25
6.960000e+02 8.890746e-25
6.970000e+02 1.026849e-24
6.980000e+02 1.185468e-24
6.990000e+02 1.368014e-24
7.000000e+02 1.577985e-24
7.010000e+02 1.819428e-24
7.020000e+02 2.096933e-24
7.030000e+02 2.415756e-24
7.040000e+02 2.781896e-24
7.050000e+02 3.202204e-24
7.060000e+02 3.684837e-24
7.070000e+02 4.237685e-24
7.080000e+02 4.871940e-24
7.090000e+02 5.598845e-24
7.100000e+02 6.431599e-24
7.110000e+02 7.385234e-24
7.120000e+02 8.476860e-24
7.130000e+02 9.725951e-24
7.140000e+02 1.115465e-23
7.150000e+02 1.278815e-23
7.160000e+02 1.465507e-23
7.170000e+02 1.678794e-23
7.180000e+02 1.922368e-23
7.190000e+02 2.200424e-23
7.200000e+02 2.517720e-23
7.210000e+02 2.879657e-23
7.220000e+02 3.292355e-23
7.230000e+02 3.762755e-23
7.240000e+02 4.298722e-23
7.250000e+02 4.909165e-23
7.260000e+02 5.604172e-23
7.270000e+02 6.395160e-23
7.280000e+02 7.295051e-23
7.290000e+02 8.318456e-23
7.300000e+02 9.481899e-23
7.310000e+02 1.080411e-22
7.320000e+02 1.230603e-22
7.330000e+02 1.401102e-22
7.340000e+02 1.594712e-22
7.350000e+02 1.814414e-22
7.360000e+02 2.063659e-22
7.370000e+02 2.346235e-22
7.380000e+02 2.666576e-22
7.390000e+02 3.029567e-22
7.400000e+02 3.440740e-22
7.410000e+02 3.906328e-22
7.420000e+02 4.433345e-22
7.430000e+02 5.029688e-22
7.440000e+02 5.704241e-22
7.450000e+02 6.466995e-22
7.460000e+02 7.329186e-22
7.470000e+02 8.303441e-22
7.480000e+02 9.403948e-22
7.490000e+02 1.064664e-21
7.500000e+02 1.204942e-21
7.510000e+02 1.363236e-21
7.520000e+02 1.541801e-21
7.530000e+02 1.743164e-21
7.540000e+02 1.970161e-21
7.550000e+02 2.225968e-21
7.560000e+02 2.514148e-21
7.570000e+02 2.838702e-21
7.580000e+02 3.204058e-21
7.590000e+02 3.615257e-21
7.600000e+02 4.077885e-21
7.610000e+02 4.598203e-21
7.620000e+02 5.183216e-21
7.630000e+02 5.840755e-21
7.640000e+02 6.579574e-21
7.650000e+02 7.409906e-21
7.660000e+02 8.341405e-21
7.670000e+02 9.387382e-21
7.680000e+02 1.056130e-20
7.690000e+02 1.188058e-20
7.700000e+02 1.335498e-20
7.710000e+02 1.501071e-20
7.720000e+02 1.686642e-20
7.730000e+02 1.894561e-20
7.740000e+02 2.127447e-20
7.750000e+02 2.388219e-20
7.760000e+02 2.680125e-20
7.770000e+02 3.006783e-20
7.780000e+02 3.372221e-20
7.790000e+02 3.780916e-20
7.800000e+02 4.237851e-20
7.810000e+02 4.748568e-20
7.820000e+02 5.319226e-20
7.830000e+02 5.956668e-20
7.840000e+02 6.668499e-20
7.850000e+02 7.463167e-20
7.860000e+02 8.350046e-20
7.870000e+02 9.339287e-20
7.880000e+02 1.044293e-19
7.890000e+02 1.167357e-19
7.900000e+02 1.304540e-19
7.910000e+02 1.457420e-19
7.920000e+02 1.628115e-19
7.930000e+02 1.817441e-19
7.940000e+02 2.028664e-19
7.950000e+02 2.263784e-19
7.960000e+02 2.525431e-19
7.970000e+02 2.816515e-19
7.980000e+02 3.140258e-19
7.990000e+02 3.500223e-19
8.000000e+02 3.900350e-19
8.010000e+02 4.344997e-19
8.020000e+02 4.838980e-19
8.030000e+02 5.387622e-19
8.040000e+02 5.996802e-19
8.050000e+02 6.805834e-19
8.060000e+02 7.423559e-19
8.070000e+02 8.255978e-19
8.080000e+02 9.179378e-19
8.090000e+02 1.020327e-18
8.100000e+02 1.133830e-18
8.110000e+02 1.259618e-18
8.120000e+02 1.398985e-18
8.130000e+02 1.553353e-18
8.140000e+02 1.724330e-18
8.150000e+02 1.913537e-18
8.160000e+02 2.122986e-18
8.170000e+02 2.354737e-18
8.180000e+02 2.611098e-18
8.190000e+02 2.894610e-18
8.200000e+02 3.208066e-18
8.210000e+02 3.554563e-18
8.220000e+02 3.937411e-18
8.230000e+02 4.360395e-18
8.240000e+02 4.827573e-18
8.250000e+02 5.343434e-18
8.260000e+02 5.912906e-18
8.270000e+02 6.541402e-18
8.280000e+02 7.234864e-18
8.290000e+02 7.999818e-18
8.300000e+02 8.843421e-18
8.310000e+02 9.773531e-18
8.320000e+02 1.079876e-17
8.330000e+02 1.192857e-17
8.340000e+02 1.317330e-17
8.350000e+02 1.456151e-17
8.360000e+02 1.605408e-17
8.370000e+02 1.771619e-17
8.380000e+02 1.954561e-17
8.390000e+02 2.155868e-17
8.400000e+02 2.377330e-17
8.410000e+02 2.620908e-17
8.420000e+02 2.888744e-17
8.430000e+02 3.183241e-17
8.440000e+02 3.506883e-17
8.450000e+02 3.863327e-17
8.460000e+02 4.253032e-17
8.470000e+02 4.711251e-17
8.480000e+02 5.173643e-17
8.490000e+02 5.670361e-17
8.500000e+02 6.320233e-17
8.510000e+02 6.860777e-17
8.520000e+02 7.678870e-17
8.530000e+02 8.293415e-17
8.540000e+02 9.115168e-17
8.550000e+02 1.001690e-16
8.560000e+02 1.100326e-16
8.570000e+02 1.208514e-16
8.580000e+02 1.328898e-16
8.590000e+02 1.456854e-16
8.600000e+02 1.600670e-16
8.610000e+02 1.754667e-16
8.620000e+02 1.924984e-16
8.630000e+02 2.111394e-16
8.640000e+02 2.362970e-16
8.650000e+02 2.538420e-16
8.660000e+02 2.783577e-16
8.670000e+02 3.049108e-16
8.680000e+02 3.340675e-16
8.690000e+02 3.659337e-16
8.700000e+02 4.232679e-16
8.710000e+02 4.387863e-16
8.720000e+02 4.863535e-16
8.730000e+02 5.256794e-16
8.740000e+02 5.751970e-16
8.750000e+02 6.292431e-16
8.760000e+02 6.890506e-16
8.770000e+02 7.527256e-16
8.780000e+02 8.686779e-16
8.790000e+02 9.042338e-16
8.800000e+02 9.948680e-16
8.810000e+02 1.093416e-15
8.820000e+02 1.172972e-15
8.830000e+02 1.289220e-15
8.840000e+02 1.447915e-15
8.850000e+02 1.526836e-15
8.860000e+02 1.666491e-15
8.870000e+02 1.818438e-15
8.880000e+02 2.003187e-15
8.890000e+02 2.182576e-15
8.900000e+02 2.359907e-15
8.910000e+02 2.574330e-15
8.920000e+02 2.804893e-15
8.930000e+02 3.057098e-15
8.940000e+02 3.355987e-15
8.950000e+02 3.629075e-15
8.960000e+02 3.952880e-15
8.970000e+02 4.304721e-15
8.980000e+02 4.727896e-15
8.990000e+02 5.103025e-15
9.000000e+02 5.570368e-15
9.010000e+02 6.043154e-15
9.020000e+02 6.704962e-15
9.030000e+02 7.762591e-15
9.040000e+02 8.055338e-15
9.050000e+02 8.482043e-15
9.060000e+02 9.193970e-15
9.070000e+02 9.990530e-15
9.080000e+02 1.085788e-14
9.090000e+02 1.179719e-14
9.100000e+02 1.281292e-14
9.110000e+02 1.417241e-14
9.120000e+02 1.511140e-14
9.130000e+02 1.761985e-14
9.140000e+02 5.942224e-15
9.150000e+02 9.099857e-15
9.160000e+02 3.375455e-14
9.170000e+02 1.043117e-14
9.180000e+02 1.000713e-14
9.190000e+02 1.046875e-14
9.200000e+02 2.520867e-13
9.210000e+02 2.988204e-14
9.220000e+02 1.649384e-14
9.230000e+02 1.619782e-14
9.240000e+02 2.248439e-14
9.250000e+02 8.105618e-15
9.260000e+02 7.693070e-14
9.270000e+02 2.728056e-14
9.280000e+02 1.125712e-13
9.290000e+02 5.186408e-13
9.300000e+02 1.268985e-13
9.310000e+02 2.713644e-14
9.320000e+02 4.786259e-14
9.330000e+02 1.811100e-14
9.340000e+02 1.720403e-14
9.350000e+02 2.573794e-14
9.360000e+02 3.947243e-14
9.370000e+02 6.944713e-14
9.380000e+02 2.454060e-14
9.390000e+02 2.992049e-14
9.400000e+02 1.224084e-13
9.410000e+02 3.579240e-14
9.420000e+02 3.839115e-12
9.430000e+02 4.067694e-14
9.440000e+02 1.713594e-12
9.450000e+02 1.553466e-12
9.460000e+02 5.645166e-14
9.470000e+02 2.417136e-13
9.480000e+02 2.156801e-13
9.490000e+02 4.983447e-13
9.500000e+02 8.853569e-14
9.510000e+02 1.024130e-13
9.520000e+02 1.710077e-13
9.530000e+02 1.865644e-13
9.540000e+02 4.227465e-13
9.550000e+02 1.003291e-13
9.560000e+02 4.380183e-13
9.570000e+02 1.419952e-13
9.580000e+02 5.827079e-13
9.590000e+02 1.296284e-13
9.600000e+02 1.656760e-13
9.610000e+02 1.683114e-13
9.620000e+02 1.427332e-13
9.630000e+02 3.197204e-13
9.640000e+02 5.055629e-13
9.650000e+02 8.997878e-13
9.660000e+02 2.862799e-13
9.670000e+02 6.853258e-13
9.680000e+02 8.404717e-13
9.690000e+02 2.600304e-13
9.700000e+02 3.267776e-13
9.710000e+02 7.476966e-13
9.720000e+02 1.264064e-12
9.730000e+02 9.486574e-13
9.740000e+02 3.546309e-13
9.750000e+02 4.626187e-13
9.760000e+02 2.454692e-12
9.770000e+02 7.060784e-13
9.780000e+02 5.469049e-13
9.790000e+02 4.428083e-11
9.800000e+02 3.708592e-12
9.810000e+02 5.757131e-13
9.820000e+02 9.554461e-13
9.830000e+02 3.925321e-12
9.840000e+02 1.536338e-12
9.850000e+02 9.578506e-13
9.860000e+02 9.051543e-13
9.870000e+02 1.715611e-12
9.880000e+02 4.619409e-12
9.890000e+02 1.237025e-12
9.900000e+02 2.570876e-12
9.910000e+02 1.843973e-12
9.920000e+02 6.567950e-12
9.930000e+02 1.149700e-11
9.940000e+02 1.934287e-12
9.950000e+02 1.570879e-12
9.960000e+02 6.152354e-12
9.970000e+02 7.655587e-12
9.980000e+02 3.683799e-12
9.990000e+02 3.521537e-12
1.000000e+03 1.481645e-10
1.001000e+03 6.049741e-11
1.002000e+03 1.150881e-11
1.003000e+03 5.484099e-12
1.004000e+03 1.452443e-11
1.005000e+03 3.557696e-12
1.006000e+03 1.004398e-11
1.007000e+03 2.711550e-11
1.008000e+03 8.217180e-12
1.009000e+03 7.853657e-12
1.010000e+03 5.920334e-12
1.011000e+03 5.270442e-12
1.012000e+03 1.125007e-11
1.013000e+03 1.280788e-11
1.014000e+03 2.877485e-11
1.015000e+03 2.952392e-11
1.016000e+03 7.386040e-12
1.017000e+03 3.505056e-11
1.018000e+03 1.863245e-11
1.019000e+03 3.944056e-11
1.020000e+03 1.648317e-11
1.021000e+03 1.278016e-11
1.022000e+03 1.276554e-11
1.023000e+03 4.612013e-11
1.024000e+03 6.487125e-11
1.025000e+03 5.882697e-11
1.026000e+03 2.434497e-11
1.027000e+03 1.391321e-11
1.028000e+03 1.696735e-11
1.029000e+03 7.596402e-11
1.030000e+03 1.897620e-11
1.031000e+03 1.893085e-11
1.032000e+03 1.264678e-10
1.033000e+03 3.849931e-11
1.034000e+03 2.152075e-11
1.035000e+03 2.712826e-11
1.036000e+03 1.181426e-10
1.037000e+03 3.947724e-11
1.038000e+03 1.561733e-10
1.039000e+03 7.509104e-11
1.040000e+03 3.357546e-11
1.041000e+03 7.894235e-11
1.042000e+03 1.715861e-10
1.043000e+03 4.483511e-10
1.044000e+03 1.234643e-09
1.045000e+03 6.041299e-11
1.046000e+03 5.406403e-11
1.047000e+03 6.354861e-11
1.048000e+03 1.537936e-10
1.049000e+03 5.737849e-11
1.050000e+03 7.458385e-11
1.051000e+03 9.619558e-11
1.052000e+03 3.081827e-10
1.053000e+03 2.510882e-10
1.054000e+03 3.588866e-10
1.055000e+03 3.622036e-10
1.056000e+03 4.427479e-10
1.057000e+03 1.487824e-10
1.058000e+03 1.936839e-10
1.059000e+03 1.315575e-10
1.060000e+03 3.429950e-10
1.061000e+03 3.680443e-10
1.062000e+03 3.392561e-10
1.063000e+03 2.583852e-10
1.064000e+03 2.044942e-10
1.065000e+03 6.939539e-10
1.066000e+03 5.999200e-10
1.067000e+03 3.306907e-10
1.068000e+03 1.301810e-09
1.069000e+03 7.156159e-10
1.070000e+03 2.129430e-10
1.071000e+03 3.662787e-10
1.072000e+03 1.163497e-08
1.073000e+03 1.108446e-09
1.074000e+03 3.322722e-10
1.075000e+03 2.911560e-10
1.076000e+03 1.115643e-08
1.077000e+03 7.895226e-10
1.078000e+03 7.726548e-10
1.079000e+03 4.324356e-10
1.080000e+03 3.913340e-10
1.081000e+03 1.312170e-09
1.082000e+03 7.834611e-10
1.083000e+03 5.444072e-10
1.084000e+03 2.506829e-08
1.085000e+03 5.137712e-10
1.086000e+03 3.631009e-09
1.087000e+03 1.065907e-09
1.088000e+03 1.289623e-08
1.089000e+03 1.880449e-08
1.090000e+03 7.731760e-10
1.091000e+03 7.090790e-10
1.092000e+03 1.453941e-08
1.093000e+03 3.563342e-08
1.094000e+03 8.569409e-10
1.095000e+03 5.599230e-08
1.096000e+03 3.401283e-08
1.097000e+03 1.462235e-08
1.098000e+03 3.192087e-08
1.099000e+03 1.099814e-09
1.100000e+03 4.828363e-09
1.101000e+03 3.820804e-09
1.102000e+03 1.333816e-09
1.103000e+03 2.901142e-07
1.104000e+03 1.667112e-08
1.105000e+03 1.094445e-07
1.106000e+03 1.937978e-09
1.107000e+03 6.220345e-09
1.108000e+03 1.060315e-08
1.109000e+03 2.416035e-09
1.110000e+03 1.580984e-08
1.111000e+03 1.214256e-07
1.112000e+03 4.953096e-09
1.113000e+03 2.414591e-07
1.114000e+03 3.265157e-09
1.115000e+03 3.889205e-09
1.116000e+03 8.433249e-09
1.117000e+03 1.829404e-07
1.118000e+03 3.752897e-09
1.119000e+03 4.504499e-09
1.120000e+03 7.861033e-09
1.121000e+03 4.692554e-08
1.122000e+03 1.227378e-06
1.123000e+03 2.194654e-07
1.124000e+03 2.348191e-07
1.125000e+03 8.850468e-08
1.126000e+03 2.574079e-06
1.127000e+03 4.001016e-08
1.128000e+03 4.387937e-07
1.129000e+03 1.405169e-08
1.130000e+03 5.899362e-07
1.131000e+03 1.504314e-06
1.132000e+03 1.456583e-08
1.133000e+03 7.459676e-09
1.134000e+03 7.167341e-08
1.135000e+03 1.004434e-06
1.136000e+03 9.260077e-09
1.137000e+03 4.080803e-07
1.138000e+03 3.753037e-08
1.139000e+03 6.998960e-07
1.140000e+03 1.829657e-07
1.141000e+03 3.170805e-06
1.142000e+03 1.576742e-06
1.143000e+03 2.157685e-08
1.144000e+03 2.643848e-06
1.145000e+03 4.103677e-08
1.146000e+03 1.105199e-06
1.147000e+03 1.643979e-06
1.148000e+03 1.957517e-08
1.149000e+03 3.568357e-07
1.150000e+03 2.627163e-07
1.151000e+03 1.064436e-06
1.152000e+03 9.584456e-08
1.153000e+03 3.276131e-06
1.154000e+03 7.547929e-06
1.155000e+03 7.646852e-07
1.156000e+03 3.191895e-06
1.157000e+03 4.009302e-06
1.158000e+03 4.902859e-08
1.159000e+03 2.338390e-06
1.160000e+03 1.214355e-07
1.161000e+03 3.053914e-06
1.162000e+03 3.208697e-08
1.163000e+03 5.666516e-08
1.164000e+03 4.737237e-08
1.165000e+03 4.292371e-07
1.166000e+03 2.780464e-07
1.167000e+03 3.169136e-07
1.168000e+03 2.479218e-06
1.169000e+03 8.009786e-06
1.170000e+03 1.040564e-07
1.171000e+03 2.811146e-06
1.172000e+03 5.373904e-07
1.173000e+03 2.269787e-06
1.174000e+03 1.413408e-07
1.175000e+03 7.158632e-08
1.176000e+03 9.504348e-08
1.177000e+03 1.197032e-05
1.178000e+03 1.261506e-05
1.179000e+03 8.316576e-06
1.180000e+03 1.337442e-06
1.181000e+03 1.014692e-05
1.182000e+03 4.783836e-06
1.183000e+03 8.753386e-07
1.184000e+03 6.539240e-07
1.185000e+03 6.860776e-07
1.186000e+03 1.520452e-07
1.187000e+03 4.311344e-06
1.188000e+03 5.961461e-07
1.189000e+03 8.259035e-06
1.190000e+03 7.170700e-06
1.191000e+03 4.182694e-06
1.192000e+03 5.481286e-06
1.193000e+03 2.327948e-06
1.194000e+03 5.567026e-06
1.195000e+03 4.788782e-06
1.196000e+03 4.031503e-05
1.197000e+03 7.746609e-04
1.198000e+03 2.093384e-07
1.199000e+03 6.867313e-04
1.200000e+03 2.278473e-07
1.201000e+03 9.933824e-05
1.202000e+03 4.335584e-06
1.203000e+03 9.747191e-05
1.204000e+03 3.171027e-07
1.205000e+03 4.824684e-05
1.206000e+03 2.830686e-05
1.207000e+03 6.057526e-06
1.208000e+03 3.134210e-05
1.209000e+03 2.031074e-04
1.210000e+03 4.245430e-07
1.211000e+03 4.593462e-05
1.212000e+03 1.020257e-06
1.213000e+03 1.916204e-05
1.214000e+03 3.169537e-06
1.215000e+03 5.746462e-07
1.216000e+03 9.226407e-07
1.217000e+03 1.493340e-06
1.218000e+03 1.509769e-05
1.219000e+03 2.538289e-05
1.220000e+03 5.803235e-07
1.221000e+03 6.890751e-05
1.222000e+03 9.757772e-06
1.223000e+03 2.306821e-06
1.224000e+03 1.691466e-04
1.225000e+03 7.557683e-07
1.226000e+03 5.818889e-04
1.227000e+03 4.308868e-04
1.228000e+03 1.220877e-06
1.229000e+03 1.697067e-04
1.230000e+03 5.520586e-05
1.231000e+03 8.840580e-07
1.232000e+03 1.245379e-03
1.233000e+03 1.808813e-03
1.234000e+03 1.829460e-03
1.235000e+03 3.968129e-04
1.236000e+03 2.157700e-06
1.237000e+03 1.484454e-03
1.238000e+03 7.188112e-04
1.239000e+03 1.795538e-05
1.240000e+03 5.600497e-04
1.241000e+03 7.203506e-05
1.242000e+03 2.686430e-04
1.243000e+03 1.687990e-03
1.244000e+03 1.954948e-03
1.245000e+03 1.854430e-03
1.246000e+03 1.676359e-04
1.247000e+03 3.320048e-04
1.248000e+03 1.818587e-03
1.249000e+03 2.640961e-03
1.250000e+03 1.194059e-03
1.251000e+03 2.154336e-03
1.252000e+03 8.831139e-04
1.253000e+03 2.664945e-03
1.254000e+03 7.864123e-04
1.255000e+03 1.920087e-04
1.256000e+03 4.470431e-04
1.257000e+03 7.100527e-04
1.258000e+03 9.540515e-05
1.259000e+03 1.554342e-04
1.260000e+03 1.932829e-03
1.261000e+03 1.973985e-05
1.262000e+03 1.956659e-03
1.263000e+03 1.177145e-03
1.264000e+03 1.290252e-04
1.265000e+03 4.521434e-04
1.266000e+03 1.884759e-03
1.267000e+03 4.185007e-04
