# wavelength_A flux
5.000000e+02 1.113232e-11
5.010000e+02 1.282329e-11
5.020000e+02 1.476251e-11
5.030000e+02 1.698515e-11
5.040000e+02 1.953120e-11
5.050000e+02 2.328369e-11
5.060000e+02 2.673810e-11
5.070000e+02 3.068773e-11
5.080000e+02 3.520105e-11
5.090000e+02 4.035768e-11
5.100000e+02 4.624163e-11
5.110000e+02 5.295473e-11
5.120000e+02 6.060905e-11
5.130000e+02 6.933203e-11
5.140000e+02 7.926761e-11
5.150000e+02 9.057673e-11
5.160000e+02 1.034477e-10
5.170000e+02 1.180762e-10
5.180000e+02 1.347174e-10
5.190000e+02 1.536145e-10
5.200000e+02 1.750711e-10
5.210000e+02 1.994205e-10
5.220000e+02 2.270037e-10
5.230000e+02 2.583513e-10
5.240000e+02 2.938330e-10
5.250000e+02 3.340207e-10
5.260000e+02 3.795102e-10
5.270000e+02 4.309790e-10
5.280000e+02 4.891846e-10
5.290000e+02 5.547833e-10
5.300000e+02 6.293054e-10
5.310000e+02 7.132411e-10
5.320000e+02 8.079828e-10
5.330000e+02 9.148611e-10
5.340000e+02 1.035378e-09
5.350000e+02 1.171209e-09
5.360000e+02 1.324216e-09
5.370000e+02 1.467656e-09
5.380000e+02 1.690425e-09
5.390000e+02 1.908548e-09
5.400000e+02 2.153972e-09
5.410000e+02 2.429488e-09
5.420000e+02 2.739480e-09
5.430000e+02 3.087331e-09
5.440000e+02 3.477769e-09
5.450000e+02 3.915813e-09
5.460000e+02 4.406063e-09
5.470000e+02 4.957685e-09
5.480000e+02 5.574621e-09
5.490000e+02 6.265600e-09
5.500000e+02 7.039092e-09
5.510000e+02 7.904635e-09
5.520000e+02 8.872735e-09
5.530000e+02 9.955087e-09
5.540000e+02 1.116467e-08
5.550000e+02 1.251585e-08
5.560000e+02 1.402459e-08
5.570000e+02 1.570855e-08
5.580000e+02 1.758729e-08
5.590000e+02 1.968249e-08
5.600000e+02 2.201810e-08
5.610000e+02 2.462068e-08
5.620000e+02 2.751953e-08
5.630000e+02 3.074706e-08
5.640000e+02 3.433914e-08
5.650000e+02 3.833517e-08
5.660000e+02 4.277929e-08
5.670000e+02 4.771920e-08
5.680000e+02 5.320846e-08
5.690000e+02 5.930552e-08
5.700000e+02 6.607500e-08
5.710000e+02 7.358859e-08
5.720000e+02 8.192436e-08
5.730000e+02 9.116892e-08
5.740000e+02 1.014175e-07
5.750000e+02 1.127773e-07
5.760000e+02 1.253301e-07
5.770000e+02 1.392906e-07
5.780000e+02 1.547123e-07
5.790000e+02 1.717767e-07
5.800000e+02 1.906517e-07
5.810000e+02 2.115217e-07
5.820000e+02 2.345885e-07
5.830000e+02 2.600711e-07
5.840000e+02 2.880946e-07
5.850000e+02 3.192748e-07
5.860000e+02 3.536111e-07
5.870000e+02 3.914641e-07
5.880000e+02 4.332111e-07
5.890000e+02 4.792240e-07
5.900000e+02 5.299644e-07
5.910000e+02 5.858485e-07
5.920000e+02 6.474083e-07
5.930000e+02 7.151805e-07
5.940000e+02 7.897718e-07
5.950000e+02 8.717908e-07
5.960000e+02 9.621054e-07
5.970000e+02 1.061352e-06
5.980000e+02 1.170436e-06
5.990000e+02 1.290294e-06
6.000000e+02 1.421944e-06
6.010000e+02 1.565843e-06
6.020000e+02 1.725175e-06
6.030000e+02 1.899283e-06
6.040000e+02 2.090287e-06
6.050000e+02 2.299731e-06
6.060000e+02 2.529328e-06
6.070000e+02 2.780950e-06
6.080000e+02 3.056604e-06
6.090000e+02 3.358495e-06
6.100000e+02 3.689009e-06
6.110000e+02 4.050779e-06
6.120000e+02 4.446598e-06
6.130000e+02 4.879549e-06
6.140000e+02 5.352967e-06
6.150000e+02 5.870478e-06
6.160000e+02 6.436011e-06
6.170000e+02 7.053835e-06
6.180000e+02 7.728579e-06
6.190000e+02 8.465262e-06
6.200000e+02 9.269333e-06
6.210000e+02 1.014669e-05
6.220000e+02 1.110372e-05
6.230000e+02 1.214736e-05
6.240000e+02 1.328510e-05
6.250000e+02 1.452507e-05
6.260000e+02 1.587605e-05
6.270000e+02 1.734756e-05
6.280000e+02 1.894989e-05
6.290000e+02 2.069415e-05
6.300000e+02 2.259240e-05
6.310000e+02 2.465709e-05
6.320000e+02 2.690384e-05
6.330000e+02 2.934621e-05
6.340000e+02 3.200128e-05
6.350000e+02 3.488655e-05
6.360000e+02 3.794191e-05
6.370000e+02 4.142586e-05
6.380000e+02 4.512274e-05
6.390000e+02 4.913580e-05
6.400000e+02 5.349092e-05
6.410000e+02 5.821594e-05
6.420000e+02 6.334091e-05
6.430000e+02 6.889820e-05
6.440000e+02 7.492265e-05
6.450000e+02 8.145173e-05
6.460000e+02 8.852597e-05
6.470000e+02 9.618868e-05
6.480000e+02 1.044868e-04
6.490000e+02 1.134706e-04
6.500000e+02 1.231941e-04
6.510000e+02 1.337156e-04
6.520000e+02 1.450975e-04
6.530000e+02 1.574074e-04
6.540000e+02 1.707171e-04
6.550000e+02 1.851042e-04
6.560000e+02 2.006520e-04
6.570000e+02 2.174432e-04
6.580000e+02 2.355942e-04
6.590000e+02 2.551875e-04
6.600000e+02 2.763382e-04
6.610000e+02 2.991715e-04
6.620000e+02 3.238075e-04
6.630000e+02 3.503848e-04
6.640000e+02 3.790493e-04
6.650000e+02 4.099559e-04
6.660000e+02 4.432774e-04
6.670000e+02 4.791877e-04
6.680000e+02 5.178811e-04
6.690000e+02 5.595630e-04
6.700000e+02 6.044536e-04
6.710000e+02 6.527886e-04
6.720000e+02 7.048175e-04
6.730000e+02 7.608163e-04
6.740000e+02 8.210674e-04
6.750000e+02 8.858808e-04
6.760000e+02 9.555857e-04
6.770000e+02 1.030534e-03
6.780000e+02 1.111101e-03
6.790000e+02 1.197690e-03
6.800000e+02 1.290728e-03
6.810000e+02 1.390674e-03
6.820000e+02 1.498017e-03
6.830000e+02 1.613277e-03
6.840000e+02 1.737011e-03
6.850000e+02 1.869792e-03
6.860000e+02 2.012315e-03
6.870000e+02 2.165169e-03
6.880000e+02 2.329164e-03
6.890000e+02 2.505000e-03
6.900000e+02 2.693513e-03
6.910000e+02 2.895579e-03
6.920000e+02 3.112121e-03
6.930000e+02 3.344128e-03
6.940000e+02 3.592650e-03
6.950000e+02 3.858808e-03
6.960000e+02 4.143792e-03
6.970000e+02 4.448783e-03
6.980000e+02 4.775390e-03
6.990000e+02 5.124783e-03
7.000000e+02 5.498580e-03
7.010000e+02 5.898397e-03
7.020000e+02 6.325963e-03
7.030000e+02 6.783106e-03
7.040000e+02 7.271774e-03
7.050000e+02 7.794033e-03
7.060000e+02 8.352052e-03
7.070000e+02 8.948247e-03
7.080000e+02 9.585011e-03
7.090000e+02 1.026489e-02
7.100000e+02 1.099100e-02
7.110000e+02 1.176597e-02
7.120000e+02 1.259306e-02
7.130000e+02 1.347560e-02
7.140000e+02 1.441712e-02
7.150000e+02 1.542134e-02
7.160000e+02 1.649231e-02
7.170000e+02 1.763406e-02
7.180000e+02 1.885103e-02
7.190000e+02 2.014867e-02
7.200000e+02 2.153108e-02
7.210000e+02 2.300389e-02
7.220000e+02 2.457272e-02
7.230000e+02 2.624352e-02
7.240000e+02 2.802257e-02
7.250000e+02 2.991652e-02
7.260000e+02 3.193215e-02
7.270000e+02 3.407782e-02
7.280000e+02 3.636049e-02
7.290000e+02 3.878881e-02
7.300000e+02 4.137161e-02
7.310000e+02 4.411821e-02
7.320000e+02 4.703845e-02
7.330000e+02 5.014279e-02
7.340000e+02 5.344224e-02
7.350000e+02 5.694841e-02
7.360000e+02 6.067348e-02
7.370000e+02 6.463073e-02
7.380000e+02 6.883362e-02
7.390000e+02 7.329667e-02
7.400000e+02 7.803459e-02
7.410000e+02 8.306524e-02
7.420000e+02 8.840310e-02
7.430000e+02 9.406907e-02
7.440000e+02 1.000796e-01
7.450000e+02 1.064557e-01
7.460000e+02 1.132183e-01
7.470000e+02 1.203896e-01
7.480000e+02 1.279930e-01
7.490000e+02 1.360533e-01
7.500000e+02 1.445963e-01
7.510000e+02 1.536495e-01
7.520000e+02 1.632419e-01
7.530000e+02 1.734036e-01
7.540000e+02 1.841669e-01
7.550000e+02 1.955655e-01
7.560000e+02 2.076349e-01
7.570000e+02 2.204005e-01
7.580000e+02 2.339372e-01
7.590000e+02 2.482496e-01
7.600000e+02 2.633973e-01
7.610000e+02 2.794225e-01
7.620000e+02 2.963742e-01
7.630000e+02 3.143026e-01
7.640000e+02 3.332616e-01
7.650000e+02 3.533067e-01
7.660000e+02 3.744987e-01
7.670000e+02 3.968976e-01
7.680000e+02 4.205657e-01
7.690000e+02 4.455819e-01
7.700000e+02 4.720075e-01
7.710000e+02 4.999211e-01
7.720000e+02 5.294027e-01
7.730000e+02 5.605354e-01
7.740000e+02 5.934065e-01
7.750000e+02 6.281080e-01
7.760000e+02 6.645740e-01
7.770000e+02 7.033918e-01
7.780000e+02 7.441819e-01
7.790000e+02 7.872169e-01
7.800000e+02 8.326139e-01
7.810000e+02 8.804959e-01
7.820000e+02 9.309907e-01
7.830000e+02 9.842327e-01
7.840000e+02 1.040366e+00
7.850000e+02 1.099535e+00
7.860000e+02 1.161893e+00
7.870000e+02 1.227620e+00
7.880000e+02 1.296863e+00
7.890000e+02 1.369811e+00
7.900000e+02 1.446651e+00
7.910000e+02 1.527578e+00
7.920000e+02 1.612799e+00
7.930000e+02 1.702528e+00
7.940000e+02 1.796991e+00
7.950000e+02 1.896422e+00
7.960000e+02 2.001070e+00
7.970000e+02 2.111192e+00
7.980000e+02 2.227057e+00
7.990000e+02 2.348949e+00
8.000000e+02 2.477167e+00
8.010000e+02 2.612001e+00
8.020000e+02 2.753820e+00
8.030000e+02 2.902915e+00
8.040000e+02 3.059664e+00
8.050000e+02 3.224430e+00
8.060000e+02 3.397603e+00
8.070000e+02 3.579585e+00
8.080000e+02 3.770800e+00
8.090000e+02 3.971689e+00
8.100000e+02 4.182712e+00
8.110000e+02 4.404354e+00
8.120000e+02 4.637115e+00
8.130000e+02 4.881530e+00
8.140000e+02 5.138138e+00
8.150000e+02 5.407508e+00
8.160000e+02 5.690264e+00
8.170000e+02 5.986983e+00
8.180000e+02 6.298395e+00
8.190000e+02 6.625111e+00
8.200000e+02 6.967866e+00
8.210000e+02 7.327401e+00
8.220000e+02 7.704490e+00
8.230000e+02 8.099939e+00
8.240000e+02 8.514593e+00
8.250000e+02 8.949327e+00
8.260000e+02 9.405057e+00
8.270000e+02 9.882730e+00
8.280000e+02 1.038335e+01
8.290000e+02 1.090796e+01
8.300000e+02 1.145764e+01
8.310000e+02 1.203350e+01
8.320000e+02 1.263673e+01
8.330000e+02 1.326855e+01
8.340000e+02 1.393023e+01
8.350000e+02 1.462147e+01
8.360000e+02 1.534846e+01
8.370000e+02 1.610802e+01
8.380000e+02 1.690236e+01
8.390000e+02 1.773507e+01
8.400000e+02 1.860583e+01
8.410000e+02 1.951699e+01
8.420000e+02 2.046984e+01
8.430000e+02 2.146762e+01
8.440000e+02 2.251082e+01
8.450000e+02 2.360192e+01
8.460000e+02 2.474296e+01
8.470000e+02 2.593610e+01
8.480000e+02 2.718358e+01
8.490000e+02 2.848771e+01
8.500000e+02 2.985092e+01
8.510000e+02 3.127572e+01
8.520000e+02 3.276462e+01
8.530000e+02 3.432064e+01
8.540000e+02 3.594656e+01
8.550000e+02 3.764489e+01
8.560000e+02 3.941896e+01
8.570000e+02 4.127197e+01
8.580000e+02 4.320714e+01
8.590000e+02 4.522797e+01
8.600000e+02 4.733795e+01
8.610000e+02 4.954076e+01
8.620000e+02 5.184030e+01
8.630000e+02 5.424036e+01
8.640000e+02 5.674559e+01
8.650000e+02 5.935940e+01
8.660000e+02 6.208750e+01
8.670000e+02 6.493344e+01
8.680000e+02 6.790240e+01
8.690000e+02 7.099934e+01
8.700000e+02 7.422944e+01
8.710000e+02 7.759808e+01
8.720000e+02 8.111082e+01
8.730000e+02 8.477345e+01
8.740000e+02 8.859196e+01
8.750000e+02 9.257255e+01
8.760000e+02 9.672168e+01
8.770000e+02 1.010454e+02
8.780000e+02 1.055526e+02
8.790000e+02 1.102485e+02
8.800000e+02 1.151412e+02
8.810000e+02 1.202384e+02
8.820000e+02 1.255482e+02
8.830000e+02 1.310788e+02
8.840000e+02 1.368389e+02
8.850000e+02 1.428373e+02
8.860000e+02 1.490833e+02
8.870000e+02 1.555864e+02
8.880000e+02 1.623565e+02
8.890000e+02 1.694041e+02
8.900000e+02 1.767397e+02
8.910000e+02 1.843742e+02
8.920000e+02 1.919978e+02
8.930000e+02 2.005862e+02
8.940000e+02 2.091877e+02
8.950000e+02 2.181361e+02
8.960000e+02 2.274450e+02
8.970000e+02 2.371275e+02
8.980000e+02 2.471978e+02
8.990000e+02 2.576703e+02
9.000000e+02 2.685601e+02
9.010000e+02 2.798828e+02
9.020000e+02 2.916542e+02
9.030000e+02 3.038911e+02
9.040000e+02 3.166060e+02
9.050000e+02 3.298299e+02
9.060000e+02 3.435715e+02
9.070000e+02 3.578381e+02
9.080000e+02 3.726844e+02
9.090000e+02 3.880979e+02
9.100000e+02 4.041104e+02
9.110000e+02 4.207464e+02
9.120000e+02 4.380392e+02
9.130000e+02 4.461833e+02
9.140000e+02 4.885989e+02
9.150000e+02 3.036354e+03
9.160000e+02 7.388662e+03
9.170000e+02 7.656750e+03
9.180000e+02 7.886088e+03
9.190000e+02 8.198712e+03
9.200000e+02 8.477131e+03
9.210000e+02 6.025556e+02
9.220000e+02 9.035915e+03
9.230000e+02 9.291309e+03
9.240000e+02 9.186411e+03
9.250000e+02 9.836890e+03
9.260000e+02 1.026426e+04
9.270000e+02 1.063159e+04
9.280000e+02 1.099803e+04
9.290000e+02 1.098905e+04
9.300000e+02 1.152866e+04
9.310000e+02 1.201134e+04
9.320000e+02 1.251329e+04
9.330000e+02 1.288367e+04
9.340000e+02 1.330199e+04
9.350000e+02 3.969829e+03
9.360000e+02 1.415688e+04
9.370000e+02 2.830932e+03
9.380000e+02 4.604198e+03
9.390000e+02 1.562273e+04
9.400000e+02 1.613057e+04
9.410000e+02 6.698004e+03
9.420000e+02 1.718406e+04
9.430000e+02 1.759513e+04
9.440000e+02 1.340320e+04
9.450000e+02 1.886011e+04
9.460000e+02 1.946272e+04
9.470000e+02 9.542464e+03
9.480000e+02 1.517553e+04
9.490000e+02 2.116980e+04
9.500000e+02 3.930816e+03
9.510000e+02 2.225241e+04
9.520000e+02 2.343704e+04
9.530000e+02 2.389025e+04
9.540000e+02 1.965735e+04
9.550000e+02 2.572097e+04
9.560000e+02 1.538785e+04
9.570000e+02 2.025125e+04
9.580000e+02 2.802318e+04
9.590000e+02 2.917900e+04
9.600000e+02 6.410342e+03
9.610000e+02 3.065780e+04
9.620000e+02 3.190716e+04
9.630000e+02 3.294832e+04
9.640000e+02 3.397500e+03
9.650000e+02 3.203514e+04
9.660000e+02 3.604921e+04
9.670000e+02 3.672005e+04
9.680000e+02 3.809796e+04
9.690000e+02 3.917990e+04
9.700000e+02 4.048439e+04
9.710000e+02 4.137993e+04
9.720000e+02 3.941768e+04
9.730000e+02 3.958151e+04
9.740000e+02 4.490718e+04
9.750000e+02 4.692446e+04
9.760000e+02 4.839968e+04
9.770000e+02 4.993487e+04
9.780000e+02 5.128491e+04
9.790000e+02 5.298269e+04
9.800000e+02 5.453157e+04
9.810000e+02 5.616880e+04
9.820000e+02 5.770456e+04
9.830000e+02 5.949127e+04
9.840000e+02 2.802163e+04
9.850000e+02 6.304471e+04
9.860000e+02 6.487768e+04
9.870000e+02 6.677508e+04
9.880000e+02 6.842536e+04
9.890000e+02 6.088644e+04
9.900000e+02 1.061386e+04
9.910000e+02 7.424532e+04
9.920000e+02 6.513264e+04
9.930000e+02 7.418920e+04
9.940000e+02 1.361960e+04
9.950000e+02 2.659892e+04
9.960000e+02 4.928159e+04
9.970000e+02 1.848330e+04
9.980000e+02 9.104396e+04
9.990000e+02 9.181452e+04
1.000000e+03 9.648947e+04
1.001000e+03 9.922601e+04
1.002000e+03 1.019994e+05
1.003000e+03 1.013133e+05
1.004000e+03 1.076424e+05
1.005000e+03 1.045188e+05
1.006000e+03 1.139474e+05
1.007000e+03 1.160247e+05
1.008000e+03 1.200070e+05
1.009000e+03 1.220523e+05
1.010000e+03 1.271200e+05
1.011000e+03 1.306196e+05
1.012000e+03 1.342032e+05
1.013000e+03 1.378818e+05
1.014000e+03 1.402419e+05
1.015000e+03 1.441332e+05
1.016000e+03 1.492104e+05
1.017000e+03 1.521229e+05
1.018000e+03 1.573167e+05
1.019000e+03 1.611219e+05
1.020000e+03 1.655849e+05
1.021000e+03 9.370720e+04
1.022000e+03 1.606337e+05
1.023000e+03 1.747311e+05
1.024000e+03 1.480281e+05
1.025000e+03 1.317466e+05
1.026000e+03 6.239229e+04
1.027000e+03 1.637612e+05
1.028000e+03 5.792969e+04
1.029000e+03 2.058685e+05
1.030000e+03 2.104823e+05
1.031000e+03 2.212530e+05
1.032000e+03 2.253204e+05
1.033000e+03 1.215961e+05
1.034000e+03 2.408159e+05
1.035000e+03 5.681492e+04
1.036000e+03 2.298325e+05
1.037000e+03 4.044344e+04
1.038000e+03 2.677868e+05
1.039000e+03 2.724643e+05
1.040000e+03 2.821307e+05
1.041000e+03 2.854016e+05
1.042000e+03 2.961566e+05
1.043000e+03 2.959309e+05
1.044000e+03 3.124898e+05
1.045000e+03 3.204231e+05
1.046000e+03 3.294441e+05
1.047000e+03 3.378035e+05
1.048000e+03 3.455361e+05
1.049000e+03 3.365660e+05
1.050000e+03 3.646344e+05
1.051000e+03 3.740362e+05
1.052000e+03 3.837309e+05
1.053000e+03 3.913902e+05
1.054000e+03 3.957667e+05
1.055000e+03 3.819300e+05
1.056000e+03 4.243476e+05
1.057000e+03 4.350154e+05
1.058000e+03 4.458245e+05
1.059000e+03 4.569335e+05
1.060000e+03 4.681162e+05
1.061000e+03 4.806062e+05
1.062000e+03 4.925580e+05
1.063000e+03 1.620347e+05
1.064000e+03 1.123579e+05
1.065000e+03 5.285702e+05
1.066000e+03 3.531665e+05
1.067000e+03 5.525591e+05
1.068000e+03 5.727054e+05
1.069000e+03 5.595439e+05
1.070000e+03 5.987079e+05
1.071000e+03 6.163974e+05
1.072000e+03 6.315212e+05
1.073000e+03 6.440691e+05
1.074000e+03 6.627841e+05
1.075000e+03 6.788909e+05
1.076000e+03 6.955822e+05
1.077000e+03 7.113791e+05
1.078000e+03 7.296194e+05
1.079000e+03 7.462401e+05
1.080000e+03 7.655235e+05
1.081000e+03 7.840536e+05
1.082000e+03 8.025508e+05
1.083000e+03 8.214374e+05
1.084000e+03 8.409291e+05
1.085000e+03 5.817138e+05
1.086000e+03 8.826800e+05
1.087000e+03 9.027342e+05
1.088000e+03 9.222649e+05
1.089000e+03 9.469364e+05
1.090000e+03 9.686135e+05
1.091000e+03 9.849873e+05
1.092000e+03 1.015420e+06
1.093000e+03 1.038553e+06
1.094000e+03 1.063724e+06
1.095000e+03 1.088268e+06
1.096000e+03 1.113840e+06
1.097000e+03 1.057690e+06
1.098000e+03 1.123244e+06
1.099000e+03 1.192801e+06
1.100000e+03 1.053516e+06
1.101000e+03 1.138672e+06
1.102000e+03 2.570370e+06
1.103000e+03 8.073470e+06
1.104000e+03 3.654762e+06
1.105000e+03 1.244192e+06
1.106000e+03 2.361524e+07
1.107000e+03 2.066342e+07
1.108000e+03 2.271146e+07
1.109000e+03 1.118367e+07
1.110000e+03 6.511456e+06
1.111000e+03 3.064976e+06
1.112000e+03 1.902256e+07
1.113000e+03 2.697089e+07
1.114000e+03 1.014039e+06
1.115000e+03 2.627466e+07
1.116000e+03 2.739419e+07
1.117000e+03 1.256994e+06
1.118000e+03 1.546398e+07
1.119000e+03 2.967221e+07
1.120000e+03 2.958087e+07
1.121000e+03 2.857834e+07
1.122000e+03 4.319620e+05
1.123000e+03 1.958956e+06
1.124000e+03 3.230401e+07
1.125000e+03 1.726816e+07
1.126000e+03 3.358263e+07
1.127000e+03 3.271113e+07
1.128000e+03 1.861384e+07
1.129000e+03 3.394867e+07
1.130000e+03 2.344675e+07
1.131000e+03 3.670738e+07
1.132000e+03 1.282928e+06
1.133000e+03 2.862972e+07
1.134000e+03 3.220658e+07
1.135000e+03 6.748820e+05
1.136000e+03 3.943725e+07
1.137000e+03 4.065889e+07
1.138000e+03 4.130160e+07
1.139000e+03 4.089482e+07
1.140000e+03 8.482120e+05
1.141000e+03 4.360056e+07
1.142000e+03 4.389782e+07
1.143000e+03 4.500471e+07
1.144000e+03 4.588712e+07
1.145000e+03 3.625966e+07
1.146000e+03 4.742016e+07
1.147000e+03 4.744029e+07
1.148000e+03 4.763435e+07
1.149000e+03 4.983622e+07
1.150000e+03 5.019123e+07
1.151000e+03 5.121031e+07
1.152000e+03 5.240739e+07
1.153000e+03 1.615821e+07
1.154000e+03 2.974480e+06
1.155000e+03 3.057439e+07
1.156000e+03 6.405392e+06
1.157000e+03 5.656840e+07
1.158000e+03 1.246657e+06
1.159000e+03 3.801362e+07
1.160000e+03 5.804222e+07
1.161000e+03 6.105440e+07
1.162000e+03 1.511138e+07
1.163000e+03 6.247025e+07
1.164000e+03 2.196800e+06
1.165000e+03 6.522244e+07
1.166000e+03 6.606275e+07
1.167000e+03 6.692392e+07
1.168000e+03 6.894133e+07
1.169000e+03 6.599636e+07
1.170000e+03 7.141188e+07
1.171000e+03 7.281068e+07
1.172000e+03 7.356956e+07
1.173000e+03 7.530356e+07
1.174000e+03 7.399925e+07
1.175000e+03 2.636872e+06
1.176000e+03 2.119920e+06
1.177000e+03 8.061761e+07
1.178000e+03 7.932262e+07
1.179000e+03 8.339248e+07
1.180000e+03 7.056903e+07
1.181000e+03 8.576281e+07
1.182000e+03 8.756154e+07
1.183000e+03 8.882306e+07
1.184000e+03 9.005506e+07
1.185000e+03 9.010845e+07
1.186000e+03 9.197794e+07
1.187000e+03 9.359785e+07
1.188000e+03 9.410689e+07
1.189000e+03 2.524408e+06
1.190000e+03 7.306088e+06
1.191000e+03 9.539937e+07
1.192000e+03 9.603422e+07
1.193000e+03 2.298552e+06
1.194000e+03 2.965024e+06
1.195000e+03 7.774442e+07
1.196000e+03 9.790526e+07
1.197000e+03 1.313380e+08
1.198000e+03 1.315512e+08
1.199000e+03 1.281675e+08
1.200000e+03 1.139947e+08
1.201000e+03 1.193944e+08
1.202000e+03 1.177036e+08
1.203000e+03 1.345558e+08
1.204000e+03 1.220511e+08
1.205000e+03 1.123029e+08
1.206000e+03 1.019662e+08
1.207000e+03 1.863505e+07
1.208000e+03 7.482190e+07
1.209000e+03 5.656717e+07
1.210000e+03 4.765824e+06
1.211000e+03 3.221157e+07
1.212000e+03 1.971088e+07
1.213000e+03 1.255210e+07
1.214000e+03 7.191099e+06
1.215000e+03 4.451796e+06
1.216000e+03 3.993880e+06
1.217000e+03 6.341220e+06
1.218000e+03 1.141419e+07
1.219000e+03 2.028181e+07
1.220000e+03 3.323702e+07
1.221000e+03 4.990066e+07
1.222000e+03 6.950134e+07
1.223000e+03 9.121521e+07
1.224000e+03 1.147872e+08
1.225000e+03 1.385774e+08
1.226000e+03 1.640931e+08
1.227000e+03 1.867198e+08
1.228000e+03 2.154489e+08
1.229000e+03 2.413601e+08
1.230000e+03 2.640692e+08
1.231000e+03 2.911042e+08
1.232000e+03 3.172313e+08
1.233000e+03 3.420124e+08
1.234000e+03 2.194328e+08
1.235000e+03 3.892024e+08
1.236000e+03 4.096757e+08
1.237000e+03 4.346816e+08
1.238000e+03 4.566545e+08
1.239000e+03 4.780348e+08
1.240000e+03 4.582027e+08
1.241000e+03 7.858100e+08
1.242000e+03 4.668438e+08
1.243000e+03 6.504712e+08
1.244000e+03 2.994252e+08
1.245000e+03 4.371214e+08
1.246000e+03 1.224285e+09
1.247000e+03 1.227043e+09
1.248000e+03 3.263534e+08
1.249000e+03 3.964497e+08
1.250000e+03 1.511716e+09
1.251000e+03 1.573375e+09
1.252000e+03 1.629883e+09
1.253000e+03 1.732229e+09
1.254000e+03 1.778953e+09
1.255000e+03 1.857055e+09
1.256000e+03 1.902765e+09
1.257000e+03 2.002103e+09
1.258000e+03 2.005199e+09
1.259000e+03 2.002653e+09
1.260000e+03 1.519814e+09
1.261000e+03 1.024360e+07
1.262000e+03 2.051373e+08
1.263000e+03 2.257091e+09
1.264000e+03 1.973804e+09
1.265000e+03 1.027370e+07
1.266000e+03 2.439509e+09
1.267000e+03 2.625008e+09
