# wavelength_A flux
5.000000e+02 1.168963e-40
5.010000e+02 1.525860e-40
5.020000e+02 1.989690e-40
5.030000e+02 2.591856e-40
5.040000e+02 3.372897e-40
5.050000e+02 8.732528e-40
5.060000e+02 1.127286e-39
5.070000e+02 1.453843e-39
5.080000e+02 1.873246e-39
5.090000e+02 2.411401e-39
5.100000e+02 3.101288e-39
5.110000e+02 3.985021e-39
5.120000e+02 5.115716e-39
5.130000e+02 6.561261e-39
5.140000e+02 8.407667e-39
5.150000e+02 1.076388e-38
5.160000e+02 1.376848e-38
5.170000e+02 1.759407e-38
5.180000e+02 2.246780e-38
5.190000e+02 2.866251e-38
5.200000e+02 3.653287e-38
5.210000e+02 4.652126e-38
5.220000e+02 5.900851e-38
5.230000e+02 7.524532e-38
5.240000e+02 9.559527e-38
5.250000e+02 1.213261e-37
5.260000e+02 1.538504e-37
5.270000e+02 1.949267e-37
5.280000e+02 2.467626e-37
5.290000e+02 3.118715e-37
5.300000e+02 3.944782e-37
5.310000e+02 4.981353e-37
5.320000e+02 6.285132e-37
5.330000e+02 7.923653e-37
5.340000e+02 9.981326e-37
5.350000e+02 1.256269e-36
5.360000e+02 1.579598e-36
5.370000e+02 1.450616e-36
5.380000e+02 2.492260e-36
5.390000e+02 3.127854e-36
5.400000e+02 3.921454e-36
5.410000e+02 4.907812e-36
5.420000e+02 6.148712e-36
5.430000e+02 7.690724e-36
5.440000e+02 9.611732e-36
5.450000e+02 1.200325e-35
5.460000e+02 1.497348e-35
5.470000e+02 1.867663e-35
5.480000e+02 2.327044e-35
5.490000e+02 2.897234e-35
5.500000e+02 3.604436e-35
5.510000e+02 4.480924e-35
5.520000e+02 5.566458e-35
5.530000e+02 6.909813e-35
5.540000e+02 8.571062e-35
5.550000e+02 1.062395e-34
5.560000e+02 1.315895e-34
5.570000e+02 1.628704e-34
5.580000e+02 2.014424e-34
5.590000e+02 2.489706e-34
5.600000e+02 3.074933e-34
5.610000e+02 3.795061e-34
5.620000e+02 4.680491e-34
5.630000e+02 5.768447e-34
5.640000e+02 7.104327e-34
5.650000e+02 8.743486e-34
5.660000e+02 1.075339e-33
5.670000e+02 1.321622e-33
5.680000e+02 1.623196e-33
5.690000e+02 1.992239e-33
5.700000e+02 2.443507e-33
5.710000e+02 2.994966e-33
5.720000e+02 3.668411e-33
5.730000e+02 4.490276e-33
5.740000e+02 5.492607e-33
5.750000e+02 6.716820e-33
5.760000e+02 8.202777e-33
5.770000e+02 1.001698e-32
5.780000e+02 1.222064e-32
5.790000e+02 1.489934e-32
5.800000e+02 1.815332e-32
5.810000e+02 2.210336e-32
5.820000e+02 2.689439e-32
5.830000e+02 3.269542e-32
5.840000e+02 3.946688e-32
5.850000e+02 4.819450e-32
5.860000e+02 5.858578e-32
5.870000e+02 7.107723e-32
5.880000e+02 8.616767e-32
5.890000e+02 1.043940e-31
5.900000e+02 1.263960e-31
5.910000e+02 1.529402e-31
5.920000e+02 1.849464e-31
5.930000e+02 2.235121e-31
5.940000e+02 2.699556e-31
5.950000e+02 3.258529e-31
5.960000e+02 3.930870e-31
5.970000e+02 4.739096e-31
5.980000e+02 5.710095e-31
5.990000e+02 6.876010e-31
6.000000e+02 8.275033e-31
6.010000e+02 9.952851e-31
6.020000e+02 1.196385e-30
6.030000e+02 1.437279e-30
6.040000e+02 1.725676e-30
6.050000e+02 2.070746e-30
6.060000e+02 2.483385e-30
6.070000e+02 2.976576e-30
6.080000e+02 3.565646e-30
6.090000e+02 4.268870e-30
6.100000e+02 5.107899e-30
6.110000e+02 6.108400e-30
6.120000e+02 7.300783e-30
6.130000e+02 8.721061e-30
6.140000e+02 1.041193e-29
6.150000e+02 1.242367e-29
6.160000e+02 1.481595e-29
6.170000e+02 1.765923e-29
6.180000e+02 2.103671e-29
6.190000e+02 2.504646e-29
6.200000e+02 2.980472e-29
6.210000e+02 3.544752e-29
6.220000e+02 4.213606e-29
6.230000e+02 5.005995e-29
6.240000e+02 5.944238e-29
6.250000e+02 7.054601e-29
6.260000e+02 8.367966e-29
6.270000e+02 9.920666e-29
6.280000e+02 1.175532e-28
6.290000e+02 1.392203e-28
6.300000e+02 1.647936e-28
6.310000e+02 1.919825e-28
6.320000e+02 2.305473e-28
6.330000e+02 2.724781e-28
6.340000e+02 3.218753e-28
6.350000e+02 3.798587e-28
6.360000e+02 4.484722e-28
6.370000e+02 5.289711e-28
6.380000e+02 6.236074e-28
6.390000e+02 7.348099e-28
6.400000e+02 8.654118e-28
6.410000e+02 1.018723e-27
6.420000e+02 1.198605e-27
6.430000e+02 1.409560e-27
6.440000e+02 1.656835e-27
6.450000e+02 1.946545e-27
6.460000e+02 2.285807e-27
6.470000e+02 2.682908e-27
6.480000e+02 3.147485e-27
6.490000e+02 3.690757e-27
6.500000e+02 4.325734e-27
6.510000e+02 5.067562e-27
6.520000e+02 5.933808e-27
6.530000e+02 6.944872e-27
6.540000e+02 8.124414e-27
6.550000e+02 9.499874e-27
6.560000e+02 1.110305e-26
6.570000e+02 1.297074e-26
6.580000e+02 1.514577e-26
6.590000e+02 1.767739e-26
6.600000e+02 2.062273e-26
6.610000e+02 2.404791e-26
6.620000e+02 2.802929e-26
6.630000e+02 3.265513e-26
6.640000e+02 3.802737e-26
6.650000e+02 4.426365e-26
6.660000e+02 5.149976e-26
6.670000e+02 5.989234e-26
6.680000e+02 6.962191e-26
6.690000e+02 8.089668e-26
6.700000e+02 9.395608e-26
6.710000e+02 1.090762e-25
6.720000e+02 1.265747e-25
6.730000e+02 1.468169e-25
6.740000e+02 1.702232e-25
6.750000e+02 1.972764e-25
6.760000e+02 2.285317e-25
6.770000e+02 2.646265e-25
6.780000e+02 3.062930e-25
6.790000e+02 3.543702e-25
6.800000e+02 4.098218e-25
6.810000e+02 4.737524e-25
6.820000e+02 5.474280e-25
6.830000e+02 6.322990e-25
6.840000e+02 7.300266e-25
6.850000e+02 8.425122e-25
6.860000e+02 9.719322e-25
6.870000e+02 1.120777e-24
6.880000e+02 1.291889e-24
6.890000e+02 1.488515e-24
6.900000e+02 1.714396e-24
6.910000e+02 1.973751e-24
6.920000e+02 2.271433e-24
6.930000e+02 2.612971e-24
6.940000e+02 3.004672e-24
6.950000e+02 3.453727e-24
6.960000e+02 3.968338e-24
6.970000e+02 4.557765e-24
6.980000e+02 5.232859e-24
6.990000e+02 6.005520e-24
7.000000e+02 6.889601e-24
7.010000e+02 7.900785e-24
7.020000e+02 9.056897e-24
7.030000e+02 1.037821e-23
7.040000e+02 1.188776e-23
7.050000e+02 1.361174e-23
7.060000e+02 1.557981e-23
7.070000e+02 1.782572e-23
7.080000e+02 2.038775e-23
7.090000e+02 2.330930e-23
7.100000e+02 2.663960e-23
7.110000e+02 3.043442e-23
7.120000e+02 3.475699e-23
7.130000e+02 3.967895e-23
7.140000e+02 4.528125e-23
7.150000e+02 5.165572e-23
7.160000e+02 5.890612e-23
7.170000e+02 6.714984e-23
7.180000e+02 7.651936e-23
7.190000e+02 8.716577e-23
7.200000e+02 9.925750e-23
7.210000e+02 1.129863e-22
7.220000e+02 1.285686e-22
7.230000e+02 1.462479e-22
7.240000e+02 1.662996e-22
7.250000e+02 1.890343e-22
7.260000e+02 2.148020e-22
7.270000e+02 2.439971e-22
7.280000e+02 2.770643e-22
7.290000e+02 3.145040e-22
7.300000e+02 3.568801e-22
7.310000e+02 4.048276e-22
7.320000e+02 4.590596e-22
7.330000e+02 5.203797e-22
7.340000e+02 5.896908e-22
7.350000e+02 6.680080e-22
7.360000e+02 7.564645e-22
7.370000e+02 8.563649e-22
7.380000e+02 9.691256e-22
7.390000e+02 1.096369e-21
7.400000e+02 1.239907e-21
7.410000e+02 1.401776e-21
7.420000e+02 1.584256e-21
7.430000e+02 1.789904e-21
7.440000e+02 2.021587e-21
7.450000e+02 2.282518e-21
7.460000e+02 2.576293e-21
7.470000e+02 2.906942e-21
7.480000e+02 3.278973e-21
7.490000e+02 3.697433e-21
7.500000e+02 4.167968e-21
7.510000e+02 4.696891e-21
7.520000e+02 5.291262e-21
7.530000e+02 5.958969e-21
7.540000e+02 6.708826e-21
7.550000e+02 7.550679e-21
7.560000e+02 8.495523e-21
7.570000e+02 9.555632e-21
7.580000e+02 1.074470e-20
7.590000e+02 1.207801e-20
7.600000e+02 1.357260e-20
7.610000e+02 1.524748e-20
7.620000e+02 1.712382e-20
7.630000e+02 1.922522e-20
7.640000e+02 2.157797e-20
7.650000e+02 2.421135e-20
7.660000e+02 2.715794e-20
7.670000e+02 3.045403e-20
7.680000e+02 3.413992e-20
7.690000e+02 3.825409e-20
7.700000e+02 4.286612e-20
7.710000e+02 4.801172e-20
7.720000e+02 5.375922e-20
7.730000e+02 6.017714e-20
7.740000e+02 6.734161e-20
7.750000e+02 7.533718e-20
7.760000e+02 8.425747e-20
7.770000e+02 9.420735e-20
7.780000e+02 1.053016e-19
7.790000e+02 1.176688e-19
7.800000e+02 1.314509e-19
7.810000e+02 1.468055e-19
7.820000e+02 1.639073e-19
7.830000e+02 1.829497e-19
7.840000e+02 2.041472e-19
7.850000e+02 2.277368e-19
7.860000e+02 2.539815e-19
7.870000e+02 2.831789e-19
7.880000e+02 3.156377e-19
7.890000e+02 3.517199e-19
7.900000e+02 3.918187e-19
7.910000e+02 4.363704e-19
7.920000e+02 4.858549e-19
7.930000e+02 5.408038e-19
7.940000e+02 6.018041e-19
7.950000e+02 6.695043e-19
7.960000e+02 7.446202e-19
7.970000e+02 8.279419e-19
7.980000e+02 9.203414e-19
7.990000e+02 1.022781e-18
8.000000e+02 1.136321e-18
8.010000e+02 1.262132e-18
8.020000e+02 1.401504e-18
8.030000e+02 1.555857e-18
8.040000e+02 1.726759e-18
8.050000e+02 1.915935e-18
8.060000e+02 2.125285e-18
8.070000e+02 2.356900e-18
8.080000e+02 2.613084e-18
8.090000e+02 2.896370e-18
8.100000e+02 3.209548e-18
8.110000e+02 3.555681e-18
8.120000e+02 3.938142e-18
8.130000e+02 4.360640e-18
8.140000e+02 4.827247e-18
8.150000e+02 5.342440e-18
8.160000e+02 5.911138e-18
8.170000e+02 6.538739e-18
8.180000e+02 7.231181e-18
8.190000e+02 7.994969e-18
8.200000e+02 8.837249e-18
8.210000e+02 9.765864e-18
8.220000e+02 1.078941e-17
8.230000e+02 1.191732e-17
8.240000e+02 1.315994e-17
8.250000e+02 1.452860e-17
8.260000e+02 1.603573e-17
8.270000e+02 1.769495e-17
8.280000e+02 1.952115e-17
8.290000e+02 2.153068e-17
8.300000e+02 2.374141e-17
8.310000e+02 2.617292e-17
8.320000e+02 2.884663e-17
8.330000e+02 3.178597e-17
8.340000e+02 3.501658e-17
8.350000e+02 3.853215e-17
8.360000e+02 4.246615e-17
8.370000e+02 4.674982e-17
8.380000e+02 5.145334e-17
8.390000e+02 5.661700e-17
8.400000e+02 6.228453e-17
8.410000e+02 6.850369e-17
8.420000e+02 7.532557e-17
8.430000e+02 8.281022e-17
8.440000e+02 9.101665e-17
8.450000e+02 1.000137e-16
8.460000e+02 1.098753e-16
8.470000e+02 1.206822e-16
8.480000e+02 1.325224e-16
8.490000e+02 1.454917e-16
8.500000e+02 1.596948e-16
8.510000e+02 1.752455e-16
8.520000e+02 1.922681e-16
8.530000e+02 2.108977e-16
8.540000e+02 2.312821e-16
8.550000e+02 2.535808e-16
8.560000e+02 2.779689e-16
8.570000e+02 3.046364e-16
8.580000e+02 3.337899e-16
8.590000e+02 3.656546e-16
8.600000e+02 4.004752e-16
8.610000e+02 4.385178e-16
8.620000e+02 4.800716e-16
8.630000e+02 5.254512e-16
8.640000e+02 5.749984e-16
8.650000e+02 6.290847e-16
8.660000e+02 6.881137e-16
8.670000e+02 7.525235e-16
8.680000e+02 8.227902e-16
8.690000e+02 8.994304e-16
8.700000e+02 9.830040e-16
8.710000e+02 1.074123e-15
8.720000e+02 1.173445e-15
8.730000e+02 1.281687e-15
8.740000e+02 1.399627e-15
8.750000e+02 1.528108e-15
8.760000e+02 1.668043e-15
8.770000e+02 1.820422e-15
8.780000e+02 1.986320e-15
8.790000e+02 2.166899e-15
8.800000e+02 2.363420e-15
8.810000e+02 2.577248e-15
8.820000e+02 2.809860e-15
8.830000e+02 3.062858e-15
8.840000e+02 3.337974e-15
8.850000e+02 3.637082e-15
8.860000e+02 3.962213e-15
8.870000e+02 4.315560e-15
8.880000e+02 4.699498e-15
8.890000e+02 5.116597e-15
8.900000e+02 5.569632e-15
8.910000e+02 6.061604e-15
8.920000e+02 6.595100e-15
8.930000e+02 7.175603e-15
8.940000e+02 7.804924e-15
8.950000e+02 8.487816e-15
8.960000e+02 9.228698e-15
8.970000e+02 1.003234e-14
8.980000e+02 1.090390e-14
8.990000e+02 1.184895e-14
9.000000e+02 1.287348e-14
9.010000e+02 1.398397e-14
9.020000e+02 1.518741e-14
9.030000e+02 1.649135e-14
9.040000e+02 1.790392e-14
9.050000e+02 1.943389e-14
9.060000e+02 2.109070e-14
9.070000e+02 2.288455e-14
9.080000e+02 2.482644e-14
9.090000e+02 2.692818e-14
9.100000e+02 2.920252e-14
9.110000e+02 3.166349e-14
9.120000e+02 3.432863e-14
9.130000e+02 3.567948e-14
9.140000e+02 0.000000e+00
9.150000e+02 1.697840e-05
9.160000e+02 1.875620e-05
9.170000e+02 1.965080e-05
9.180000e+02 2.053854e-05
9.190000e+02 2.158911e-05
9.200000e+02 2.262411e-05
9.210000e+02 7.327472e-14
9.220000e+02 2.472781e-05
9.230000e+02 2.538523e-05
9.240000e+02 2.492738e-05
9.250000e+02 2.659262e-05
9.260000e+02 2.896760e-05
9.270000e+02 3.090465e-05
9.280000e+02 3.266404e-05
9.290000e+02 2.643368e-05
9.300000e+02 3.362759e-05
9.310000e+02 3.532799e-05
9.320000e+02 3.924455e-05
9.330000e+02 4.134641e-05
9.340000e+02 4.309037e-05
9.350000e+02 6.184564e-11
9.360000e+02 4.553509e-05
9.370000e+02 5.967493e-11
9.380000e+02 4.312160e-07
9.390000e+02 5.319407e-05
9.400000e+02 5.579329e-05
9.410000e+02 1.594886e-06
9.420000e+02 6.096157e-05
9.430000e+02 6.362443e-05
9.440000e+02 5.646920e-05
9.450000e+02 6.908028e-05
9.460000e+02 7.187762e-05
9.470000e+02 3.927890e-05
9.480000e+02 7.664577e-05
9.490000e+02 7.542732e-05
9.500000e+02 9.917130e-09
9.510000e+02 8.363283e-05
9.520000e+02 9.440120e-05
9.530000e+02 8.236113e-05
9.540000e+02 1.738069e-05
9.550000e+02 1.071788e-04
9.560000e+02 1.204488e-04
9.570000e+02 1.291701e-07
9.580000e+02 9.511445e-06
9.590000e+02 1.378076e-04
9.600000e+02 2.619345e-10
9.610000e+02 1.526807e-04
9.620000e+02 1.584695e-04
9.630000e+02 1.563972e-04
9.640000e+02 1.113222e-09
9.650000e+02 6.007357e-05
9.660000e+02 1.840569e-04
9.670000e+02 1.678006e-04
9.680000e+02 1.528815e-04
9.690000e+02 2.060990e-04
9.700000e+02 2.193608e-04
9.710000e+02 1.851600e-04
9.720000e+02 7.419857e-05
9.730000e+02 7.898820e-05
9.740000e+02 2.386781e-04
9.750000e+02 2.701413e-04
9.760000e+02 3.000829e-04
9.770000e+02 3.172562e-04
9.780000e+02 3.303574e-04
9.790000e+02 3.518561e-04
9.800000e+02 3.684912e-04
9.810000e+02 3.828545e-04
9.820000e+02 3.822564e-04
9.830000e+02 4.234875e-04
9.840000e+02 1.930798e-07
9.850000e+02 4.534329e-04
9.860000e+02 4.822107e-04
9.870000e+02 5.177742e-04
9.880000e+02 2.660657e-04
9.890000e+02 3.128190e-04
9.900000e+02 6.056042e-08
9.910000e+02 1.722050e-04
9.920000e+02 3.131176e-05
9.930000e+02 5.992589e-04
9.940000e+02 2.328306e-10
9.950000e+02 7.311878e-07
9.960000e+02 5.896055e-04
9.970000e+02 1.005817e-05
9.980000e+02 6.969204e-04
9.990000e+02 2.645058e-05
1.000000e+03 9.682212e-04
1.001000e+03 1.017827e-03
1.002000e+03 1.066514e-03
1.003000e+03 9.368691e-04
1.004000e+03 4.525381e-04
1.005000e+03 1.139142e-03
1.006000e+03 1.284239e-03
1.007000e+03 1.358483e-03
1.008000e+03 1.419260e-03
1.009000e+03 1.361500e-03
1.010000e+03 1.554617e-03
1.011000e+03 1.626342e-03
1.012000e+03 1.698615e-03
1.013000e+03 1.773505e-03
1.014000e+03 7.254293e-05
1.015000e+03 6.982998e-04
1.016000e+03 1.932687e-03
1.017000e+03 2.134219e-05
1.018000e+03 1.931768e-03
1.019000e+03 5.913738e-04
1.020000e+03 2.261065e-03
1.021000e+03 3.095903e-04
1.022000e+03 7.667314e-04
1.023000e+03 9.564499e-04
1.024000e+03 1.132547e-03
1.025000e+03 2.194551e-06
1.026000e+03 2.970919e-07
1.027000e+03 6.367605e-04
1.028000e+03 1.036096e-08
1.029000e+03 6.174087e-05
1.030000e+03 3.180121e-03
1.031000e+03 3.583717e-03
1.032000e+03 3.025171e-03
1.033000e+03 9.033829e-08
1.034000e+03 4.370675e-03
1.035000e+03 7.916242e-09
1.036000e+03 2.581943e-04
1.037000e+03 5.127875e-03
1.038000e+03 5.379424e-03
1.039000e+03 5.598802e-03
1.040000e+03 5.894778e-03
1.041000e+03 6.142564e-03
1.042000e+03 6.437174e-03
1.043000e+03 4.489801e-03
1.044000e+03 7.040548e-03
1.045000e+03 7.300789e-03
1.046000e+03 7.691870e-03
1.047000e+03 7.998323e-03
1.048000e+03 2.132370e-03
1.049000e+03 8.743175e-03
1.050000e+03 9.043459e-03
1.051000e+03 9.223028e-03
1.052000e+03 1.004188e-02
1.053000e+03 1.045257e-02
1.054000e+03 2.221884e-04
1.055000e+03 1.140695e-02
1.056000e+03 1.191237e-02
1.057000e+03 1.239916e-02
1.058000e+03 1.215082e-02
1.059000e+03 1.034389e-02
1.060000e+03 1.044412e-02
1.061000e+03 1.468657e-02
1.062000e+03 1.342711e-02
1.063000e+03 4.944312e-03
1.064000e+03 1.117587e-08
1.065000e+03 3.729202e-04
1.066000e+03 1.799620e-02
1.067000e+03 1.631488e-02
1.068000e+03 1.975730e-02
1.069000e+03 1.112457e-02
1.070000e+03 2.124694e-02
1.071000e+03 2.240692e-02
1.072000e+03 2.333464e-02
1.073000e+03 2.214501e-03
1.074000e+03 2.514166e-02
1.075000e+03 2.601624e-02
1.076000e+03 2.738861e-02
1.077000e+03 1.255423e-06
1.078000e+03 2.667135e-02
1.079000e+03 2.970950e-02
1.080000e+03 2.904593e-02
1.081000e+03 3.336929e-02
1.082000e+03 3.441921e-02
1.083000e+03 3.589089e-02
1.084000e+03 3.736128e-02
1.085000e+03 3.148879e-02
1.086000e+03 4.010082e-02
1.087000e+03 3.626623e-02
1.088000e+03 4.174576e-02
1.089000e+03 4.450582e-02
1.090000e+03 4.426669e-02
1.091000e+03 4.632287e-02
1.092000e+03 4.909736e-02
1.093000e+03 5.056693e-02
1.094000e+03 5.258799e-02
1.095000e+03 5.427885e-02
1.096000e+03 2.298862e-03
1.097000e+03 5.518496e-02
1.098000e+03 6.016894e-02
1.099000e+03 6.127995e-02
1.100000e+03 2.852326e-02
1.101000e+03 4.818175e-02
1.102000e+03 9.236380e-02
1.103000e+03 1.600440e-01
1.104000e+03 9.711102e-02
1.105000e+03 7.574478e-02
1.106000e+03 2.232658e-01
1.107000e+03 9.106297e-02
1.108000e+03 2.327271e-01
1.109000e+03 2.078301e-01
1.110000e+03 1.257192e-01
1.111000e+03 1.154507e-01
1.112000e+03 2.367222e-01
1.113000e+03 1.618749e-01
1.114000e+03 8.200600e-02
1.115000e+03 1.629685e-01
1.116000e+03 2.091931e-01
1.117000e+03 6.426528e-02
1.118000e+03 2.367085e-01
1.119000e+03 2.611261e-01
1.120000e+03 2.222999e-01
1.121000e+03 2.597566e-01
1.122000e+03 5.217180e-03
1.123000e+03 1.914887e-01
1.124000e+03 2.765702e-01
1.125000e+03 2.532563e-01
1.126000e+03 2.841749e-01
1.127000e+03 2.706688e-01
1.128000e+03 1.055119e-01
1.129000e+03 2.914727e-01
1.130000e+03 2.928617e-01
1.131000e+03 2.445183e-01
1.132000e+03 3.058285e-03
1.133000e+03 2.998925e-01
1.134000e+03 2.966762e-01
1.135000e+03 1.046763e-02
1.136000e+03 3.155088e-01
1.137000e+03 3.230260e-01
1.138000e+03 3.268950e-01
1.139000e+03 3.291323e-01
1.140000e+03 4.900980e-02
1.141000e+03 3.400062e-01
1.142000e+03 3.439626e-01
1.143000e+03 3.297711e-01
1.144000e+03 3.502839e-01
1.145000e+03 1.743823e-01
1.146000e+03 3.615546e-01
1.147000e+03 3.566255e-01
1.148000e+03 3.396825e-01
1.149000e+03 3.735653e-01
1.150000e+03 3.785285e-01
1.151000e+03 3.795591e-01
1.152000e+03 3.892935e-01
1.153000e+03 3.265220e-01
1.154000e+03 3.854581e-01
1.155000e+03 4.016149e-01
1.156000e+03 3.892018e-01
1.157000e+03 3.723887e-01
1.158000e+03 2.108697e-01
1.159000e+03 4.034420e-01
1.160000e+03 4.249431e-01
1.161000e+03 4.303413e-01
1.162000e+03 1.894322e-01
1.163000e+03 4.346760e-01
1.164000e+03 1.484156e-05
1.165000e+03 4.526957e-01
1.166000e+03 4.623564e-01
1.167000e+03 4.717919e-01
1.168000e+03 4.826335e-01
1.169000e+03 4.660631e-01
1.170000e+03 5.022835e-01
1.171000e+03 5.103614e-01
1.172000e+03 5.230024e-01
1.173000e+03 5.340675e-01
1.174000e+03 4.487444e-01
1.175000e+03 7.867813e-06
1.176000e+03 2.324581e-06
1.177000e+03 5.755978e-01
1.178000e+03 5.855988e-01
1.179000e+03 5.959291e-01
1.180000e+03 5.439295e-01
1.181000e+03 6.033834e-01
1.182000e+03 6.337906e-01
1.183000e+03 6.444365e-01
1.184000e+03 6.529430e-01
1.185000e+03 6.613560e-01
1.186000e+03 6.368625e-01
1.187000e+03 6.643252e-01
1.188000e+03 6.418045e-01
1.189000e+03 1.694152e-01
1.190000e+03 6.368905e-01
1.191000e+03 6.874349e-01
1.192000e+03 6.865616e-01
1.193000e+03 4.923147e-02
1.194000e+03 1.829800e-01
1.195000e+03 6.305128e-01
1.196000e+03 6.724132e-01
1.197000e+03 2.216494e+00
1.198000e+03 2.048601e+00
1.199000e+03 1.919236e+00
1.200000e+03 1.442489e+00
1.201000e+03 1.566208e+00
1.202000e+03 1.467478e+00
1.203000e+03 2.754035e+00
1.204000e+03 2.151401e+00
1.205000e+03 1.654127e+00
1.206000e+03 1.461541e+00
1.207000e+03 8.350074e-03
1.208000e+03 6.105294e-01
1.209000e+03 3.200731e-01
1.210000e+03 1.618266e-05
1.211000e+03 7.677981e-02
1.212000e+03 2.444291e-02
1.213000e+03 6.138408e-03
1.214000e+03 8.937387e-04
1.215000e+03 6.797070e-05
1.216000e+03 1.436195e-05
1.217000e+03 4.622367e-04
1.218000e+03 3.962262e-03
1.219000e+03 1.821081e-02
1.220000e+03 7.123464e-02
1.221000e+03 1.821452e-01
1.222000e+03 3.912625e-01
1.223000e+03 7.232010e-01
1.224000e+03 8.065302e-01
1.225000e+03 1.821415e+00
1.226000e+03 2.733133e+00
1.227000e+03 3.722408e+00
1.228000e+03 5.116982e+00
1.229000e+03 6.653162e+00
1.230000e+03 8.341446e+00
1.231000e+03 8.613700e+00
1.232000e+03 1.210749e+01
1.233000e+03 1.457920e+01
1.234000e+03 5.114663e+00
1.235000e+03 1.944684e+01
1.236000e+03 2.172156e+01
1.237000e+03 2.461333e+01
1.238000e+03 2.732673e+01
1.239000e+03 2.999749e+01
1.240000e+03 1.271966e+01
1.241000e+03 3.667892e+01
1.242000e+03 3.410133e+01
1.243000e+03 4.425756e+01
1.244000e+03 3.185214e+01
1.245000e+03 3.938845e+01
1.246000e+03 6.093269e+01
1.247000e+03 6.339188e+01
1.248000e+03 2.936765e+01
1.249000e+03 4.694016e+01
1.250000e+03 4.837322e+01
1.251000e+03 8.074414e+01
1.252000e+03 8.139801e+01
1.253000e+03 8.808322e+01
1.254000e+03 9.000484e+01
1.255000e+03 9.583749e+01
1.256000e+03 9.800888e+01
1.257000e+03 5.805143e+01
1.258000e+03 1.052310e+02
1.259000e+03 1.056707e+02
1.260000e+03 7.917998e+01
1.261000e+03 2.816200e-02
1.262000e+03 3.647200e+01
1.263000e+03 1.170912e+02
1.264000e+03 1.038824e+02
1.265000e+03 1.747131e-03
1.266000e+03 1.259567e+02
1.267000e+03 1.352616e+02
