# wavelength_A flux
5.000000e+02 3.889801e-35
5.010000e+02 4.992753e-35
5.020000e+02 6.401948e-35
5.030000e+02 8.200614e-35
5.040000e+02 1.049410e-34
5.050000e+02 1.342293e-34
5.060000e+02 1.714253e-34
5.070000e+02 2.187113e-34
5.080000e+02 2.787714e-34
5.090000e+02 3.549770e-34
5.100000e+02 4.513746e-34
5.110000e+02 5.739157e-34
5.120000e+02 7.286943e-34
5.130000e+02 9.243516e-34
5.140000e+02 1.171429e-33
5.150000e+02 1.483156e-33
5.160000e+02 1.876086e-33
5.170000e+02 2.370918e-33
5.180000e+02 2.993502e-33
5.190000e+02 3.776109e-33
5.200000e+02 4.758979e-33
5.210000e+02 5.992244e-33
5.220000e+02 7.538284e-33
5.230000e+02 9.474792e-33
5.240000e+02 1.189813e-32
5.250000e+02 1.492805e-32
5.260000e+02 1.871308e-32
5.270000e+02 2.343729e-32
5.280000e+02 2.932861e-32
5.290000e+02 3.666906e-32
5.300000e+02 4.580727e-32
5.310000e+02 5.717386e-32
5.320000e+02 7.130027e-32
5.330000e+02 8.884184e-32
5.340000e+02 1.106060e-31
5.350000e+02 1.375867e-31
5.360000e+02 1.710067e-31
5.370000e+02 2.123450e-31
5.380000e+02 2.635184e-31
5.390000e+02 3.267204e-31
5.400000e+02 4.047514e-31
5.410000e+02 5.010131e-31
5.420000e+02 6.196706e-31
5.430000e+02 7.658175e-31
5.440000e+02 9.456802e-31
5.450000e+02 1.166863e-30
5.460000e+02 1.438646e-30
5.470000e+02 1.772345e-30
5.480000e+02 2.181748e-30
5.490000e+02 2.683646e-30
5.500000e+02 3.298463e-30
5.510000e+02 4.051033e-30
5.520000e+02 4.971523e-30
5.530000e+02 6.096555e-30
5.540000e+02 7.470551e-30
5.550000e+02 9.147358e-30
5.560000e+02 1.119220e-29
5.570000e+02 1.368402e-29
5.580000e+02 1.671829e-29
5.590000e+02 2.041043e-29
5.600000e+02 2.489981e-29
5.610000e+02 3.035464e-29
5.620000e+02 3.697781e-29
5.630000e+02 4.501383e-29
5.640000e+02 5.475719e-29
5.650000e+02 6.656229e-29
5.660000e+02 8.085540e-29
5.670000e+02 9.814881e-29
5.680000e+02 1.190578e-28
5.690000e+02 1.443210e-28
5.700000e+02 1.748240e-28
5.710000e+02 2.116285e-28
5.720000e+02 2.560063e-28
5.730000e+02 3.094796e-28
5.740000e+02 3.738692e-28
5.750000e+02 4.513519e-28
5.760000e+02 5.445281e-28
5.770000e+02 6.565024e-28
5.780000e+02 7.909788e-28
5.790000e+02 9.523736e-28
5.800000e+02 1.145949e-27
5.810000e+02 1.377971e-27
5.820000e+02 1.655898e-27
5.830000e+02 1.988597e-27
5.840000e+02 2.386607e-27
5.850000e+02 2.862454e-27
5.860000e+02 3.430995e-27
5.870000e+02 4.109862e-27
5.880000e+02 4.919958e-27
5.890000e+02 5.886051e-27
5.900000e+02 7.037467e-27
5.910000e+02 8.408916e-27
5.920000e+02 1.004145e-26
5.930000e+02 1.198357e-26
5.940000e+02 1.429262e-26
5.950000e+02 1.703624e-26
5.960000e+02 2.029429e-26
5.970000e+02 2.416090e-26
5.980000e+02 2.874704e-26
5.990000e+02 3.418338e-26
6.000000e+02 4.062375e-26
6.010000e+02 4.824915e-26
6.020000e+02 5.727236e-26
6.030000e+02 6.794344e-26
6.040000e+02 8.055608e-26
6.050000e+02 9.545501e-26
6.060000e+02 1.130446e-25
6.070000e+02 1.337991e-25
6.080000e+02 1.582742e-25
6.090000e+02 1.871204e-25
6.100000e+02 2.210997e-25
6.110000e+02 2.611032e-25
6.120000e+02 3.081728e-25
6.130000e+02 3.635262e-25
6.140000e+02 4.285858e-25
6.150000e+02 5.050117e-25
6.160000e+02 5.947414e-25
6.170000e+02 7.000335e-25
6.180000e+02 8.235211e-25
6.190000e+02 9.682712e-25
6.200000e+02 1.137855e-24
6.210000e+02 1.336427e-24
6.220000e+02 1.568821e-24
6.230000e+02 1.840655e-24
6.240000e+02 2.158457e-24
6.250000e+02 2.529808e-24
6.260000e+02 2.963506e-24
6.270000e+02 3.469759e-24
6.280000e+02 4.060404e-24
6.290000e+02 4.749158e-24
6.300000e+02 5.551910e-24
6.310000e+02 6.487057e-24
6.320000e+02 7.575893e-24
6.330000e+02 8.843038e-24
6.340000e+02 1.031696e-23
6.350000e+02 1.203056e-23
6.360000e+02 1.402184e-23
6.370000e+02 1.633464e-23
6.380000e+02 1.901958e-23
6.390000e+02 2.213504e-23
6.400000e+02 2.574829e-23
6.410000e+02 2.993687e-23
6.420000e+02 3.479006e-23
6.430000e+02 4.041063e-23
6.440000e+02 4.691686e-23
6.450000e+02 5.444474e-23
6.460000e+02 6.315063e-23
6.470000e+02 7.321417e-23
6.480000e+02 8.484166e-23
6.490000e+02 9.826995e-23
6.500000e+02 1.137708e-22
6.510000e+02 1.316559e-22
6.520000e+02 1.522826e-22
6.530000e+02 1.760603e-22
6.540000e+02 2.034581e-22
6.550000e+02 2.350128e-22
6.560000e+02 2.713390e-22
6.570000e+02 3.131394e-22
6.580000e+02 3.612178e-22
6.590000e+02 4.164926e-22
6.600000e+02 4.800131e-22
6.610000e+02 5.529774e-22
6.620000e+02 6.367530e-22
6.630000e+02 7.329002e-22
6.640000e+02 8.431986e-22
6.650000e+02 9.696764e-22
6.660000e+02 1.114645e-21
6.670000e+02 1.280737e-21
6.680000e+02 1.470950e-21
6.690000e+02 1.688696e-21
6.700000e+02 1.937853e-21
6.710000e+02 2.222836e-21
6.720000e+02 2.548660e-21
6.730000e+02 2.921023e-21
6.740000e+02 3.346397e-21
6.750000e+02 3.832130e-21
6.760000e+02 4.386561e-21
6.770000e+02 5.019147e-21
6.780000e+02 5.740615e-21
6.790000e+02 6.563120e-21
6.800000e+02 7.500438e-21
6.810000e+02 8.568166e-21
6.820000e+02 9.783967e-21
6.830000e+02 1.116783e-20
6.840000e+02 1.274235e-20
6.850000e+02 1.453312e-20
6.860000e+02 1.656902e-20
6.870000e+02 1.888272e-20
6.880000e+02 2.151110e-20
6.890000e+02 2.449581e-20
6.900000e+02 2.788385e-20
6.910000e+02 3.172827e-20
6.920000e+02 3.608888e-20
6.930000e+02 4.103312e-20
6.940000e+02 4.663697e-20
6.950000e+02 5.298607e-20
6.960000e+02 6.017683e-20
6.970000e+02 6.831779e-20
6.980000e+02 7.753111e-20
6.990000e+02 8.795419e-20
7.000000e+02 9.974154e-20
7.010000e+02 1.130669e-19
7.020000e+02 1.281254e-19
7.030000e+02 1.451363e-19
7.040000e+02 1.643458e-19
7.050000e+02 1.860303e-19
7.060000e+02 2.105000e-19
7.070000e+02 2.381026e-19
7.080000e+02 2.692284e-19
7.090000e+02 3.043145e-19
7.100000e+02 3.438509e-19
7.110000e+02 3.883867e-19
7.120000e+02 4.385363e-19
7.130000e+02 4.949878e-19
7.140000e+02 5.585113e-19
7.150000e+02 6.299679e-19
7.160000e+02 7.103210e-19
7.170000e+02 8.006472e-19
7.180000e+02 9.021500e-19
7.190000e+02 1.016173e-18
7.200000e+02 1.144219e-18
7.210000e+02 1.287963e-18
7.220000e+02 1.449276e-18
7.230000e+02 1.630244e-18
7.240000e+02 1.833197e-18
7.250000e+02 2.060729e-18
7.260000e+02 2.315733e-18
7.270000e+02 2.601433e-18
7.280000e+02 2.921418e-18
7.290000e+02 3.279689e-18
7.300000e+02 3.680695e-18
7.310000e+02 4.129389e-18
7.320000e+02 4.631283e-18
7.330000e+02 5.192504e-18
7.340000e+02 5.819865e-18
7.350000e+02 6.520941e-18
7.360000e+02 7.304144e-18
7.370000e+02 8.178820e-18
7.380000e+02 9.155350e-18
7.390000e+02 1.024525e-17
7.400000e+02 1.146131e-17
7.410000e+02 1.281772e-17
7.420000e+02 1.433019e-17
7.430000e+02 1.601619e-17
7.440000e+02 1.789503e-17
7.450000e+02 1.998814e-17
7.460000e+02 2.231926e-17
7.470000e+02 2.491466e-17
7.480000e+02 2.780344e-17
7.490000e+02 3.101780e-17
7.500000e+02 3.459337e-17
7.510000e+02 3.856957e-17
7.520000e+02 4.298997e-17
7.530000e+02 4.790275e-17
7.540000e+02 5.336117e-17
7.550000e+02 5.942405e-17
7.560000e+02 6.615637e-17
7.570000e+02 7.362990e-17
7.580000e+02 8.192384e-17
7.590000e+02 9.112561e-17
7.600000e+02 1.013317e-16
7.610000e+02 1.126484e-16
7.620000e+02 1.251931e-16
7.630000e+02 1.390951e-16
7.640000e+02 1.544970e-16
7.650000e+02 1.715556e-16
7.660000e+02 1.904441e-16
7.670000e+02 2.113529e-16
7.680000e+02 2.344916e-16
7.690000e+02 2.600911e-16
7.700000e+02 2.884052e-16
7.710000e+02 3.197132e-16
7.720000e+02 3.543222e-16
7.730000e+02 3.925700e-16
7.740000e+02 4.348277e-16
7.750000e+02 4.815031e-16
7.760000e+02 5.330443e-16
7.770000e+02 5.899431e-16
7.780000e+02 6.527399e-16
7.790000e+02 7.220277e-16
7.800000e+02 7.984572e-16
7.810000e+02 8.827423e-16
7.820000e+02 9.756661e-16
7.830000e+02 1.078087e-15
7.840000e+02 1.190947e-15
7.850000e+02 1.315277e-15
7.860000e+02 1.452209e-15
7.870000e+02 1.602979e-15
7.880000e+02 1.768945e-15
7.890000e+02 1.951591e-15
7.900000e+02 2.152542e-15
7.910000e+02 2.373578e-15
7.920000e+02 2.616645e-15
7.930000e+02 2.883870e-15
7.940000e+02 3.177582e-15
7.950000e+02 3.500326e-15
7.960000e+02 3.854884e-15
7.970000e+02 4.244294e-15
7.980000e+02 4.671878e-15
7.990000e+02 5.141262e-15
8.000000e+02 5.656406e-15
8.010000e+02 6.221636e-15
8.020000e+02 6.841668e-15
8.030000e+02 7.521653e-15
8.040000e+02 8.267208e-15
8.050000e+02 9.084461e-15
8.060000e+02 9.980090e-15
8.070000e+02 1.096138e-14
8.080000e+02 1.203627e-14
8.090000e+02 1.321340e-14
8.100000e+02 1.450221e-14
8.110000e+02 1.591295e-14
8.120000e+02 1.745680e-14
8.130000e+02 1.914592e-14
8.140000e+02 2.099356e-14
8.150000e+02 2.301413e-14
8.160000e+02 2.522330e-14
8.170000e+02 2.763812e-14
8.180000e+02 3.027714e-14
8.190000e+02 3.316050e-14
8.200000e+02 3.631013e-14
8.210000e+02 3.974984e-14
8.220000e+02 4.350549e-14
8.230000e+02 4.760518e-14
8.240000e+02 5.207943e-14
8.250000e+02 5.696138e-14
8.260000e+02 6.228699e-14
8.270000e+02 6.809530e-14
8.280000e+02 7.442867e-14
8.290000e+02 8.133305e-14
8.300000e+02 8.885826e-14
8.310000e+02 9.705835e-14
8.320000e+02 1.059919e-13
8.330000e+02 1.157225e-13
8.340000e+02 1.263188e-13
8.350000e+02 1.378555e-13
8.360000e+02 1.504133e-13
8.370000e+02 1.640796e-13
8.380000e+02 1.789493e-13
8.390000e+02 1.951247e-13
8.400000e+02 2.127170e-13
8.410000e+02 2.318461e-13
8.420000e+02 2.526420e-13
8.430000e+02 2.752452e-13
8.440000e+02 2.998076e-13
8.450000e+02 3.264936e-13
8.460000e+02 3.554807e-13
8.470000e+02 3.869610e-13
8.480000e+02 4.211419e-13
8.490000e+02 4.582475e-13
8.500000e+02 4.985198e-13
8.510000e+02 5.422202e-13
8.520000e+02 5.896312e-13
8.530000e+02 6.410571e-13
8.540000e+02 6.968271e-13
8.550000e+02 7.572960e-13
8.560000e+02 8.228465e-13
8.570000e+02 8.938917e-13
8.580000e+02 9.708769e-13
8.590000e+02 1.054283e-12
8.600000e+02 1.144626e-12
8.610000e+02 1.242466e-12
8.620000e+02 1.348403e-12
8.630000e+02 1.463085e-12
8.640000e+02 1.587210e-12
8.650000e+02 1.721530e-12
8.660000e+02 1.866855e-12
8.670000e+02 2.024055e-12
8.680000e+02 2.194070e-12
8.690000e+02 2.377907e-12
8.700000e+02 2.576655e-12
8.710000e+02 2.791481e-12
8.720000e+02 3.023642e-12
8.730000e+02 3.274491e-12
8.740000e+02 3.545482e-12
8.750000e+02 3.838176e-12
8.760000e+02 4.154253e-12
8.770000e+02 4.495520e-12
8.780000e+02 4.863914e-12
8.790000e+02 5.261520e-12
8.800000e+02 5.690576e-12
8.810000e+02 6.153485e-12
8.820000e+02 6.652828e-12
8.830000e+02 7.191373e-12
8.840000e+02 7.772095e-12
8.850000e+02 8.398185e-12
8.860000e+02 9.073064e-12
8.870000e+02 9.800407e-12
8.880000e+02 1.058415e-11
8.890000e+02 1.142852e-11
8.900000e+02 1.233805e-11
8.910000e+02 1.331758e-11
8.920000e+02 1.437233e-11
8.930000e+02 1.550787e-11
8.940000e+02 1.673018e-11
8.950000e+02 1.804566e-11
8.960000e+02 1.946116e-11
8.970000e+02 2.098403e-11
8.980000e+02 2.262213e-11
8.990000e+02 2.438387e-11
9.000000e+02 2.627828e-11
9.010000e+02 2.831498e-11
9.020000e+02 3.050430e-11
9.030000e+02 3.285728e-11
9.040000e+02 3.538573e-11
9.050000e+02 3.810226e-11
9.060000e+02 4.102040e-11
9.070000e+02 4.415458e-11
9.080000e+02 4.752022e-11
9.090000e+02 5.113383e-11
9.100000e+02 5.501304e-11
9.110000e+02 5.917668e-11
9.120000e+02 6.364489e-11
9.130000e+02 6.843914e-11
9.140000e+02 7.495027e-11
9.150000e+02 1.518226e-08
9.160000e+02 8.744968e-08
9.170000e+02 1.228775e-09
9.180000e+02 1.964893e-08
9.190000e+02 2.443306e-07
9.200000e+02 6.501440e-07
9.210000e+02 1.216394e-10
9.220000e+02 2.190665e-07
9.230000e+02 1.576317e-09
9.240000e+02 1.770445e-09
9.250000e+02 2.641319e-08
9.260000e+02 2.859374e-08
9.270000e+02 1.788775e-09
9.280000e+02 3.509242e-06
9.290000e+02 3.606579e-06
9.300000e+02 8.564560e-07
9.310000e+02 2.883674e-09
9.320000e+02 2.967400e-06
9.330000e+02 1.945614e-07
9.340000e+02 4.372896e-08
9.350000e+02 8.171404e-09
9.360000e+02 6.488150e-09
9.370000e+02 1.385718e-09
9.380000e+02 6.370563e-09
9.390000e+02 2.330662e-08
9.400000e+02 2.249608e-06
9.410000e+02 3.102358e-07
9.420000e+02 1.234088e-05
9.430000e+02 3.559512e-08
9.440000e+02 1.400022e-05
9.450000e+02 1.217552e-05
9.460000e+02 6.701443e-07
9.470000e+02 9.550973e-10
9.480000e+02 3.423799e-06
9.490000e+02 4.916435e-07
9.500000e+02 1.274228e-08
9.510000e+02 6.162663e-07
9.520000e+02 1.515791e-06
9.530000e+02 7.845401e-09
9.540000e+02 1.319043e-09
9.550000e+02 8.545885e-08
9.560000e+02 1.301203e-05
9.570000e+02 4.353262e-08
9.580000e+02 1.529315e-09
9.590000e+02 3.750692e-06
9.600000e+02 2.551621e-08
9.610000e+02 1.071009e-06
9.620000e+02 3.525807e-07
9.630000e+02 4.290450e-08
9.640000e+02 1.198632e-08
9.650000e+02 3.370587e-09
9.660000e+02 9.144151e-08
9.670000e+02 1.449553e-08
9.680000e+02 1.027456e-08
9.690000e+02 5.724132e-07
9.700000e+02 1.083343e-06
9.710000e+02 2.532316e-08
9.720000e+02 9.868842e-09
9.730000e+02 1.263674e-07
9.740000e+02 9.455807e-07
9.750000e+02 2.199837e-07
9.760000e+02 1.206235e-05
9.770000e+02 4.973916e-06
9.780000e+02 1.913068e-06
9.790000e+02 7.383049e-05
9.800000e+02 5.657105e-05
9.810000e+02 1.000644e-06
9.820000e+02 1.674198e-07
9.830000e+02 4.289416e-05
9.840000e+02 2.624508e-06
9.850000e+02 4.170050e-07
9.860000e+02 7.458738e-07
9.870000e+02 3.984020e-05
9.880000e+02 1.331682e-08
9.890000e+02 6.679795e-06
9.900000e+02 2.649852e-05
9.910000e+02 2.010334e-07
9.920000e+02 1.315039e-08
9.930000e+02 1.421765e-04
9.940000e+02 2.420518e-08
9.950000e+02 4.984478e-06
9.960000e+02 4.686262e-08
9.970000e+02 1.231964e-05
9.980000e+02 2.930106e-05
9.990000e+02 3.291297e-07
1.000000e+03 2.758621e-04
1.001000e+03 2.108573e-04
1.002000e+03 1.441361e-04
1.003000e+03 3.197201e-07
1.004000e+03 2.943852e-08
1.005000e+03 1.389417e-06
1.006000e+03 9.912855e-05
1.007000e+03 1.909818e-04
1.008000e+03 4.986783e-05
1.009000e+03 5.089615e-07
1.010000e+03 4.740903e-05
1.011000e+03 5.619143e-05
1.012000e+03 7.596686e-05
1.013000e+03 7.251920e-05
1.014000e+03 4.886897e-08
1.015000e+03 5.789479e-08
1.016000e+03 2.024244e-06
1.017000e+03 5.815673e-08
1.018000e+03 4.906760e-07
1.019000e+03 6.754999e-08
1.020000e+03 1.267316e-04
1.021000e+03 1.292159e-06
1.022000e+03 1.811204e-06
1.023000e+03 1.124718e-07
1.024000e+03 2.171535e-05
1.025000e+03 9.211499e-08
1.026000e+03 1.393657e-07
1.027000e+03 5.622593e-06
1.028000e+03 7.771378e-07
1.029000e+03 1.156113e-07
1.030000e+03 6.904942e-06
1.031000e+03 2.024717e-05
1.032000e+03 3.175075e-04
1.033000e+03 6.524453e-06
1.034000e+03 2.336540e-05
1.035000e+03 5.860202e-07
1.036000e+03 1.714288e-07
1.037000e+03 2.252038e-04
1.038000e+03 1.711628e-03
1.039000e+03 2.536797e-04
1.040000e+03 1.734200e-04
1.041000e+03 1.511297e-03
1.042000e+03 9.703278e-04
1.043000e+03 1.158528e-03
1.044000e+03 5.711004e-03
1.045000e+03 4.651940e-07
1.046000e+03 1.772640e-04
1.047000e+03 7.828278e-05
1.048000e+03 1.140797e-06
1.049000e+03 6.565926e-05
1.050000e+03 1.454746e-05
1.051000e+03 7.811002e-06
1.052000e+03 1.406716e-03
1.053000e+03 2.397043e-03
1.054000e+03 4.591420e-07
1.055000e+03 2.954835e-03
1.056000e+03 3.511826e-03
1.057000e+03 2.585370e-04
1.058000e+03 7.103290e-06
1.059000e+03 8.257804e-06
1.060000e+03 1.832843e-06
1.061000e+03 5.226927e-04
1.062000e+03 3.858591e-06
1.063000e+03 3.750007e-04
1.064000e+03 1.154840e-06
1.065000e+03 8.244533e-07
1.066000e+03 8.006848e-04
1.067000e+03 6.530438e-06
1.068000e+03 9.159315e-03
1.069000e+03 1.674341e-06
1.070000e+03 7.971376e-05
1.071000e+03 1.894038e-03
1.072000e+03 1.051601e-02
1.073000e+03 1.255423e-06
1.074000e+03 2.979142e-04
1.075000e+03 1.609400e-04
1.076000e+03 1.156725e-02
1.077000e+03 6.451301e-06
1.078000e+03 1.121871e-05
1.079000e+03 5.775972e-05
1.080000e+03 3.227021e-04
1.081000e+03 2.195857e-03
1.082000e+03 1.034528e-03
1.083000e+03 4.852526e-04
1.084000e+03 3.388712e-02
1.085000e+03 9.773951e-05
1.086000e+03 1.630488e-02
1.087000e+03 1.821481e-05
1.088000e+03 3.710946e-02
1.089000e+03 4.184529e-02
1.090000e+03 7.635455e-05
1.091000e+03 1.273900e-04
1.092000e+03 3.135271e-02
1.093000e+03 4.631182e-02
1.094000e+03 1.156710e-03
1.095000e+03 6.541947e-02
1.096000e+03 3.555087e-03
1.097000e+03 1.061463e-02
1.098000e+03 5.075570e-02
1.099000e+03 3.007203e-04
1.100000e+03 5.991547e-06
1.101000e+03 1.399093e-05
1.102000e+03 2.195589e-04
1.103000e+03 6.172907e-02
1.104000e+03 7.250846e-02
1.105000e+03 7.254079e-02
1.106000e+03 1.237442e-03
1.107000e+03 1.072325e-05
1.108000e+03 1.203142e-02
1.109000e+03 1.257323e-04
1.110000e+03 8.116605e-02
1.111000e+03 4.382007e-02
1.112000e+03 4.480743e-03
1.113000e+03 6.763751e-02
1.114000e+03 2.332289e-03
1.115000e+03 1.423802e-04
1.116000e+03 4.278015e-05
1.117000e+03 5.512069e-02
1.118000e+03 2.217642e-04
1.119000e+03 4.496142e-03
1.120000e+03 7.370859e-05
1.121000e+03 3.048069e-02
1.122000e+03 2.079733e-01
1.123000e+03 8.090477e-02
1.124000e+03 9.976181e-02
1.125000e+03 3.752104e-02
1.126000e+03 3.730095e-01
1.127000e+03 4.201603e-02
1.128000e+03 1.558380e-01
1.129000e+03 1.714905e-02
1.130000e+03 1.393856e-01
1.131000e+03 1.682028e-01
1.132000e+03 1.387889e-04
1.133000e+03 1.547188e-03
1.134000e+03 2.542464e-02
1.135000e+03 1.633666e-01
1.136000e+03 3.161334e-03
1.137000e+03 8.682750e-02
1.138000e+03 1.863627e-02
1.139000e+03 1.683649e-01
1.140000e+03 1.377064e-01
1.141000e+03 1.621673e-01
1.142000e+03 1.885656e-01
1.143000e+03 1.999874e-02
1.144000e+03 1.881991e-01
1.145000e+03 8.961558e-05
1.146000e+03 1.989352e-01
1.147000e+03 1.721014e-01
1.148000e+03 7.401183e-04
1.149000e+03 9.324161e-02
1.150000e+03 7.070137e-02
1.151000e+03 1.814833e-01
1.152000e+03 1.002853e-01
1.153000e+03 1.715163e-01
1.154000e+03 2.039041e-01
1.155000e+03 9.104794e-02
1.156000e+03 1.508036e-01
1.157000e+03 1.790068e-01
1.158000e+03 2.533615e-02
1.159000e+03 1.747448e-01
1.160000e+03 3.883315e-02
1.161000e+03 1.546901e-01
1.162000e+03 3.631346e-03
1.163000e+03 1.582985e-02
1.164000e+03 6.523989e-04
1.165000e+03 7.307084e-02
1.166000e+03 4.161460e-02
1.167000e+03 3.324578e-02
1.168000e+03 1.898426e-01
1.169000e+03 2.059208e-01
1.170000e+03 2.488848e-02
1.171000e+03 9.312878e-02
1.172000e+03 4.889766e-02
1.173000e+03 7.017653e-02
1.174000e+03 5.634837e-04
1.175000e+03 4.178770e-04
1.176000e+03 1.879632e-04
1.177000e+03 2.613724e-01
1.178000e+03 2.498763e-01
1.179000e+03 2.254933e-01
1.180000e+03 1.213537e-01
1.181000e+03 2.165291e-01
1.182000e+03 1.976790e-01
1.183000e+03 1.134845e-01
1.184000e+03 9.533481e-02
1.185000e+03 1.103854e-01
1.186000e+03 3.046753e-03
1.187000e+03 1.573877e-01
1.188000e+03 7.550296e-02
1.189000e+03 1.729396e-01
1.190000e+03 1.671716e-01
1.191000e+03 1.411472e-01
1.192000e+03 1.429112e-01
1.193000e+03 1.223500e-01
1.194000e+03 1.381112e-01
1.195000e+03 1.311029e-01
1.196000e+03 1.333918e+00
1.197000e+03 2.123597e+00
1.198000e+03 1.040092e-02
1.199000e+03 1.762628e+00
1.200000e+03 4.251224e-02
1.201000e+03 1.264552e+00
1.202000e+03 3.676252e-01
1.203000e+03 8.601742e-01
1.204000e+03 4.980654e-02
1.205000e+03 5.572669e-01
1.206000e+03 4.682671e-01
1.207000e+03 8.086631e-02
1.208000e+03 2.469114e-01
1.209000e+03 1.935142e-01
1.210000e+03 9.286627e-04
1.211000e+03 7.538134e-02
1.212000e+03 3.441592e-02
1.213000e+03 1.749264e-02
1.214000e+03 5.347986e-03
1.215000e+03 9.778553e-04
1.216000e+03 8.353731e-04
1.217000e+03 3.426242e-03
1.218000e+03 1.462381e-02
1.219000e+03 3.846456e-02
1.220000e+03 3.678201e-02
1.221000e+03 1.533330e-01
1.222000e+03 2.276866e-01
1.223000e+03 2.498100e-01
1.224000e+03 5.156857e-01
1.225000e+03 2.025187e-02
1.226000e+03 1.106967e+00
1.227000e+03 1.445508e+00
1.228000e+03 2.010500e-01
1.229000e+03 1.842184e+00
1.230000e+03 1.399339e+00
1.231000e+03 9.817266e-02
1.232000e+03 4.103669e+00
1.233000e+03 4.895738e+00
1.234000e+03 5.043963e+00
1.235000e+03 5.100634e+00
1.236000e+03 3.657393e-01
1.237000e+03 7.559326e+00
1.238000e+03 7.351742e+00
1.239000e+03 2.693012e+00
1.240000e+03 3.257472e+00
1.241000e+03 3.513130e+00
1.242000e+03 7.744802e+00
1.243000e+03 1.205789e+01
1.244000e+03 1.328010e+01
1.245000e+03 1.295732e+01
1.246000e+03 7.006703e+00
1.247000e+03 1.060107e+01
1.248000e+03 1.244044e+01
1.249000e+03 1.794151e+01
1.250000e+03 1.081737e+01
1.251000e+03 1.825786e+01
1.252000e+03 1.368633e+01
1.253000e+03 2.000701e+01
1.254000e+03 1.496727e+01
1.255000e+03 4.274967e+00
1.256000e+03 1.087115e+01
1.257000e+03 1.067043e+01
1.258000e+03 5.585993e+00
1.259000e+03 8.952631e+00
1.260000e+03 2.139922e+01
1.261000e+03 4.133911e-01
1.262000e+03 2.293931e+01
1.263000e+03 1.873413e+01
1.264000e+03 7.273317e+00
1.265000e+03 1.139014e+01
1.266000e+03 2.604964e+01
1.267000e+03 1.315802e+01
