# wavelength_A flux
5.000000e+02 5.667647e-14
5.010000e+02 6.599749e-14
5.020000e+02 7.680334e-14
5.030000e+02 8.932284e-14
5.040000e+02 1.038189e-13
5.050000e+02 1.218631e-13
5.060000e+02 1.414541e-13
5.070000e+02 1.640952e-13
5.080000e+02 1.902455e-13
5.090000e+02 2.204312e-13
5.100000e+02 2.552539e-13
5.110000e+02 2.954031e-13
5.120000e+02 3.416660e-13
5.130000e+02 3.949430e-13
5.140000e+02 4.562621e-13
5.150000e+02 5.267944e-13
5.160000e+02 6.078865e-13
5.170000e+02 7.010445e-13
5.180000e+02 8.080488e-13
5.190000e+02 9.308429e-13
5.200000e+02 1.071695e-12
5.210000e+02 1.233171e-12
5.220000e+02 1.418121e-12
5.230000e+02 1.630067e-12
5.240000e+02 1.872573e-12
5.250000e+02 2.149991e-12
5.260000e+02 2.467161e-12
5.270000e+02 2.829595e-12
5.280000e+02 3.243530e-12
5.290000e+02 3.715650e-12
5.300000e+02 4.255123e-12
5.310000e+02 4.869845e-12
5.320000e+02 5.570457e-12
5.330000e+02 6.368540e-12
5.340000e+02 7.277192e-12
5.350000e+02 8.311202e-12
5.360000e+02 9.487244e-12
5.370000e+02 1.076913e-11
5.380000e+02 1.234327e-11
5.390000e+02 1.406864e-11
5.400000e+02 1.602702e-11
5.410000e+02 1.824819e-11
5.420000e+02 2.076843e-11
5.430000e+02 2.362438e-11
5.440000e+02 2.685978e-11
5.450000e+02 3.052340e-11
5.460000e+02 3.466711e-11
5.470000e+02 3.936080e-11
5.480000e+02 4.466491e-11
5.490000e+02 5.065971e-11
5.500000e+02 5.743184e-11
5.510000e+02 6.507861e-11
5.520000e+02 7.370895e-11
5.530000e+02 8.344489e-11
5.540000e+02 9.442304e-11
5.550000e+02 1.067962e-10
5.560000e+02 1.207355e-10
5.570000e+02 1.364318e-10
5.580000e+02 1.540989e-10
5.590000e+02 1.739753e-10
5.600000e+02 1.963273e-10
5.610000e+02 2.214523e-10
5.620000e+02 2.496817e-10
5.630000e+02 2.813855e-10
5.640000e+02 3.169757e-10
5.650000e+02 3.569113e-10
5.660000e+02 4.017043e-10
5.670000e+02 4.519234e-10
5.680000e+02 5.082021e-10
5.690000e+02 5.712452e-10
5.700000e+02 6.418356e-10
5.710000e+02 7.208446e-10
5.720000e+02 8.092387e-10
5.730000e+02 9.080923e-10
5.740000e+02 1.018597e-09
5.750000e+02 1.142084e-09
5.760000e+02 1.279958e-09
5.770000e+02 1.433994e-09
5.780000e+02 1.605855e-09
5.790000e+02 1.797583e-09
5.800000e+02 2.011391e-09
5.810000e+02 2.249726e-09
5.820000e+02 2.515296e-09
5.830000e+02 2.811089e-09
5.840000e+02 3.140088e-09
5.850000e+02 3.506924e-09
5.860000e+02 3.914830e-09
5.870000e+02 4.368385e-09
5.880000e+02 4.872591e-09
5.890000e+02 5.432875e-09
5.900000e+02 6.055320e-09
5.910000e+02 6.746475e-09
5.920000e+02 7.513671e-09
5.930000e+02 8.364956e-09
5.940000e+02 9.309197e-09
5.950000e+02 1.035615e-08
5.960000e+02 1.151659e-08
5.970000e+02 1.280232e-08
5.980000e+02 1.422636e-08
5.990000e+02 1.580302e-08
6.000000e+02 1.754803e-08
6.010000e+02 1.947846e-08
6.020000e+02 2.161394e-08
6.030000e+02 2.397468e-08
6.040000e+02 2.658379e-08
6.050000e+02 2.946638e-08
6.060000e+02 3.265001e-08
6.070000e+02 3.616493e-08
6.080000e+02 4.004423e-08
6.090000e+02 4.432423e-08
6.100000e+02 4.904471e-08
6.110000e+02 5.424925e-08
6.120000e+02 5.998551e-08
6.130000e+02 6.630572e-08
6.140000e+02 7.326697e-08
6.150000e+02 8.093175e-08
6.160000e+02 8.936834e-08
6.170000e+02 9.865142e-08
6.180000e+02 1.088626e-07
6.190000e+02 1.200909e-07
6.200000e+02 1.324337e-07
6.210000e+02 1.459972e-07
6.220000e+02 1.608973e-07
6.230000e+02 1.772606e-07
6.240000e+02 1.952250e-07
6.250000e+02 2.149409e-07
6.260000e+02 2.365722e-07
6.270000e+02 2.602976e-07
6.280000e+02 2.863117e-07
6.290000e+02 3.148263e-07
6.300000e+02 3.460722e-07
6.310000e+02 3.802542e-07
6.320000e+02 4.177843e-07
6.330000e+02 4.588192e-07
6.340000e+02 5.037328e-07
6.350000e+02 5.528702e-07
6.360000e+02 6.066031e-07
6.370000e+02 6.653902e-07
6.380000e+02 7.296346e-07
6.390000e+02 7.998415e-07
6.400000e+02 8.765416e-07
6.410000e+02 9.603110e-07
6.420000e+02 1.051774e-06
6.430000e+02 1.151610e-06
6.440000e+02 1.260551e-06
6.450000e+02 1.379396e-06
6.460000e+02 1.509006e-06
6.470000e+02 1.650318e-06
6.480000e+02 1.804343e-06
6.490000e+02 1.972178e-06
6.500000e+02 2.155008e-06
6.510000e+02 2.354122e-06
6.520000e+02 2.570904e-06
6.530000e+02 2.806860e-06
6.540000e+02 3.063614e-06
6.550000e+02 3.342922e-06
6.560000e+02 3.646683e-06
6.570000e+02 3.976921e-06
6.580000e+02 4.335930e-06
6.590000e+02 4.726025e-06
6.600000e+02 5.149810e-06
6.610000e+02 5.610079e-06
6.620000e+02 6.109835e-06
6.630000e+02 6.652323e-06
6.640000e+02 7.241042e-06
6.650000e+02 7.879759e-06
6.660000e+02 8.572555e-06
6.670000e+02 9.323798e-06
6.680000e+02 1.013821e-05
6.690000e+02 1.102088e-05
6.700000e+02 1.197729e-05
6.710000e+02 1.301332e-05
6.720000e+02 1.413533e-05
6.730000e+02 1.535013e-05
6.740000e+02 1.666508e-05
6.750000e+02 1.808807e-05
6.760000e+02 1.962760e-05
6.770000e+02 2.129279e-05
6.780000e+02 2.309346e-05
6.790000e+02 2.504015e-05
6.800000e+02 2.714419e-05
6.810000e+02 2.941775e-05
6.820000e+02 3.187388e-05
6.830000e+02 3.452660e-05
6.840000e+02 3.739096e-05
6.850000e+02 4.048309e-05
6.860000e+02 4.382035e-05
6.870000e+02 4.742126e-05
6.880000e+02 5.130580e-05
6.890000e+02 5.549525e-05
6.900000e+02 6.001253e-05
6.910000e+02 6.488215e-05
6.920000e+02 7.013037e-05
6.930000e+02 7.578532e-05
6.940000e+02 8.187712e-05
6.950000e+02 8.843801e-05
6.960000e+02 9.550250e-05
6.970000e+02 1.031070e-04
6.980000e+02 1.112926e-04
6.990000e+02 1.201000e-04
7.000000e+02 1.295748e-04
7.010000e+02 1.397655e-04
7.020000e+02 1.507236e-04
7.030000e+02 1.625043e-04
7.040000e+02 1.751667e-04
7.050000e+02 1.887736e-04
7.060000e+02 2.033924e-04
7.070000e+02 2.190949e-04
7.080000e+02 2.359578e-04
7.090000e+02 2.540628e-04
7.100000e+02 2.734977e-04
7.110000e+02 2.943551e-04
7.120000e+02 3.167348e-04
7.130000e+02 3.407426e-04
7.140000e+02 3.664916e-04
7.150000e+02 3.941022e-04
7.160000e+02 4.237029e-04
7.170000e+02 4.554301e-04
7.180000e+02 4.894288e-04
7.190000e+02 5.258592e-04
7.200000e+02 5.648810e-04
7.210000e+02 6.066720e-04
7.220000e+02 6.514199e-04
7.230000e+02 6.993242e-04
7.240000e+02 7.505970e-04
7.250000e+02 8.054642e-04
7.260000e+02 8.641661e-04
7.270000e+02 9.269581e-04
7.280000e+02 9.941119e-04
7.290000e+02 1.065916e-03
7.300000e+02 1.142678e-03
7.310000e+02 1.224723e-03
7.320000e+02 1.312399e-03
7.330000e+02 1.406073e-03
7.340000e+02 1.506136e-03
7.350000e+02 1.613004e-03
7.360000e+02 1.727117e-03
7.370000e+02 1.848944e-03
7.380000e+02 1.978981e-03
7.390000e+02 2.117754e-03
7.400000e+02 2.265821e-03
7.410000e+02 2.423780e-03
7.420000e+02 2.592254e-03
7.430000e+02 2.771915e-03
7.440000e+02 2.963466e-03
7.450000e+02 3.167658e-03
7.460000e+02 3.385284e-03
7.470000e+02 3.617186e-03
7.480000e+02 3.864256e-03
7.490000e+02 4.127436e-03
7.500000e+02 4.407729e-03
7.510000e+02 4.706190e-03
7.520000e+02 5.023943e-03
7.530000e+02 5.362172e-03
7.540000e+02 5.722133e-03
7.550000e+02 6.105155e-03
7.560000e+02 6.512642e-03
7.570000e+02 6.946057e-03
7.580000e+02 7.407045e-03
7.590000e+02 7.897186e-03
7.600000e+02 8.418287e-03
7.610000e+02 8.972183e-03
7.620000e+02 9.560843e-03
7.630000e+02 1.018634e-02
7.640000e+02 1.085086e-02
7.650000e+02 1.155673e-02
7.660000e+02 1.230640e-02
7.670000e+02 1.310243e-02
7.680000e+02 1.394753e-02
7.690000e+02 1.484466e-02
7.700000e+02 1.579678e-02
7.710000e+02 1.680711e-02
7.720000e+02 1.787905e-02
7.730000e+02 1.901615e-02
7.740000e+02 2.022218e-02
7.750000e+02 2.150111e-02
7.760000e+02 2.285670e-02
7.770000e+02 2.429464e-02
7.780000e+02 2.581830e-02
7.790000e+02 2.743302e-02
7.800000e+02 2.914394e-02
7.810000e+02 3.095653e-02
7.820000e+02 3.287651e-02
7.830000e+02 3.490993e-02
7.840000e+02 3.706314e-02
7.850000e+02 3.934284e-02
7.860000e+02 4.175608e-02
7.870000e+02 4.431034e-02
7.880000e+02 4.701334e-02
7.890000e+02 4.987335e-02
7.900000e+02 5.289901e-02
7.910000e+02 5.609944e-02
7.920000e+02 5.948420e-02
7.930000e+02 6.306337e-02
7.940000e+02 6.684753e-02
7.950000e+02 7.084783e-02
7.960000e+02 7.507597e-02
7.970000e+02 7.954425e-02
7.980000e+02 8.426560e-02
7.990000e+02 8.925361e-02
8.000000e+02 9.452257e-02
8.010000e+02 1.000874e-01
8.020000e+02 1.059640e-01
8.030000e+02 1.121689e-01
8.040000e+02 1.187193e-01
8.050000e+02 1.256336e-01
8.060000e+02 1.329310e-01
8.070000e+02 1.406314e-01
8.080000e+02 1.487561e-01
8.090000e+02 1.573271e-01
8.100000e+02 1.663676e-01
8.110000e+02 1.759021e-01
8.120000e+02 1.859562e-01
8.130000e+02 1.965565e-01
8.140000e+02 2.077313e-01
8.150000e+02 2.195099e-01
8.160000e+02 2.319234e-01
8.170000e+02 2.450040e-01
8.180000e+02 2.587858e-01
8.190000e+02 2.733043e-01
8.200000e+02 2.885967e-01
8.210000e+02 3.047022e-01
8.220000e+02 3.216616e-01
8.230000e+02 3.395177e-01
8.240000e+02 3.583156e-01
8.250000e+02 3.781020e-01
8.260000e+02 3.989263e-01
8.270000e+02 4.208398e-01
8.280000e+02 4.438966e-01
8.290000e+02 4.681530e-01
8.300000e+02 4.936680e-01
8.310000e+02 5.205035e-01
8.320000e+02 5.487239e-01
8.330000e+02 5.783970e-01
8.340000e+02 6.095933e-01
8.350000e+02 6.423702e-01
8.360000e+02 6.768539e-01
8.370000e+02 7.130784e-01
8.380000e+02 7.511412e-01
8.390000e+02 7.911331e-01
8.400000e+02 8.331449e-01
8.410000e+02 8.772734e-01
8.420000e+02 9.236149e-01
8.430000e+02 9.722895e-01
8.440000e+02 1.023392e+00
8.450000e+02 1.077042e+00
8.460000e+02 1.133360e+00
8.470000e+02 1.192471e+00
8.480000e+02 1.254506e+00
8.490000e+02 1.319602e+00
8.500000e+02 1.387900e+00
8.510000e+02 1.459551e+00
8.520000e+02 1.534708e+00
8.530000e+02 1.613536e+00
8.540000e+02 1.696203e+00
8.550000e+02 1.782883e+00
8.560000e+02 1.873761e+00
8.570000e+02 1.969031e+00
8.580000e+02 2.068891e+00
8.590000e+02 2.173550e+00
8.600000e+02 2.283227e+00
8.610000e+02 2.398148e+00
8.620000e+02 2.518550e+00
8.630000e+02 2.644678e+00
8.640000e+02 2.776791e+00
8.650000e+02 2.915154e+00
8.660000e+02 3.060050e+00
8.670000e+02 3.211766e+00
8.680000e+02 3.370607e+00
8.690000e+02 3.536887e+00
8.700000e+02 3.710932e+00
8.710000e+02 3.893092e+00
8.720000e+02 4.083716e+00
8.730000e+02 4.283177e+00
8.740000e+02 4.491861e+00
8.750000e+02 4.710170e+00
8.760000e+02 4.938522e+00
8.770000e+02 5.177351e+00
8.780000e+02 5.427114e+00
8.790000e+02 5.688279e+00
8.800000e+02 5.961336e+00
8.810000e+02 6.246796e+00
8.820000e+02 6.545190e+00
8.830000e+02 6.857069e+00
8.840000e+02 7.183007e+00
8.850000e+02 7.523602e+00
8.860000e+02 7.879471e+00
8.870000e+02 8.251263e+00
8.880000e+02 8.639646e+00
8.890000e+02 9.045317e+00
8.900000e+02 9.469001e+00
8.910000e+02 9.911450e+00
8.920000e+02 1.037007e+01
8.930000e+02 1.085580e+01
8.940000e+02 1.135936e+01
8.950000e+02 1.188500e+01
8.960000e+02 1.243363e+01
8.970000e+02 1.300620e+01
8.980000e+02 1.360369e+01
8.990000e+02 1.422712e+01
9.000000e+02 1.487754e+01
9.010000e+02 1.555607e+01
9.020000e+02 1.626383e+01
9.030000e+02 1.700201e+01
9.040000e+02 1.777184e+01
9.050000e+02 1.857461e+01
9.060000e+02 1.941162e+01
9.070000e+02 2.028421e+01
9.080000e+02 2.119395e+01
9.090000e+02 2.214216e+01
9.100000e+02 2.313044e+01
9.110000e+02 2.416038e+01
9.120000e+02 2.523373e+01
9.130000e+02 2.629876e+01
9.140000e+02 2.772998e+01
9.150000e+02 1.642130e+02
9.160000e+02 2.615928e+02
9.170000e+02 2.618641e+02
9.180000e+02 2.701568e+02
9.190000e+02 3.060580e+02
9.200000e+02 3.199053e+02
9.210000e+02 3.706402e+01
9.220000e+02 3.432643e+02
9.230000e+02 3.235504e+02
9.240000e+02 3.396231e+02
9.250000e+02 3.734623e+02
9.260000e+02 3.867605e+02
9.270000e+02 3.909827e+02
9.280000e+02 4.282464e+02
9.290000e+02 4.047055e+02
9.300000e+02 4.542418e+02
9.310000e+02 4.346491e+02
9.320000e+02 4.941321e+02
9.330000e+02 5.117769e+02
9.340000e+02 5.249475e+02
9.350000e+02 1.040723e+02
9.360000e+02 5.163821e+02
9.370000e+02 9.516562e+01
9.380000e+02 3.253055e+02
9.390000e+02 6.010862e+02
9.400000e+02 6.549407e+02
9.410000e+02 2.329461e+02
9.420000e+02 7.003917e+02
9.430000e+02 6.989150e+02
9.440000e+02 5.926714e+02
9.450000e+02 7.796467e+02
9.460000e+02 8.040768e+02
9.470000e+02 6.775485e+02
9.480000e+02 7.537952e+02
9.490000e+02 8.855157e+02
9.500000e+02 1.696761e+02
9.510000e+02 9.301084e+02
9.520000e+02 9.888493e+02
9.530000e+02 8.702604e+02
9.540000e+02 7.765218e+02
9.550000e+02 1.079300e+03
9.560000e+02 1.014759e+03
9.570000e+02 6.004625e+02
9.580000e+02 7.899695e+02
9.590000e+02 1.267877e+03
9.600000e+02 2.355333e+02
9.610000e+02 1.349511e+03
9.620000e+02 1.380813e+03
9.630000e+02 1.420151e+03
9.640000e+02 2.177430e+02
9.650000e+02 1.233710e+03
9.660000e+02 1.566760e+03
9.670000e+02 1.531319e+03
9.680000e+02 1.471448e+03
9.690000e+02 1.745424e+03
9.700000e+02 1.802479e+03
9.710000e+02 1.712945e+03
9.720000e+02 1.695935e+03
9.730000e+02 1.791017e+03
9.740000e+02 2.042866e+03
9.750000e+02 2.102995e+03
9.760000e+02 2.231110e+03
9.770000e+02 2.303003e+03
9.780000e+02 2.353660e+03
9.790000e+02 2.469391e+03
9.800000e+02 2.550362e+03
9.810000e+02 2.607495e+03
9.820000e+02 2.591584e+03
9.830000e+02 2.809703e+03
9.840000e+02 1.183307e+03
9.850000e+02 2.939760e+03
9.860000e+02 3.029677e+03
9.870000e+02 3.196081e+03
9.880000e+02 2.685748e+03
9.890000e+02 2.840756e+03
9.900000e+02 6.472011e+02
9.910000e+02 3.231511e+03
9.920000e+02 2.242021e+03
9.930000e+02 3.677456e+03
9.940000e+02 7.108406e+02
9.950000e+02 1.252230e+03
9.960000e+02 3.659936e+03
9.970000e+02 1.045713e+03
9.980000e+02 4.497689e+03
9.990000e+02 4.159972e+03
1.000000e+03 4.806092e+03
1.001000e+03 4.977543e+03
1.002000e+03 5.131445e+03
1.003000e+03 4.892850e+03
1.004000e+03 4.573477e+03
1.005000e+03 5.219811e+03
1.006000e+03 5.805000e+03
1.007000e+03 5.988328e+03
1.008000e+03 6.159317e+03
1.009000e+03 6.062002e+03
1.010000e+03 6.552023e+03
1.011000e+03 6.762589e+03
1.012000e+03 6.960219e+03
1.013000e+03 7.168760e+03
1.014000e+03 4.392819e+03
1.015000e+03 5.930800e+03
1.016000e+03 7.487542e+03
1.017000e+03 4.865861e+03
1.018000e+03 7.967963e+03
1.019000e+03 6.752849e+03
1.020000e+03 8.819477e+03
1.021000e+03 4.580058e+03
1.022000e+03 7.754953e+03
1.023000e+03 7.577474e+03
1.024000e+03 9.120005e+03
1.025000e+03 4.992648e+03
1.026000e+03 3.681514e+03
1.027000e+03 9.380857e+03
1.028000e+03 2.679217e+03
1.029000e+03 7.135128e+03
1.030000e+03 1.159967e+04
1.031000e+03 1.191671e+04
1.032000e+03 1.252574e+04
1.033000e+03 4.440516e+03
1.034000e+03 1.324775e+04
1.035000e+03 3.088996e+03
1.036000e+03 9.038983e+03
1.037000e+03 1.417911e+04
1.038000e+03 1.507734e+04
1.039000e+03 1.541854e+04
1.040000e+03 1.596039e+04
1.041000e+03 1.632336e+04
1.042000e+03 1.688659e+04
1.043000e+03 1.646182e+04
1.044000e+03 1.794165e+04
1.045000e+03 1.841380e+04
1.046000e+03 1.899276e+04
1.047000e+03 1.931437e+04
1.048000e+03 1.756006e+04
1.049000e+03 2.025342e+04
1.050000e+03 2.099179e+04
1.051000e+03 2.131936e+04
1.052000e+03 2.252212e+04
1.053000e+03 2.312572e+04
1.054000e+03 1.473099e+04
1.055000e+03 2.450350e+04
1.056000e+03 2.523536e+04
1.057000e+03 2.576980e+04
1.058000e+03 2.618598e+04
1.059000e+03 2.549352e+04
1.060000e+03 2.478312e+04
1.061000e+03 2.885827e+04
1.062000e+03 2.874503e+04
1.063000e+03 1.198665e+04
1.064000e+03 7.488232e+03
1.065000e+03 2.141339e+04
1.066000e+03 2.935036e+04
1.067000e+03 3.083642e+04
1.068000e+03 3.523337e+04
1.069000e+03 2.835565e+04
1.070000e+03 3.691473e+04
1.071000e+03 3.824750e+04
1.072000e+03 3.929499e+04
1.073000e+03 2.904107e+04
1.074000e+03 4.099470e+04
1.075000e+03 4.182324e+04
1.076000e+03 4.378483e+04
1.077000e+03 3.771296e+04
1.078000e+03 4.482616e+04
1.079000e+03 4.685414e+04
1.080000e+03 4.836132e+04
1.081000e+03 4.992467e+04
1.082000e+03 5.119545e+04
1.083000e+03 5.245464e+04
1.084000e+03 5.420656e+04
1.085000e+03 4.425692e+04
1.086000e+03 5.713221e+04
1.087000e+03 5.415420e+04
1.088000e+03 6.002163e+04
1.089000e+03 6.178728e+04
1.090000e+03 6.166567e+04
1.091000e+03 6.325196e+04
1.092000e+03 6.676413e+04
1.093000e+03 6.846917e+04
1.094000e+03 7.010227e+04
1.095000e+03 7.213322e+04
1.096000e+03 7.206674e+04
1.097000e+03 7.533082e+04
1.098000e+03 7.777621e+04
1.099000e+03 7.920633e+04
1.100000e+03 7.032455e+04
1.101000e+03 7.182187e+04
1.102000e+03 1.651740e+05
1.103000e+03 6.073289e+05
1.104000e+03 2.058144e+05
1.105000e+03 8.703675e+04
1.106000e+03 1.011561e+06
1.107000e+03 1.858572e+05
1.108000e+03 1.204817e+06
1.109000e+03 5.043352e+05
1.110000e+03 4.385816e+05
1.111000e+03 2.033166e+05
1.112000e+03 1.179491e+06
1.113000e+03 1.364813e+06
1.114000e+03 7.662684e+04
1.115000e+03 7.943838e+05
1.116000e+03 6.924549e+05
1.117000e+03 7.568650e+04
1.118000e+03 6.627386e+05
1.119000e+03 1.433871e+06
1.120000e+03 7.381454e+05
1.121000e+03 1.468086e+06
1.122000e+03 3.851575e+04
1.123000e+03 2.556917e+05
1.124000e+03 1.647117e+06
1.125000e+03 1.110622e+06
1.126000e+03 1.744120e+06
1.127000e+03 1.702435e+06
1.128000e+03 7.502254e+05
1.129000e+03 1.688620e+06
1.130000e+03 1.774444e+06
1.131000e+03 1.889699e+06
1.132000e+03 1.025625e+05
1.133000e+03 1.089220e+06
1.134000e+03 1.819319e+06
1.135000e+03 8.119938e+04
1.136000e+03 1.590932e+06
1.137000e+03 2.098502e+06
1.138000e+03 1.960752e+06
1.139000e+03 2.148532e+06
1.140000e+03 7.216544e+04
1.141000e+03 2.257424e+06
1.142000e+03 2.312496e+06
1.143000e+03 2.280933e+06
1.144000e+03 2.400508e+06
1.145000e+03 6.755690e+05
1.146000e+03 2.498082e+06
1.147000e+03 2.493530e+06
1.148000e+03 1.436066e+06
1.149000e+03 2.591852e+06
1.150000e+03 2.532912e+06
1.151000e+03 2.709228e+06
1.152000e+03 2.759764e+06
1.153000e+03 1.275084e+06
1.154000e+03 2.240267e+06
1.155000e+03 2.837631e+06
1.156000e+03 1.409760e+06
1.157000e+03 3.004563e+06
1.158000e+03 1.354239e+05
1.159000e+03 2.807759e+06
1.160000e+03 2.923566e+06
1.161000e+03 3.235220e+06
1.162000e+03 1.010049e+06
1.163000e+03 2.837560e+06
1.164000e+03 1.425798e+05
1.165000e+03 3.464708e+06
1.166000e+03 3.477350e+06
1.167000e+03 3.518004e+06
1.168000e+03 3.712730e+06
1.169000e+03 3.702656e+06
1.170000e+03 3.779530e+06
1.171000e+03 3.903087e+06
1.172000e+03 3.684266e+06
1.173000e+03 4.103951e+06
1.174000e+03 2.003987e+06
1.175000e+03 1.799905e+05
1.176000e+03 1.702505e+05
1.177000e+03 4.446034e+06
1.178000e+03 4.478022e+06
1.179000e+03 4.600634e+06
1.180000e+03 3.706710e+06
1.181000e+03 4.777696e+06
1.182000e+03 4.871628e+06
1.183000e+03 4.865509e+06
1.184000e+03 4.903938e+06
1.185000e+03 5.076784e+06
1.186000e+03 3.970592e+06
1.187000e+03 5.260282e+06
1.188000e+03 4.953252e+06
1.189000e+03 2.445180e+05
1.190000e+03 1.569981e+06
1.191000e+03 5.465170e+06
1.192000e+03 5.597407e+06
1.193000e+03 2.428295e+05
1.194000e+03 2.812195e+05
1.195000e+03 4.883191e+06
1.196000e+03 5.791452e+06
1.197000e+03 9.337905e+06
1.198000e+03 7.387930e+06
1.199000e+03 9.139953e+06
1.200000e+03 7.156604e+06
1.201000e+03 8.612426e+06
1.202000e+03 8.067853e+06
1.203000e+03 1.108165e+07
1.204000e+03 7.847350e+06
1.205000e+03 9.218270e+06
1.206000e+03 8.820989e+06
1.207000e+03 1.112338e+06
1.208000e+03 6.251457e+06
1.209000e+03 4.672043e+06
1.210000e+03 3.974228e+05
1.211000e+03 2.585423e+06
1.212000e+03 1.684014e+06
1.213000e+03 1.064818e+06
1.214000e+03 6.684236e+05
1.215000e+03 4.679863e+05
1.216000e+03 4.371901e+05
1.217000e+03 6.172699e+05
1.218000e+03 1.003488e+06
1.219000e+03 1.683049e+06
1.220000e+03 2.637136e+06
1.221000e+03 4.090175e+06
1.222000e+03 5.765804e+06
1.223000e+03 7.702834e+06
1.224000e+03 9.824163e+06
1.225000e+03 8.917729e+06
1.226000e+03 1.449028e+07
1.227000e+03 1.656321e+07
1.228000e+03 1.647150e+07
1.229000e+03 2.081622e+07
1.230000e+03 2.208961e+07
1.231000e+03 1.988358e+07
1.232000e+03 2.772715e+07
1.233000e+03 2.981074e+07
1.234000e+03 1.801537e+07
1.235000e+03 3.330612e+07
1.236000e+03 2.757431e+07
1.237000e+03 3.685039e+07
1.238000e+03 3.790486e+07
1.239000e+03 3.888456e+07
1.240000e+03 3.194457e+07
1.241000e+03 4.731247e+07
1.242000e+03 3.869544e+07
1.243000e+03 5.015425e+07
1.244000e+03 3.016087e+07
1.245000e+03 3.974786e+07
1.246000e+03 6.237085e+07
1.247000e+03 6.396878e+07
1.248000e+03 3.058554e+07
1.249000e+03 4.061280e+07
1.250000e+03 6.532761e+07
1.251000e+03 7.414669e+07
1.252000e+03 7.349240e+07
1.253000e+03 7.769783e+07
1.254000e+03 7.741524e+07
1.255000e+03 7.902867e+07
1.256000e+03 7.929522e+07
1.257000e+03 8.082352e+07
1.258000e+03 7.702475e+07
1.259000e+03 8.407659e+07
1.260000e+03 8.175015e+07
1.261000e+03 1.178048e+06
1.262000e+03 2.298652e+07
1.263000e+03 9.181880e+07
1.264000e+03 8.555832e+07
1.265000e+03 1.259708e+06
1.266000e+03 9.822405e+07
1.267000e+03 9.513962e+07
