# wavelength_A flux
5.000000e+02 7.465267e-12
5.010000e+02 8.607691e-12
5.020000e+02 9.919123e-12
5.030000e+02 1.142370e-11
5.040000e+02 1.314887e-11
5.050000e+02 1.544956e-11
5.060000e+02 1.775983e-11
5.070000e+02 2.040399e-11
5.080000e+02 2.342860e-11
5.090000e+02 2.688686e-11
5.100000e+02 3.083790e-11
5.110000e+02 3.535003e-11
5.120000e+02 4.049999e-11
5.130000e+02 4.637481e-11
5.140000e+02 5.307291e-11
5.150000e+02 6.070498e-11
5.160000e+02 6.939852e-11
5.170000e+02 7.929118e-11
5.180000e+02 9.055198e-11
5.190000e+02 1.033538e-10
5.200000e+02 1.179035e-10
5.210000e+02 1.344309e-10
5.220000e+02 1.531811e-10
5.230000e+02 1.744891e-10
5.240000e+02 1.986408e-10
5.250000e+02 2.260215e-10
5.260000e+02 2.570441e-10
5.270000e+02 2.921771e-10
5.280000e+02 3.319455e-10
5.290000e+02 3.768615e-10
5.300000e+02 4.278177e-10
5.310000e+02 4.853251e-10
5.320000e+02 5.502939e-10
5.330000e+02 6.236539e-10
5.340000e+02 7.064506e-10
5.350000e+02 7.998529e-10
5.360000e+02 9.051649e-10
5.370000e+02 1.012902e-09
5.380000e+02 1.157561e-09
5.390000e+02 1.308133e-09
5.400000e+02 1.477591e-09
5.410000e+02 1.668104e-09
5.420000e+02 1.882535e-09
5.430000e+02 2.123447e-09
5.440000e+02 2.394073e-09
5.450000e+02 2.697958e-09
5.460000e+02 3.038570e-09
5.470000e+02 3.421695e-09
5.480000e+02 3.850799e-09
5.490000e+02 4.331799e-09
5.500000e+02 4.870710e-09
5.510000e+02 5.474254e-09
5.520000e+02 6.149884e-09
5.530000e+02 6.905887e-09
5.540000e+02 7.751463e-09
5.550000e+02 8.696818e-09
5.560000e+02 9.753282e-09
5.570000e+02 1.093341e-08
5.580000e+02 1.225114e-08
5.590000e+02 1.372189e-08
5.600000e+02 1.536274e-08
5.610000e+02 1.719263e-08
5.620000e+02 1.923249e-08
5.630000e+02 2.150549e-08
5.640000e+02 2.403724e-08
5.650000e+02 2.685603e-08
5.660000e+02 2.999326e-08
5.670000e+02 3.348337e-08
5.680000e+02 3.736459e-08
5.690000e+02 4.167902e-08
5.700000e+02 4.647308e-08
5.710000e+02 5.179817e-08
5.720000e+02 5.771065e-08
5.730000e+02 6.427283e-08
5.740000e+02 7.155330e-08
5.750000e+02 7.962867e-08
5.760000e+02 8.857130e-08
5.770000e+02 9.849992e-08
5.780000e+02 1.094889e-07
5.790000e+02 1.216577e-07
5.800000e+02 1.351279e-07
5.810000e+02 1.500331e-07
5.820000e+02 1.665199e-07
5.830000e+02 1.847483e-07
5.840000e+02 2.048490e-07
5.850000e+02 2.271521e-07
5.860000e+02 2.517562e-07
5.870000e+02 2.789104e-07
5.880000e+02 3.088803e-07
5.890000e+02 3.419424e-07
5.900000e+02 3.784176e-07
5.910000e+02 4.186286e-07
5.920000e+02 4.629487e-07
5.930000e+02 5.117800e-07
5.940000e+02 5.655634e-07
5.950000e+02 6.247716e-07
5.960000e+02 6.899585e-07
5.970000e+02 7.616723e-07
5.980000e+02 8.405508e-07
5.990000e+02 9.272806e-07
6.000000e+02 1.022611e-06
6.010000e+02 1.127283e-06
6.020000e+02 1.242420e-06
6.030000e+02 1.368763e-06
6.040000e+02 1.507453e-06
6.050000e+02 1.659644e-06
6.060000e+02 1.826593e-06
6.070000e+02 2.009682e-06
6.080000e+02 2.210396e-06
6.090000e+02 2.430364e-06
6.100000e+02 2.671357e-06
6.110000e+02 2.935304e-06
6.120000e+02 3.224294e-06
6.130000e+02 3.540607e-06
6.140000e+02 3.886717e-06
6.150000e+02 4.265314e-06
6.160000e+02 4.679317e-06
6.170000e+02 5.131899e-06
6.180000e+02 5.626504e-06
6.190000e+02 6.166867e-06
6.200000e+02 6.757045e-06
6.210000e+02 7.401432e-06
6.220000e+02 8.104797e-06
6.230000e+02 8.872309e-06
6.240000e+02 9.709568e-06
6.250000e+02 1.062264e-05
6.260000e+02 1.161810e-05
6.270000e+02 1.270306e-05
6.280000e+02 1.388523e-05
6.290000e+02 1.517293e-05
6.300000e+02 1.657519e-05
6.310000e+02 1.810072e-05
6.320000e+02 1.976316e-05
6.330000e+02 2.157076e-05
6.340000e+02 2.353703e-05
6.350000e+02 2.567507e-05
6.360000e+02 2.798529e-05
6.370000e+02 3.052548e-05
6.380000e+02 3.327004e-05
6.390000e+02 3.625116e-05
6.400000e+02 3.948836e-05
6.410000e+02 4.300265e-05
6.420000e+02 4.681673e-05
6.430000e+02 5.095504e-05
6.440000e+02 5.544391e-05
6.450000e+02 6.031174e-05
6.460000e+02 6.558914e-05
6.470000e+02 7.130898e-05
6.480000e+02 7.750678e-05
6.490000e+02 8.422066e-05
6.500000e+02 9.149166e-05
6.510000e+02 9.936402e-05
6.520000e+02 1.078852e-04
6.530000e+02 1.171063e-04
6.540000e+02 1.270823e-04
6.550000e+02 1.378721e-04
6.560000e+02 1.495392e-04
6.570000e+02 1.621491e-04
6.580000e+02 1.757828e-04
6.590000e+02 1.905109e-04
6.600000e+02 2.064201e-04
6.610000e+02 2.236019e-04
6.620000e+02 2.421524e-04
6.630000e+02 2.621758e-04
6.640000e+02 2.837841e-04
6.650000e+02 3.070962e-04
6.660000e+02 3.322421e-04
6.670000e+02 3.593578e-04
6.680000e+02 3.885911e-04
6.690000e+02 4.200997e-04
6.700000e+02 4.540526e-04
6.710000e+02 4.906307e-04
6.720000e+02 5.300276e-04
6.730000e+02 5.724508e-04
6.740000e+02 6.181215e-04
6.750000e+02 6.672771e-04
6.760000e+02 7.201712e-04
6.770000e+02 7.770748e-04
6.780000e+02 8.382778e-04
6.790000e+02 9.040899e-04
6.800000e+02 9.748419e-04
6.810000e+02 1.050887e-03
6.820000e+02 1.132604e-03
6.830000e+02 1.220394e-03
6.840000e+02 1.314689e-03
6.850000e+02 1.415945e-03
6.860000e+02 1.524659e-03
6.870000e+02 1.641342e-03
6.880000e+02 1.766569e-03
6.890000e+02 1.900919e-03
6.900000e+02 2.045032e-03
6.910000e+02 2.199583e-03
6.920000e+02 2.365293e-03
6.930000e+02 2.542927e-03
6.940000e+02 2.733305e-03
6.950000e+02 2.937295e-03
6.960000e+02 3.155825e-03
6.970000e+02 3.389847e-03
6.980000e+02 3.640516e-03
6.990000e+02 3.908844e-03
7.000000e+02 4.196056e-03
7.010000e+02 4.503416e-03
7.020000e+02 4.832270e-03
7.030000e+02 5.184048e-03
7.040000e+02 5.560270e-03
7.050000e+02 5.962553e-03
7.060000e+02 6.392611e-03
7.070000e+02 6.852277e-03
7.080000e+02 7.343482e-03
7.090000e+02 7.868266e-03
7.100000e+02 8.428876e-03
7.110000e+02 9.027572e-03
7.120000e+02 9.666839e-03
7.130000e+02 1.034929e-02
7.140000e+02 1.107770e-02
7.150000e+02 1.185500e-02
7.160000e+02 1.268433e-02
7.170000e+02 1.356895e-02
7.180000e+02 1.451234e-02
7.190000e+02 1.551853e-02
7.200000e+02 1.659108e-02
7.210000e+02 1.773431e-02
7.220000e+02 1.895264e-02
7.230000e+02 2.025076e-02
7.240000e+02 2.163363e-02
7.250000e+02 2.310651e-02
7.260000e+02 2.467496e-02
7.270000e+02 2.634489e-02
7.280000e+02 2.812251e-02
7.290000e+02 3.001442e-02
7.300000e+02 3.202761e-02
7.310000e+02 3.416945e-02
7.320000e+02 3.644775e-02
7.330000e+02 3.887077e-02
7.340000e+02 4.144722e-02
7.350000e+02 4.418634e-02
7.360000e+02 4.709783e-02
7.370000e+02 5.019209e-02
7.380000e+02 5.347991e-02
7.390000e+02 5.697280e-02
7.400000e+02 6.068278e-02
7.410000e+02 6.462306e-02
7.420000e+02 6.880661e-02
7.430000e+02 7.324831e-02
7.440000e+02 7.796278e-02
7.450000e+02 8.296606e-02
7.460000e+02 8.827494e-02
7.470000e+02 9.390712e-02
7.480000e+02 9.988126e-02
7.490000e+02 1.062171e-01
7.500000e+02 1.129353e-01
7.510000e+02 1.200577e-01
7.520000e+02 1.276076e-01
7.530000e+02 1.356090e-01
7.540000e+02 1.440878e-01
7.550000e+02 1.530707e-01
7.560000e+02 1.625863e-01
7.570000e+02 1.726620e-01
7.580000e+02 1.833367e-01
7.590000e+02 1.946356e-01
7.600000e+02 2.065976e-01
7.610000e+02 2.192583e-01
7.620000e+02 2.326566e-01
7.630000e+02 2.468330e-01
7.640000e+02 2.618304e-01
7.650000e+02 2.776940e-01
7.660000e+02 2.944712e-01
7.670000e+02 3.122115e-01
7.680000e+02 3.309663e-01
7.690000e+02 3.507942e-01
7.700000e+02 3.717494e-01
7.710000e+02 3.938938e-01
7.720000e+02 4.172914e-01
7.730000e+02 4.420093e-01
7.740000e+02 4.681178e-01
7.750000e+02 4.956911e-01
7.760000e+02 5.247723e-01
7.770000e+02 5.555468e-01
7.780000e+02 5.879967e-01
7.790000e+02 6.222461e-01
7.800000e+02 6.583897e-01
7.810000e+02 6.965265e-01
7.820000e+02 7.367603e-01
7.830000e+02 7.792001e-01
7.840000e+02 8.239607e-01
7.850000e+02 8.711615e-01
7.860000e+02 9.209279e-01
7.870000e+02 9.733950e-01
7.880000e+02 1.028696e+00
7.890000e+02 1.086978e+00
7.900000e+02 1.148394e+00
7.910000e+02 1.213101e+00
7.920000e+02 1.281267e+00
7.930000e+02 1.353066e+00
7.940000e+02 1.428681e+00
7.950000e+02 1.508304e+00
7.960000e+02 1.592136e+00
7.970000e+02 1.680386e+00
7.980000e+02 1.773274e+00
7.990000e+02 1.871031e+00
8.000000e+02 1.973897e+00
8.010000e+02 2.082122e+00
8.020000e+02 2.195976e+00
8.030000e+02 2.315730e+00
8.040000e+02 2.441673e+00
8.050000e+02 2.574108e+00
8.060000e+02 2.713350e+00
8.070000e+02 2.859729e+00
8.080000e+02 3.013591e+00
8.090000e+02 3.175296e+00
8.100000e+02 3.345221e+00
8.110000e+02 3.523760e+00
8.120000e+02 3.711326e+00
8.130000e+02 3.908349e+00
8.140000e+02 4.115277e+00
8.150000e+02 4.332578e+00
8.160000e+02 4.560751e+00
8.170000e+02 4.800299e+00
8.180000e+02 5.051761e+00
8.190000e+02 5.315693e+00
8.200000e+02 5.592680e+00
8.210000e+02 5.883329e+00
8.220000e+02 6.188276e+00
8.230000e+02 6.508183e+00
8.240000e+02 6.843741e+00
8.250000e+02 7.195673e+00
8.260000e+02 7.564729e+00
8.270000e+02 7.951695e+00
8.280000e+02 8.357389e+00
8.290000e+02 8.782665e+00
8.300000e+02 9.228414e+00
8.310000e+02 9.695561e+00
8.320000e+02 1.018508e+01
8.330000e+02 1.069796e+01
8.340000e+02 1.123528e+01
8.350000e+02 1.179747e+01
8.360000e+02 1.238757e+01
8.370000e+02 1.300495e+01
8.380000e+02 1.365132e+01
8.390000e+02 1.432818e+01
8.400000e+02 1.503671e+01
8.410000e+02 1.577834e+01
8.420000e+02 1.655437e+01
8.430000e+02 1.736685e+01
8.440000e+02 1.821682e+01
8.450000e+02 1.910609e+01
8.460000e+02 2.003638e+01
8.470000e+02 2.100946e+01
8.480000e+02 2.202719e+01
8.490000e+02 2.309149e+01
8.500000e+02 2.420436e+01
8.510000e+02 2.536789e+01
8.520000e+02 2.658422e+01
8.530000e+02 2.785567e+01
8.540000e+02 2.918460e+01
8.550000e+02 3.057331e+01
8.560000e+02 3.202440e+01
8.570000e+02 3.354052e+01
8.580000e+02 3.512439e+01
8.590000e+02 3.677887e+01
8.600000e+02 3.850690e+01
8.610000e+02 4.031155e+01
8.620000e+02 4.219603e+01
8.630000e+02 4.416360e+01
8.640000e+02 4.621780e+01
8.650000e+02 4.836205e+01
8.660000e+02 5.060029e+01
8.670000e+02 5.293618e+01
8.680000e+02 5.537379e+01
8.690000e+02 5.791726e+01
8.700000e+02 6.057092e+01
8.710000e+02 6.333925e+01
8.720000e+02 6.622688e+01
8.730000e+02 6.923865e+01
8.740000e+02 7.237955e+01
8.750000e+02 7.565478e+01
8.760000e+02 7.906973e+01
8.770000e+02 8.262986e+01
8.780000e+02 8.634131e+01
8.790000e+02 9.020976e+01
8.800000e+02 9.424155e+01
8.810000e+02 9.844314e+01
8.820000e+02 1.028212e+02
8.830000e+02 1.073828e+02
8.840000e+02 1.121350e+02
8.850000e+02 1.170853e+02
8.860000e+02 1.222415e+02
8.870000e+02 1.276115e+02
8.880000e+02 1.332038e+02
8.890000e+02 1.390268e+02
8.900000e+02 1.450896e+02
8.910000e+02 1.514012e+02
8.920000e+02 1.578589e+02
8.930000e+02 1.648101e+02
8.940000e+02 1.719274e+02
8.950000e+02 1.793340e+02
8.960000e+02 1.870410e+02
8.970000e+02 1.950597e+02
8.980000e+02 2.034020e+02
8.990000e+02 2.120799e+02
9.000000e+02 2.211063e+02
9.010000e+02 2.304941e+02
9.020000e+02 2.402569e+02
9.030000e+02 2.504086e+02
9.040000e+02 2.609632e+02
9.050000e+02 2.719375e+02
9.060000e+02 2.833455e+02
9.070000e+02 2.952010e+02
9.080000e+02 3.075278e+02
9.090000e+02 3.203361e+02
9.100000e+02 3.336460e+02
9.110000e+02 3.474764e+02
9.120000e+02 3.618495e+02
9.130000e+02 3.746000e+02
9.140000e+02 3.977654e+02
9.150000e+02 2.274239e+03
9.160000e+02 3.899900e+03
9.170000e+02 4.043843e+03
9.180000e+02 4.134161e+03
9.190000e+02 4.368196e+03
9.200000e+02 4.527273e+03
9.210000e+02 5.150901e+02
9.220000e+02 4.844416e+03
9.230000e+02 4.927565e+03
9.240000e+02 4.928475e+03
9.250000e+02 5.297708e+03
9.260000e+02 5.504072e+03
9.270000e+02 5.715740e+03
9.280000e+02 5.934094e+03
9.290000e+02 6.131744e+03
9.300000e+02 6.284691e+03
9.310000e+02 6.455686e+03
9.320000e+02 6.782171e+03
9.330000e+02 7.002724e+03
9.340000e+02 7.245015e+03
9.350000e+02 1.812805e+03
9.360000e+02 7.418871e+03
9.370000e+02 1.518899e+03
9.380000e+02 4.646741e+03
9.390000e+02 8.497648e+03
9.400000e+02 8.824481e+03
9.410000e+02 3.555459e+03
9.420000e+02 9.421920e+03
9.430000e+02 9.718303e+03
9.440000e+02 7.879213e+03
9.450000e+02 1.038063e+04
9.460000e+02 1.071762e+04
9.470000e+02 9.570983e+03
9.480000e+02 9.416199e+03
9.490000e+02 1.172124e+04
9.500000e+02 2.456058e+03
9.510000e+02 1.233106e+04
9.520000e+02 1.299941e+04
9.530000e+02 1.315538e+04
9.540000e+02 1.195460e+04
9.550000e+02 1.429877e+04
9.560000e+02 1.176260e+04
9.570000e+02 9.662786e+03
9.580000e+02 1.498874e+04
9.590000e+02 1.630797e+04
9.600000e+02 3.508845e+03
9.610000e+02 1.736122e+04
9.620000e+02 1.790702e+04
9.630000e+02 1.847390e+04
9.640000e+02 2.754303e+03
9.650000e+02 1.818892e+04
9.660000e+02 2.027829e+04
9.670000e+02 2.074424e+04
9.680000e+02 2.124316e+04
9.690000e+02 2.215382e+04
9.700000e+02 2.290824e+04
9.710000e+02 2.333372e+04
9.720000e+02 2.267287e+04
9.730000e+02 2.296871e+04
9.740000e+02 2.566533e+04
9.750000e+02 2.668182e+04
9.760000e+02 2.760943e+04
9.770000e+02 2.848042e+04
9.780000e+02 2.929363e+04
9.790000e+02 3.029038e+04
9.800000e+02 3.121065e+04
9.810000e+02 3.215425e+04
9.820000e+02 3.297735e+04
9.830000e+02 3.416431e+04
9.840000e+02 1.682051e+04
9.850000e+02 3.622550e+04
9.860000e+02 3.730447e+04
9.870000e+02 3.850479e+04
9.880000e+02 3.885295e+04
9.890000e+02 3.521418e+04
9.900000e+02 7.936630e+03
9.910000e+02 4.269323e+04
9.920000e+02 3.878937e+04
9.930000e+02 4.388831e+04
9.940000e+02 8.990656e+03
9.950000e+02 1.692630e+04
9.960000e+02 4.394072e+04
9.970000e+02 1.283682e+04
9.980000e+02 5.308383e+04
9.990000e+02 5.367434e+04
1.000000e+03 5.638648e+04
1.001000e+03 5.805909e+04
1.002000e+03 5.974255e+04
1.003000e+03 5.931832e+04
1.004000e+03 6.233291e+04
1.005000e+03 6.190661e+04
1.006000e+03 6.700970e+04
1.007000e+03 6.890169e+04
1.008000e+03 7.084848e+04
1.009000e+03 7.205513e+04
1.010000e+03 7.505507e+04
1.011000e+03 7.720745e+04
1.012000e+03 7.939785e+04
1.013000e+03 8.165107e+04
1.014000e+03 7.763441e+04
1.015000e+03 8.367234e+04
1.016000e+03 8.831166e+04
1.017000e+03 8.501909e+04
1.018000e+03 9.339898e+04
1.019000e+03 9.412538e+04
1.020000e+03 9.885731e+04
1.021000e+03 5.536332e+04
1.022000e+03 9.314873e+04
1.023000e+03 1.030145e+05
1.024000e+03 1.005045e+05
1.025000e+03 8.021081e+04
1.026000e+03 4.486152e+04
1.027000e+03 1.059328e+05
1.028000e+03 3.335938e+04
1.029000e+03 1.174409e+05
1.030000e+03 1.284303e+05
1.031000e+03 1.333239e+05
1.032000e+03 1.371707e+05
1.033000e+03 6.010559e+04
1.034000e+03 1.454169e+05
1.035000e+03 3.614198e+04
1.036000e+03 1.365899e+05
1.037000e+03 6.813451e+04
1.038000e+03 1.624216e+05
1.039000e+03 1.659343e+05
1.040000e+03 1.713963e+05
1.041000e+03 1.743356e+05
1.042000e+03 1.802952e+05
1.043000e+03 1.782548e+05
1.044000e+03 1.906828e+05
1.045000e+03 1.956975e+05
1.046000e+03 2.012418e+05
1.047000e+03 2.063629e+05
1.048000e+03 2.091272e+05
1.049000e+03 2.127096e+05
1.050000e+03 2.233475e+05
1.051000e+03 2.290350e+05
1.052000e+03 2.356728e+05
1.053000e+03 2.411387e+05
1.054000e+03 2.304564e+05
1.055000e+03 2.529316e+05
1.056000e+03 2.615892e+05
1.057000e+03 2.682350e+05
1.058000e+03 2.750223e+05
1.059000e+03 2.805838e+05
1.060000e+03 2.863585e+05
1.061000e+03 2.974490e+05
1.062000e+03 3.044625e+05
1.063000e+03 1.188199e+05
1.064000e+03 7.967127e+04
1.065000e+03 3.123362e+05
1.066000e+03 2.732488e+05
1.067000e+03 3.415679e+05
1.068000e+03 3.564843e+05
1.069000e+03 3.529497e+05
1.070000e+03 3.737564e+05
1.071000e+03 3.846574e+05
1.072000e+03 3.944286e+05
1.073000e+03 3.886901e+05
1.074000e+03 4.142156e+05
1.075000e+03 4.244067e+05
1.076000e+03 4.359347e+05
1.077000e+03 4.422734e+05
1.078000e+03 4.570778e+05
1.079000e+03 4.685268e+05
1.080000e+03 4.810498e+05
1.081000e+03 4.933038e+05
1.082000e+03 5.053696e+05
1.083000e+03 5.179159e+05
1.084000e+03 5.311244e+05
1.085000e+03 4.256489e+05
1.086000e+03 5.576637e+05
1.087000e+03 5.669090e+05
1.088000e+03 5.839549e+05
1.089000e+03 5.996468e+05
1.090000e+03 6.125839e+05
1.091000e+03 6.272360e+05
1.092000e+03 6.444681e+05
1.093000e+03 6.597481e+05
1.094000e+03 6.759574e+05
1.095000e+03 6.922965e+05
1.096000e+03 7.083609e+05
1.097000e+03 7.207099e+05
1.098000e+03 7.398449e+05
1.099000e+03 7.607134e+05
1.100000e+03 7.591489e+05
1.101000e+03 7.302519e+05
1.102000e+03 1.562833e+06
1.103000e+03 4.768266e+06
1.104000e+03 1.906835e+06
1.105000e+03 8.147465e+05
1.106000e+03 9.791185e+06
1.107000e+03 5.411902e+06
1.108000e+03 1.034692e+07
1.109000e+03 7.165259e+06
1.110000e+03 3.573748e+06
1.111000e+03 1.808601e+06
1.112000e+03 1.008619e+07
1.113000e+03 1.149247e+07
1.114000e+03 7.091005e+05
1.115000e+03 1.040891e+07
1.116000e+03 1.030953e+07
1.117000e+03 7.588260e+05
1.118000e+03 8.789134e+06
1.119000e+03 1.258214e+07
1.120000e+03 1.116480e+07
1.121000e+03 1.232498e+07
1.122000e+03 3.457260e+05
1.123000e+03 1.768906e+06
1.124000e+03 1.383471e+07
1.125000e+03 8.825708e+06
1.126000e+03 1.442603e+07
1.127000e+03 1.423436e+07
1.128000e+03 6.912298e+06
1.129000e+03 1.473594e+07
1.130000e+03 1.417317e+07
1.131000e+03 1.576772e+07
1.132000e+03 9.725880e+05
1.133000e+03 1.326440e+07
1.134000e+03 1.593918e+07
1.135000e+03 6.331310e+05
1.136000e+03 1.628774e+07
1.137000e+03 1.749695e+07
1.138000e+03 1.752732e+07
1.139000e+03 1.775520e+07
1.140000e+03 6.421800e+05
1.141000e+03 1.879032e+07
1.142000e+03 1.904681e+07
1.143000e+03 1.938547e+07
1.144000e+03 1.984526e+07
1.145000e+03 1.325743e+07
1.146000e+03 2.056222e+07
1.147000e+03 2.064251e+07
1.148000e+03 1.878355e+07
1.149000e+03 2.158996e+07
1.150000e+03 2.165262e+07
1.151000e+03 2.229249e+07
1.152000e+03 2.277158e+07
1.153000e+03 9.593311e+06
1.154000e+03 4.268254e+06
1.155000e+03 2.227267e+07
1.156000e+03 8.081616e+06
1.157000e+03 2.478902e+07
1.158000e+03 1.067790e+06
1.159000e+03 2.245617e+07
1.160000e+03 2.556163e+07
1.161000e+03 2.663992e+07
1.162000e+03 9.119386e+06
1.163000e+03 2.665500e+07
1.164000e+03 1.321422e+06
1.165000e+03 2.854808e+07
1.166000e+03 2.897484e+07
1.167000e+03 2.934230e+07
1.168000e+03 3.033950e+07
1.169000e+03 3.024647e+07
1.170000e+03 3.144920e+07
1.171000e+03 3.210614e+07
1.172000e+03 3.210684e+07
1.173000e+03 3.342064e+07
1.174000e+03 2.914675e+07
1.175000e+03 1.617962e+06
1.176000e+03 1.461812e+06
1.177000e+03 3.601061e+07
1.178000e+03 3.595381e+07
1.179000e+03 3.733752e+07
1.180000e+03 3.066438e+07
1.181000e+03 3.858510e+07
1.182000e+03 3.950380e+07
1.183000e+03 4.004480e+07
1.184000e+03 4.064966e+07
1.185000e+03 4.122940e+07
1.186000e+03 4.038710e+07
1.187000e+03 4.272153e+07
1.188000e+03 4.264306e+07
1.189000e+03 1.968948e+06
1.190000e+03 8.567928e+06
1.191000e+03 4.435890e+07
1.192000e+03 4.494855e+07
1.193000e+03 1.893594e+06
1.194000e+03 2.267532e+06
1.195000e+03 3.841198e+07
1.196000e+03 4.661478e+07
1.197000e+03 6.967340e+07
1.198000e+03 6.743616e+07
1.199000e+03 6.861130e+07
1.200000e+03 6.083807e+07
1.201000e+03 6.491572e+07
1.202000e+03 6.364931e+07
1.203000e+03 8.106710e+07
1.204000e+03 7.048822e+07
1.205000e+03 6.827649e+07
1.206000e+03 6.415196e+07
1.207000e+03 1.043765e+07
1.208000e+03 4.787062e+07
1.209000e+03 3.686346e+07
1.210000e+03 3.243122e+06
1.211000e+03 2.200267e+07
1.212000e+03 1.458242e+07
1.213000e+03 9.275127e+06
1.214000e+03 5.560863e+06
1.215000e+03 3.604322e+06
1.216000e+03 3.305709e+06
1.217000e+03 4.984145e+06
1.218000e+03 8.576286e+06
1.219000e+03 1.459617e+07
1.220000e+03 2.295762e+07
1.221000e+03 3.354532e+07
1.222000e+03 4.562146e+07
1.223000e+03 5.896003e+07
1.224000e+03 7.337566e+07
1.225000e+03 8.405186e+07
1.226000e+03 1.038920e+08
1.227000e+03 1.184971e+08
1.228000e+03 1.322100e+08
1.229000e+03 1.514500e+08
1.230000e+03 1.651255e+08
1.231000e+03 1.745639e+08
1.232000e+03 2.011100e+08
1.233000e+03 2.169561e+08
1.234000e+03 1.317301e+08
1.235000e+03 2.470390e+08
1.236000e+03 2.430372e+08
1.237000e+03 2.764302e+08
1.238000e+03 2.888166e+08
1.239000e+03 3.015020e+08
1.240000e+03 2.825277e+08
1.241000e+03 4.723464e+08
1.242000e+03 2.805960e+08
1.243000e+03 4.236755e+08
1.244000e+03 1.827441e+08
1.245000e+03 2.691195e+08
1.246000e+03 7.337407e+08
1.247000e+03 7.517010e+08
1.248000e+03 1.958281e+08
1.249000e+03 2.527343e+08
1.250000e+03 8.710898e+08
1.251000e+03 9.350860e+08
1.252000e+03 9.435100e+08
1.253000e+03 1.006624e+09
1.254000e+03 1.008844e+09
1.255000e+03 1.059608e+09
1.256000e+03 1.058112e+09
1.257000e+03 1.122517e+09
1.258000e+03 1.036502e+09
1.259000e+03 1.110996e+09
1.260000e+03 9.371244e+08
1.261000e+03 8.341257e+06
1.262000e+03 1.255802e+08
1.263000e+03 1.253343e+09
1.264000e+03 1.083233e+09
1.265000e+03 8.689440e+06
1.266000e+03 1.339151e+09
1.267000e+03 1.331210e+09
