# wavelength_A flux
5.000000e+02 4.326377e-37
5.010000e+02 5.603227e-37
5.020000e+02 7.249297e-37
5.030000e+02 9.369151e-37
5.040000e+02 1.209634e-36
5.050000e+02 1.560436e-36
5.060000e+02 2.010494e-36
5.070000e+02 2.587710e-36
5.080000e+02 3.327290e-36
5.090000e+02 4.273931e-36
5.100000e+02 5.483538e-36
5.110000e+02 7.030719e-36
5.120000e+02 9.004073e-36
5.130000e+02 1.152004e-35
5.140000e+02 1.472458e-35
5.150000e+02 1.880226e-35
5.160000e+02 2.398598e-35
5.170000e+02 3.056948e-35
5.180000e+02 3.892277e-35
5.190000e+02 4.951163e-35
5.200000e+02 6.292176e-35
5.210000e+02 7.988899e-35
5.220000e+02 1.013368e-34
5.230000e+02 1.284239e-34
5.240000e+02 1.626012e-34
5.250000e+02 2.056852e-34
5.260000e+02 2.599481e-34
5.270000e+02 3.282286e-34
5.280000e+02 4.140711e-34
5.290000e+02 5.218962e-34
5.300000e+02 6.572134e-34
5.310000e+02 8.268829e-34
5.320000e+02 1.039439e-33
5.330000e+02 1.305490e-33
5.340000e+02 1.638211e-33
5.350000e+02 2.053950e-33
5.360000e+02 2.572978e-33
5.370000e+02 3.220292e-33
5.380000e+02 4.027305e-33
5.390000e+02 5.032123e-33
5.400000e+02 6.282350e-33
5.410000e+02 7.836629e-33
5.420000e+02 9.767310e-33
5.430000e+02 1.216357e-32
5.440000e+02 1.513524e-32
5.450000e+02 1.881750e-32
5.460000e+02 2.337658e-32
5.470000e+02 2.901671e-32
5.480000e+02 3.598866e-32
5.490000e+02 4.460004e-32
5.500000e+02 5.522795e-32
5.510000e+02 6.833425e-32
5.520000e+02 8.448426e-32
5.530000e+02 1.043693e-31
5.540000e+02 1.288343e-31
5.550000e+02 1.589108e-31
5.560000e+02 1.958576e-31
5.570000e+02 2.412096e-31
5.580000e+02 2.968367e-31
5.590000e+02 3.650154e-31
5.600000e+02 4.485153e-31
5.610000e+02 5.507029e-31
5.620000e+02 6.756681e-31
5.630000e+02 8.283752e-31
5.640000e+02 1.014846e-30
5.650000e+02 1.242379e-30
5.660000e+02 1.519816e-30
5.670000e+02 1.857858e-30
5.680000e+02 2.269447e-30
5.690000e+02 2.770227e-30
5.700000e+02 3.379093e-30
5.710000e+02 4.118851e-30
5.720000e+02 5.017007e-30
5.730000e+02 6.106716e-30
5.740000e+02 7.427912e-30
5.750000e+02 9.028660e-30
5.760000e+02 1.096678e-29
5.770000e+02 1.331176e-29
5.780000e+02 1.614709e-29
5.790000e+02 1.957297e-29
5.800000e+02 2.370963e-29
5.810000e+02 2.870118e-29
5.820000e+02 3.472027e-29
5.830000e+02 4.197362e-29
5.840000e+02 5.070854e-29
5.850000e+02 6.122079e-29
5.860000e+02 7.386370e-29
5.870000e+02 8.905927e-29
5.880000e+02 1.073111e-28
5.890000e+02 1.292197e-28
5.900000e+02 1.555010e-28
5.910000e+02 1.870076e-28
5.920000e+02 2.247546e-28
5.930000e+02 2.699494e-28
5.940000e+02 3.240276e-28
5.950000e+02 3.886950e-28
5.960000e+02 4.659772e-28
5.970000e+02 5.582778e-28
5.980000e+02 6.684478e-28
5.990000e+02 7.998663e-28
6.000000e+02 9.565363e-28
6.010000e+02 1.143197e-27
6.020000e+02 1.365455e-27
6.030000e+02 1.629940e-27
6.040000e+02 1.944489e-27
6.050000e+02 2.318356e-27
6.060000e+02 2.762464e-27
6.070000e+02 3.289702e-27
6.080000e+02 3.915263e-27
6.090000e+02 4.657054e-27
6.100000e+02 5.536161e-27
6.110000e+02 6.577404e-27
6.120000e+02 7.809979e-27
6.130000e+02 9.268214e-27
6.140000e+02 1.099245e-26
6.150000e+02 1.303004e-26
6.160000e+02 1.543661e-26
6.170000e+02 1.827737e-26
6.180000e+02 2.162879e-26
6.190000e+02 2.558049e-26
6.200000e+02 3.023743e-26
6.210000e+02 3.572245e-26
6.220000e+02 4.217929e-26
6.230000e+02 4.977599e-26
6.240000e+02 5.870898e-26
6.250000e+02 6.920767e-26
6.260000e+02 8.153988e-26
6.270000e+02 9.601812e-26
6.280000e+02 1.130069e-25
6.290000e+02 1.329309e-25
6.300000e+02 1.562851e-25
6.310000e+02 1.836458e-25
6.320000e+02 2.156838e-25
6.330000e+02 2.531790e-25
6.340000e+02 2.970386e-25
6.350000e+02 3.483167e-25
6.360000e+02 4.082373e-25
6.370000e+02 4.782218e-25
6.380000e+02 5.599190e-25
6.390000e+02 6.552415e-25
6.400000e+02 7.664060e-25
6.410000e+02 8.959810e-25
6.420000e+02 1.046941e-24
6.430000e+02 1.222728e-24
6.440000e+02 1.427325e-24
6.450000e+02 1.665337e-24
6.460000e+02 1.942089e-24
6.470000e+02 2.263729e-24
6.480000e+02 2.637359e-24
6.490000e+02 3.071173e-24
6.500000e+02 3.574628e-24
6.510000e+02 4.158623e-24
6.520000e+02 4.835726e-24
6.530000e+02 5.620411e-24
6.540000e+02 6.529345e-24
6.550000e+02 7.581712e-24
6.560000e+02 8.799582e-24
6.570000e+02 1.020833e-23
6.580000e+02 1.183714e-23
6.590000e+02 1.371950e-23
6.600000e+02 1.589391e-23
6.610000e+02 1.840453e-23
6.620000e+02 2.130206e-23
6.630000e+02 2.464460e-23
6.640000e+02 2.849879e-23
6.650000e+02 3.294097e-23
6.660000e+02 3.805857e-23
6.670000e+02 4.395170e-23
6.680000e+02 5.073489e-23
6.690000e+02 5.853918e-23
6.700000e+02 6.751437e-23
6.710000e+02 7.783166e-23
6.720000e+02 8.968664e-23
6.730000e+02 1.033026e-22
6.740000e+02 1.189346e-22
6.750000e+02 1.368733e-22
6.760000e+02 1.574506e-22
6.770000e+02 1.810444e-22
6.780000e+02 2.080858e-22
6.790000e+02 2.390656e-22
6.800000e+02 2.745426e-22
6.810000e+02 3.151527e-22
6.820000e+02 3.616197e-22
6.830000e+02 4.147664e-22
6.840000e+02 4.755281e-22
6.850000e+02 5.449679e-22
6.860000e+02 6.242929e-22
6.870000e+02 7.148739e-22
6.880000e+02 8.182668e-22
6.890000e+02 9.362363e-22
6.900000e+02 1.070784e-21
6.910000e+02 1.224179e-21
6.920000e+02 1.398993e-21
6.930000e+02 1.598138e-21
6.940000e+02 1.824912e-21
6.950000e+02 2.083047e-21
6.960000e+02 2.376768e-21
6.970000e+02 2.710851e-21
6.980000e+02 3.090696e-21
6.990000e+02 3.522408e-21
7.000000e+02 4.012881e-21
7.010000e+02 4.569902e-21
7.020000e+02 5.202263e-21
7.030000e+02 5.919884e-21
7.040000e+02 6.733956e-21
7.050000e+02 7.657098e-21
7.060000e+02 8.703536e-21
7.070000e+02 9.889300e-21
7.080000e+02 1.123245e-20
7.090000e+02 1.275331e-20
7.100000e+02 1.447476e-20
7.110000e+02 1.642258e-20
7.120000e+02 1.862571e-20
7.130000e+02 2.111673e-20
7.140000e+02 2.393225e-20
7.150000e+02 2.711341e-20
7.160000e+02 3.070641e-20
7.170000e+02 3.476314e-20
7.180000e+02 3.934183e-20
7.190000e+02 4.450785e-20
7.200000e+02 5.033447e-20
7.210000e+02 5.690389e-20
7.220000e+02 6.430826e-20
7.230000e+02 7.265080e-20
7.240000e+02 8.204717e-20
7.250000e+02 9.262685e-20
7.260000e+02 1.045348e-19
7.270000e+02 1.179333e-19
7.280000e+02 1.330038e-19
7.290000e+02 1.499492e-19
7.300000e+02 1.689964e-19
7.310000e+02 1.903990e-19
7.320000e+02 2.144402e-19
7.330000e+02 2.414365e-19
7.340000e+02 2.717410e-19
7.350000e+02 3.057481e-19
7.360000e+02 3.438976e-19
7.370000e+02 3.866803e-19
7.380000e+02 4.346431e-19
7.390000e+02 4.883961e-19
7.400000e+02 5.486190e-19
7.410000e+02 6.160687e-19
7.420000e+02 6.915885e-19
7.430000e+02 7.761172e-19
7.440000e+02 8.706994e-19
7.450000e+02 9.764977e-19
7.460000e+02 1.094805e-18
7.470000e+02 1.227059e-18
7.480000e+02 1.374858e-18
7.490000e+02 1.539978e-18
7.500000e+02 1.724391e-18
7.510000e+02 1.930290e-18
7.520000e+02 2.160106e-18
7.530000e+02 2.416541e-18
7.540000e+02 2.702589e-18
7.550000e+02 3.021575e-18
7.560000e+02 3.377185e-18
7.570000e+02 3.773504e-18
7.580000e+02 4.215061e-18
7.590000e+02 4.706873e-18
7.600000e+02 5.254498e-18
7.610000e+02 5.864090e-18
7.620000e+02 6.542460e-18
7.630000e+02 7.297149e-18
7.640000e+02 8.136498e-18
7.650000e+02 9.069733e-18
7.660000e+02 1.010706e-17
7.670000e+02 1.125974e-17
7.680000e+02 1.254026e-17
7.690000e+02 1.396237e-17
7.700000e+02 1.554128e-17
7.710000e+02 1.729380e-17
7.720000e+02 1.923844e-17
7.730000e+02 2.139568e-17
7.740000e+02 2.378808e-17
7.750000e+02 2.644054e-17
7.760000e+02 2.938051e-17
7.770000e+02 3.263824e-17
7.780000e+02 3.624710e-17
7.790000e+02 4.024383e-17
7.800000e+02 4.466889e-17
7.810000e+02 4.956688e-17
7.820000e+02 5.498684e-17
7.830000e+02 6.098280e-17
7.840000e+02 6.761417e-17
7.850000e+02 7.494633e-17
7.860000e+02 8.305116e-17
7.870000e+02 9.200770e-17
7.880000e+02 1.019028e-16
7.890000e+02 1.128320e-16
7.900000e+02 1.249002e-16
7.910000e+02 1.382225e-16
7.920000e+02 1.529254e-16
7.930000e+02 1.691478e-16
7.940000e+02 1.870422e-16
7.950000e+02 2.067756e-16
7.960000e+02 2.285315e-16
7.970000e+02 2.525111e-16
7.980000e+02 2.789350e-16
7.990000e+02 3.080447e-16
8.000000e+02 3.401053e-16
8.010000e+02 3.754069e-16
8.020000e+02 4.142674e-16
8.030000e+02 4.570349e-16
8.040000e+02 5.040905e-16
8.050000e+02 5.558512e-16
8.060000e+02 6.127734e-16
8.070000e+02 6.753563e-16
8.080000e+02 7.441460e-16
8.090000e+02 8.197396e-16
8.100000e+02 9.027897e-16
8.110000e+02 9.940097e-16
8.120000e+02 1.094179e-15
8.130000e+02 1.204149e-15
8.140000e+02 1.324850e-15
8.150000e+02 1.457297e-15
8.160000e+02 1.602598e-15
8.170000e+02 1.761964e-15
8.180000e+02 1.936714e-15
8.190000e+02 2.128288e-15
8.200000e+02 2.338256e-15
8.210000e+02 2.568331e-15
8.220000e+02 2.820380e-15
8.230000e+02 3.096437e-15
8.240000e+02 3.398718e-15
8.250000e+02 3.729639e-15
8.260000e+02 4.091831e-15
8.270000e+02 4.488156e-15
8.280000e+02 4.921733e-15
8.290000e+02 5.395956e-15
8.300000e+02 5.914517e-15
8.310000e+02 6.481435e-15
8.320000e+02 7.101078e-15
8.330000e+02 7.778200e-15
8.340000e+02 8.517967e-15
8.350000e+02 9.325995e-15
8.360000e+02 1.020839e-14
8.370000e+02 1.117177e-14
8.380000e+02 1.222336e-14
8.390000e+02 1.337097e-14
8.400000e+02 1.462309e-14
8.410000e+02 1.598895e-14
8.420000e+02 1.747856e-14
8.430000e+02 1.910278e-14
8.440000e+02 2.087338e-14
8.450000e+02 2.280316e-14
8.460000e+02 2.490596e-14
8.470000e+02 2.719682e-14
8.480000e+02 2.969203e-14
8.490000e+02 3.240923e-14
8.500000e+02 3.536756e-14
8.510000e+02 3.858773e-14
8.520000e+02 4.209220e-14
8.530000e+02 4.590527e-14
8.540000e+02 5.005325e-14
8.550000e+02 5.456462e-14
8.560000e+02 5.947020e-14
8.570000e+02 6.480336e-14
8.580000e+02 7.060017e-14
8.590000e+02 7.689965e-14
8.600000e+02 8.374401e-14
8.610000e+02 9.117886e-14
8.620000e+02 9.925353e-14
8.630000e+02 1.080213e-13
8.640000e+02 1.175398e-13
8.650000e+02 1.278712e-13
8.660000e+02 1.390826e-13
8.670000e+02 1.512468e-13
8.680000e+02 1.644420e-13
8.690000e+02 1.787527e-13
8.700000e+02 1.942703e-13
8.710000e+02 2.110933e-13
8.720000e+02 2.293278e-13
8.730000e+02 2.490885e-13
8.740000e+02 2.704991e-13
8.750000e+02 2.936927e-13
8.760000e+02 3.188131e-13
8.770000e+02 3.460151e-13
8.780000e+02 3.754655e-13
8.790000e+02 4.073442e-13
8.800000e+02 4.418449e-13
8.810000e+02 4.791761e-13
8.820000e+02 5.195624e-13
8.830000e+02 5.632458e-13
8.840000e+02 6.104866e-13
8.850000e+02 6.615649e-13
8.860000e+02 7.167822e-13
8.870000e+02 7.764629e-13
8.880000e+02 8.409560e-13
8.890000e+02 9.106366e-13
8.900000e+02 9.859082e-13
8.910000e+02 1.067205e-12
8.920000e+02 1.154992e-12
8.930000e+02 1.249772e-12
8.940000e+02 1.352082e-12
8.950000e+02 1.462502e-12
8.960000e+02 1.581652e-12
8.970000e+02 1.710200e-12
8.980000e+02 1.848862e-12
8.990000e+02 1.998408e-12
9.000000e+02 2.159664e-12
9.010000e+02 2.333515e-12
9.020000e+02 2.520912e-12
9.030000e+02 2.722877e-12
9.040000e+02 2.940502e-12
9.050000e+02 3.174962e-12
9.060000e+02 3.427515e-12
9.070000e+02 3.699511e-12
9.080000e+02 3.992396e-12
9.090000e+02 4.307720e-12
9.100000e+02 4.647143e-12
9.110000e+02 5.012446e-12
9.120000e+02 5.405536e-12
9.130000e+02 5.828453e-12
9.140000e+02 6.386336e-12
9.150000e+02 1.539216e-09
9.160000e+02 1.073325e-08
9.170000e+02 5.808131e-10
9.180000e+02 2.007553e-09
9.190000e+02 3.105466e-08
9.200000e+02 9.003115e-08
9.210000e+02 1.058326e-11
9.220000e+02 8.044703e-08
9.230000e+02 4.315899e-10
9.240000e+02 9.680150e-10
9.250000e+02 1.628457e-08
9.260000e+02 3.045143e-09
9.270000e+02 9.724570e-10
9.280000e+02 5.896494e-07
9.290000e+02 5.646750e-07
9.300000e+02 1.180876e-07
9.310000e+02 9.439901e-10
9.320000e+02 4.499810e-07
9.330000e+02 1.474424e-07
9.340000e+02 3.309628e-08
9.350000e+02 9.220261e-10
9.360000e+02 3.930650e-09
9.370000e+02 2.858060e-10
9.380000e+02 6.971515e-10
9.390000e+02 1.378593e-08
9.400000e+02 8.292136e-07
9.410000e+02 8.233117e-08
9.420000e+02 2.078844e-06
9.430000e+02 2.444426e-08
9.440000e+02 2.376064e-06
9.450000e+02 2.295108e-06
9.460000e+02 4.807394e-07
9.470000e+02 3.097114e-10
9.480000e+02 6.893254e-07
9.490000e+02 6.280465e-08
9.500000e+02 1.048969e-09
9.510000e+02 2.262727e-07
9.520000e+02 7.684263e-07
9.530000e+02 4.589456e-09
9.540000e+02 3.370784e-10
9.550000e+02 5.783227e-08
9.560000e+02 3.599865e-06
9.570000e+02 2.190598e-08
9.580000e+02 1.740545e-10
9.590000e+02 2.446606e-06
9.600000e+02 2.494431e-09
9.610000e+02 8.931866e-07
9.620000e+02 2.842438e-07
9.630000e+02 2.604293e-08
9.640000e+02 6.243596e-09
9.650000e+02 1.214630e-09
9.660000e+02 6.220853e-08
9.670000e+02 8.232291e-09
9.680000e+02 5.592256e-09
9.690000e+02 3.968066e-07
9.700000e+02 6.409087e-07
9.710000e+02 1.364957e-08
9.720000e+02 3.405514e-09
9.730000e+02 1.338734e-08
9.740000e+02 3.450204e-07
9.750000e+02 1.409303e-07
9.760000e+02 4.677651e-06
9.770000e+02 3.254637e-06
9.780000e+02 1.467408e-06
9.790000e+02 1.506939e-05
9.800000e+02 1.539080e-05
9.810000e+02 7.978979e-07
9.820000e+02 1.132476e-07
9.830000e+02 1.677630e-05
9.840000e+02 3.927197e-07
9.850000e+02 3.017310e-07
9.860000e+02 5.143628e-07
9.870000e+02 1.836828e-05
9.880000e+02 4.554749e-09
9.890000e+02 5.436818e-06
9.900000e+02 1.273782e-05
9.910000e+02 1.292604e-07
9.920000e+02 1.524874e-09
9.930000e+02 3.231703e-05
9.940000e+02 2.333195e-09
9.950000e+02 1.216494e-06
9.960000e+02 2.370871e-08
9.970000e+02 1.131569e-06
9.980000e+02 1.848257e-05
9.990000e+02 2.031334e-07
1.000000e+03 5.685831e-05
1.001000e+03 4.834684e-05
1.002000e+03 5.157896e-05
1.003000e+03 2.033903e-07
1.004000e+03 7.214112e-09
1.005000e+03 1.012399e-06
1.006000e+03 4.885833e-05
1.007000e+03 6.489889e-05
1.008000e+03 3.344446e-05
1.009000e+03 3.035666e-07
1.010000e+03 3.249247e-05
1.011000e+03 3.662639e-05
1.012000e+03 4.518904e-05
1.013000e+03 4.444296e-05
1.014000e+03 5.975380e-09
1.015000e+03 1.594162e-08
1.016000e+03 1.332872e-06
1.017000e+03 6.479240e-09
1.018000e+03 3.022469e-07
1.019000e+03 1.386070e-08
1.020000e+03 4.490867e-05
1.021000e+03 7.424496e-07
1.022000e+03 1.077111e-06
1.023000e+03 4.432877e-08
1.024000e+03 3.064265e-06
1.025000e+03 1.029768e-08
1.026000e+03 1.529937e-08
1.027000e+03 1.187475e-06
1.028000e+03 8.867664e-08
1.029000e+03 1.348963e-08
1.030000e+03 4.812235e-06
1.031000e+03 1.573413e-05
1.032000e+03 1.374805e-04
1.033000e+03 9.684300e-07
1.034000e+03 1.905445e-05
1.035000e+03 5.826587e-08
1.036000e+03 2.267916e-08
1.037000e+03 2.114501e-04
1.038000e+03 7.830335e-04
1.039000e+03 2.539416e-04
1.040000e+03 1.828658e-04
1.041000e+03 8.864061e-04
1.042000e+03 7.461611e-04
1.043000e+03 6.400929e-04
1.044000e+03 1.643059e-03
1.045000e+03 5.752185e-08
1.046000e+03 1.895998e-04
1.047000e+03 7.381209e-05
1.048000e+03 6.719638e-07
1.049000e+03 6.246223e-05
1.050000e+03 1.072546e-05
1.051000e+03 5.118316e-06
1.052000e+03 1.148904e-03
1.053000e+03 1.655612e-03
1.054000e+03 5.727634e-08
1.055000e+03 1.768451e-03
1.056000e+03 2.073887e-03
1.057000e+03 2.515840e-04
1.058000e+03 4.766561e-06
1.059000e+03 3.702939e-06
1.060000e+03 1.012697e-06
1.061000e+03 5.714407e-04
1.062000e+03 2.406971e-06
1.063000e+03 1.226792e-04
1.064000e+03 1.429580e-07
1.065000e+03 1.037261e-07
1.066000e+03 7.813883e-04
1.067000e+03 4.263107e-06
1.068000e+03 4.335851e-03
1.069000e+03 8.244846e-07
1.070000e+03 6.792601e-05
1.071000e+03 1.909928e-03
1.072000e+03 5.200611e-03
1.073000e+03 1.937151e-07
1.074000e+03 2.988591e-04
1.075000e+03 1.505921e-04
1.076000e+03 5.373223e-03
1.077000e+03 2.411340e-06
1.078000e+03 7.245690e-06
1.079000e+03 4.488965e-05
1.080000e+03 2.877332e-04
1.081000e+03 2.282415e-03
1.082000e+03 1.107726e-03
1.083000e+03 4.904442e-04
1.084000e+03 1.040996e-02
1.085000e+03 7.659569e-05
1.086000e+03 8.759846e-03
1.087000e+03 1.177099e-05
1.088000e+03 1.187803e-02
1.089000e+03 1.263722e-02
1.090000e+03 5.795405e-05
1.091000e+03 1.033414e-04
1.092000e+03 1.240429e-02
1.093000e+03 1.468536e-02
1.094000e+03 1.140760e-03
1.095000e+03 1.686529e-02
1.096000e+03 4.867557e-04
1.097000e+03 8.618181e-03
1.098000e+03 1.650963e-02
1.099000e+03 2.447870e-04
1.100000e+03 2.242072e-06
1.101000e+03 7.878783e-06
1.102000e+03 1.764460e-04
1.103000e+03 2.147545e-02
1.104000e+03 2.243018e-02
1.105000e+03 2.345965e-02
1.106000e+03 1.200258e-03
1.107000e+03 5.342066e-06
1.108000e+03 1.099737e-02
1.109000e+03 9.072945e-05
1.110000e+03 2.673498e-02
1.111000e+03 2.203633e-02
1.112000e+03 4.747182e-03
1.113000e+03 1.924687e-02
1.114000e+03 2.277653e-03
1.115000e+03 9.568292e-05
1.116000e+03 2.569913e-05
1.117000e+03 2.953763e-02
1.118000e+03 1.631230e-04
1.119000e+03 4.737173e-03
1.120000e+03 4.785694e-05
1.121000e+03 2.365401e-02
1.122000e+03 5.289431e-02
1.123000e+03 4.742430e-02
1.124000e+03 5.871567e-02
1.125000e+03 3.186342e-02
1.126000e+03 7.165412e-02
1.127000e+03 3.317896e-02
1.128000e+03 3.983897e-02
1.129000e+03 1.554273e-02
1.130000e+03 4.824166e-02
1.131000e+03 3.945165e-02
1.132000e+03 8.854037e-05
1.133000e+03 1.303338e-03
1.134000e+03 2.020296e-02
1.135000e+03 3.872490e-02
1.136000e+03 2.677664e-03
1.137000e+03 3.409520e-02
1.138000e+03 1.488169e-02
1.139000e+03 4.258144e-02
1.140000e+03 3.930946e-02
1.141000e+03 4.185852e-02
1.142000e+03 4.223892e-02
1.143000e+03 1.503211e-02
1.144000e+03 4.196066e-02
1.145000e+03 5.079433e-05
1.146000e+03 4.431651e-02
1.147000e+03 4.372168e-02
1.148000e+03 5.356148e-04
1.149000e+03 3.631099e-02
1.150000e+03 3.297147e-02
1.151000e+03 4.272028e-02
1.152000e+03 3.588332e-02
1.153000e+03 4.127882e-02
1.154000e+03 4.190024e-02
1.155000e+03 3.430456e-02
1.156000e+03 3.142774e-02
1.157000e+03 3.779328e-02
1.158000e+03 1.688626e-02
1.159000e+03 3.920670e-02
1.160000e+03 2.212839e-02
1.161000e+03 3.601736e-02
1.162000e+03 2.589237e-03
1.163000e+03 1.033859e-02
1.164000e+03 9.263121e-05
1.165000e+03 1.994458e-02
1.166000e+03 1.080214e-02
1.167000e+03 7.456905e-03
1.168000e+03 4.123261e-02
1.169000e+03 4.243675e-02
1.170000e+03 7.151403e-03
1.171000e+03 1.963186e-02
1.172000e+03 1.439999e-02
1.173000e+03 1.380445e-02
1.174000e+03 3.500301e-04
1.175000e+03 6.664917e-05
1.176000e+03 2.791919e-05
1.177000e+03 5.429676e-02
1.178000e+03 5.144344e-02
1.179000e+03 4.854496e-02
1.180000e+03 3.968201e-02
1.181000e+03 4.443750e-02
1.182000e+03 4.271562e-02
1.183000e+03 3.573364e-02
1.184000e+03 3.323291e-02
1.185000e+03 3.385578e-02
1.186000e+03 1.981591e-03
1.187000e+03 3.557938e-02
1.188000e+03 2.775535e-02
1.189000e+03 3.486666e-02
1.190000e+03 3.396069e-02
1.191000e+03 3.154361e-02
1.192000e+03 2.913793e-02
1.193000e+03 2.828241e-02
1.194000e+03 2.805471e-02
1.195000e+03 2.682341e-02
1.196000e+03 4.083326e-01
1.197000e+03 4.149660e-01
1.198000e+03 8.088529e-03
1.199000e+03 3.509257e-01
1.200000e+03 3.474288e-02
1.201000e+03 2.745708e-01
1.202000e+03 1.733321e-01
1.203000e+03 2.010615e-01
1.204000e+03 3.577608e-02
1.205000e+03 1.329459e-01
1.206000e+03 1.044459e-01
1.207000e+03 1.472098e-02
1.208000e+03 5.127839e-02
1.209000e+03 3.765455e-02
1.210000e+03 1.462661e-04
1.211000e+03 1.384153e-02
1.212000e+03 6.738242e-03
1.213000e+03 2.900276e-03
1.214000e+03 8.282336e-04
1.215000e+03 1.478327e-04
1.216000e+03 1.313969e-04
1.217000e+03 5.189982e-04
1.218000e+03 2.389138e-03
1.219000e+03 6.692866e-03
1.220000e+03 1.173462e-02
1.221000e+03 2.917517e-02
1.222000e+03 4.977826e-02
1.223000e+03 7.210574e-02
1.224000e+03 1.069403e-01
1.225000e+03 1.376452e-02
1.226000e+03 2.318235e-01
1.227000e+03 3.158197e-01
1.228000e+03 1.411163e-01
1.229000e+03 4.878967e-01
1.230000e+03 4.416475e-01
1.231000e+03 7.888490e-02
1.232000e+03 8.477857e-01
1.233000e+03 9.892268e-01
1.234000e+03 9.520039e-01
1.235000e+03 1.226172e+00
1.236000e+03 3.235611e-01
1.237000e+03 1.533419e+00
1.238000e+03 1.654946e+00
1.239000e+03 1.352662e+00
1.240000e+03 4.636433e-01
1.241000e+03 1.544109e+00
1.242000e+03 2.119260e+00
1.243000e+03 2.381409e+00
1.244000e+03 2.540972e+00
1.245000e+03 2.642451e+00
1.246000e+03 2.466922e+00
1.247000e+03 2.781137e+00
1.248000e+03 2.420044e+00
1.249000e+03 3.252830e+00
1.250000e+03 2.451314e+00
1.251000e+03 3.500746e+00
1.252000e+03 3.363972e+00
1.253000e+03 3.703179e+00
1.254000e+03 3.594871e+00
1.255000e+03 9.295545e-01
1.256000e+03 2.999539e+00
1.257000e+03 2.266124e+00
1.258000e+03 2.977891e+00
1.259000e+03 3.484000e+00
1.260000e+03 4.268291e+00
1.261000e+03 8.202791e-02
1.262000e+03 4.434550e+00
1.263000e+03 4.310476e+00
1.264000e+03 3.401516e+00
1.265000e+03 2.918665e+00
1.266000e+03 5.278069e+00
1.267000e+03 4.955470e+00
