# wavelength_A flux
5.000000e+02 1.585348e-19
5.010000e+02 1.893296e-19
5.020000e+02 2.259421e-19
5.030000e+02 2.694403e-19
5.040000e+02 3.210825e-19
5.050000e+02 3.961853e-19
5.060000e+02 4.713386e-19
5.070000e+02 5.603543e-19
5.080000e+02 6.657164e-19
5.090000e+02 7.903451e-19
5.100000e+02 9.376533e-19
5.110000e+02 1.111649e-18
5.120000e+02 1.317049e-18
5.130000e+02 1.559334e-18
5.140000e+02 1.844947e-18
5.150000e+02 2.181393e-18
5.160000e+02 2.577522e-18
5.170000e+02 3.043380e-18
5.180000e+02 3.591459e-18
5.190000e+02 4.235240e-18
5.200000e+02 4.991172e-18
5.210000e+02 5.878207e-18
5.220000e+02 6.917352e-18
5.230000e+02 8.137551e-18
5.240000e+02 9.565508e-18
5.250000e+02 1.123689e-17
5.260000e+02 1.319199e-17
5.270000e+02 1.547757e-17
5.280000e+02 1.814785e-17
5.290000e+02 2.125853e-17
5.300000e+02 2.490345e-17
5.310000e+02 2.914669e-17
5.320000e+02 3.409192e-17
5.330000e+02 3.985183e-17
5.340000e+02 4.655684e-17
5.350000e+02 5.435763e-17
5.360000e+02 6.342710e-17
5.370000e+02 7.256974e-17
5.380000e+02 8.620749e-17
5.390000e+02 1.004067e-16
5.400000e+02 1.168988e-16
5.410000e+02 1.359971e-16
5.420000e+02 1.581489e-16
5.430000e+02 1.837899e-16
5.440000e+02 2.134670e-16
5.450000e+02 2.477962e-16
5.460000e+02 2.874300e-16
5.470000e+02 3.333440e-16
5.480000e+02 3.863036e-16
5.490000e+02 4.474315e-16
5.500000e+02 5.179464e-16
5.510000e+02 5.992485e-16
5.520000e+02 6.929356e-16
5.530000e+02 8.008374e-16
5.540000e+02 9.250443e-16
5.550000e+02 1.067945e-15
5.560000e+02 1.232266e-15
5.570000e+02 1.421119e-15
5.580000e+02 1.638055e-15
5.590000e+02 1.887121e-15
5.600000e+02 2.172926e-15
5.610000e+02 2.500724e-15
5.620000e+02 2.876493e-15
5.630000e+02 3.307035e-15
5.640000e+02 3.800085e-15
5.650000e+02 4.364436e-15
5.660000e+02 5.010077e-15
5.670000e+02 5.748335e-15
5.680000e+02 6.592131e-15
5.690000e+02 7.556025e-15
5.700000e+02 8.656585e-15
5.710000e+02 9.912606e-15
5.720000e+02 1.134532e-14
5.730000e+02 1.297883e-14
5.740000e+02 1.484036e-14
5.750000e+02 1.696114e-14
5.760000e+02 1.937087e-14
5.770000e+02 2.212256e-14
5.780000e+02 2.524744e-14
5.790000e+02 2.880018e-14
5.800000e+02 3.283750e-14
5.810000e+02 3.742334e-14
5.820000e+02 4.262976e-14
5.830000e+02 4.853751e-14
5.840000e+02 5.521746e-14
5.850000e+02 6.283368e-14
5.860000e+02 7.145145e-14
5.870000e+02 8.120773e-14
5.880000e+02 9.225490e-14
5.890000e+02 1.047551e-13
5.900000e+02 1.189017e-13
5.910000e+02 1.348936e-13
5.920000e+02 1.529744e-13
5.930000e+02 1.734000e-13
5.940000e+02 1.964674e-13
5.950000e+02 2.225052e-13
5.960000e+02 2.518899e-13
5.970000e+02 2.850306e-13
5.980000e+02 3.223942e-13
5.990000e+02 3.645010e-13
6.000000e+02 4.119336e-13
6.010000e+02 4.650334e-13
6.020000e+02 5.254584e-13
6.030000e+02 5.930912e-13
6.040000e+02 6.691567e-13
6.050000e+02 7.546650e-13
6.060000e+02 8.507518e-13
6.070000e+02 9.586824e-13
6.080000e+02 1.079868e-12
6.090000e+02 1.215882e-12
6.100000e+02 1.368474e-12
6.110000e+02 1.539612e-12
6.120000e+02 1.731459e-12
6.130000e+02 1.946441e-12
6.140000e+02 2.187256e-12
6.150000e+02 2.456903e-12
6.160000e+02 2.758718e-12
6.170000e+02 3.096410e-12
6.180000e+02 3.474097e-12
6.190000e+02 3.896358e-12
6.200000e+02 4.368275e-12
6.210000e+02 4.895488e-12
6.220000e+02 5.484258e-12
6.230000e+02 6.141524e-12
6.240000e+02 6.874990e-12
6.250000e+02 7.693182e-12
6.260000e+02 8.605556e-12
6.270000e+02 9.622571e-12
6.280000e+02 1.075585e-11
6.290000e+02 1.201819e-11
6.300000e+02 1.342378e-11
6.310000e+02 1.498615e-11
6.320000e+02 1.672916e-11
6.330000e+02 1.866530e-11
6.340000e+02 2.081882e-11
6.350000e+02 2.321200e-11
6.360000e+02 2.586576e-11
6.370000e+02 2.882502e-11
6.380000e+02 3.210473e-11
6.390000e+02 3.574515e-11
6.400000e+02 3.978456e-11
6.410000e+02 4.426516e-11
6.420000e+02 4.923347e-11
6.430000e+02 5.474069e-11
6.440000e+02 6.084325e-11
6.450000e+02 6.760318e-11
6.460000e+02 7.508893e-11
6.470000e+02 8.337556e-11
6.480000e+02 9.254560e-11
6.490000e+02 1.026904e-10
6.500000e+02 1.139092e-10
6.510000e+02 1.263125e-10
6.520000e+02 1.400202e-10
6.530000e+02 1.551647e-10
6.540000e+02 1.718917e-10
6.550000e+02 1.903602e-10
6.560000e+02 2.107451e-10
6.570000e+02 2.332330e-10
6.580000e+02 2.580499e-10
6.590000e+02 2.854103e-10
6.600000e+02 3.155697e-10
6.610000e+02 3.488115e-10
6.620000e+02 3.854314e-10
6.630000e+02 4.257631e-10
6.640000e+02 4.701695e-10
6.650000e+02 5.190451e-10
6.660000e+02 5.728295e-10
6.670000e+02 6.319908e-10
6.680000e+02 6.970515e-10
6.690000e+02 7.685760e-10
6.700000e+02 8.471839e-10
6.710000e+02 9.335511e-10
6.720000e+02 1.028415e-09
6.730000e+02 1.132582e-09
6.740000e+02 1.246930e-09
6.750000e+02 1.372418e-09
6.760000e+02 1.510091e-09
6.770000e+02 1.661089e-09
6.780000e+02 1.826653e-09
6.790000e+02 2.008137e-09
6.800000e+02 2.207016e-09
6.810000e+02 2.424894e-09
6.820000e+02 2.663519e-09
6.830000e+02 2.924794e-09
6.840000e+02 3.210787e-09
6.850000e+02 3.523713e-09
6.860000e+02 3.866134e-09
6.870000e+02 4.240594e-09
6.880000e+02 4.650036e-09
6.890000e+02 5.097593e-09
6.900000e+02 5.586684e-09
6.910000e+02 6.121019e-09
6.920000e+02 6.704624e-09
6.930000e+02 7.341872e-09
6.940000e+02 8.037508e-09
6.950000e+02 8.796679e-09
6.960000e+02 9.624967e-09
6.970000e+02 1.052829e-08
6.980000e+02 1.151362e-08
6.990000e+02 1.258766e-08
7.000000e+02 1.375826e-08
7.010000e+02 1.503376e-08
7.020000e+02 1.642321e-08
7.030000e+02 1.793634e-08
7.040000e+02 1.958391e-08
7.050000e+02 2.137723e-08
7.060000e+02 2.332865e-08
7.070000e+02 2.545190e-08
7.080000e+02 2.776119e-08
7.090000e+02 3.027204e-08
7.100000e+02 3.300222e-08
7.110000e+02 3.596924e-08
7.120000e+02 3.919316e-08
7.130000e+02 4.269537e-08
7.140000e+02 4.649895e-08
7.150000e+02 5.062873e-08
7.160000e+02 5.511195e-08
7.170000e+02 5.997711e-08
7.180000e+02 6.525557e-08
7.190000e+02 7.098235e-08
7.200000e+02 7.719228e-08
7.210000e+02 8.392525e-08
7.220000e+02 9.122352e-08
7.230000e+02 9.913271e-08
7.240000e+02 1.077019e-07
7.250000e+02 1.169841e-07
7.260000e+02 1.270331e-07
7.270000e+02 1.379195e-07
7.280000e+02 1.497001e-07
7.290000e+02 1.624490e-07
7.300000e+02 1.762427e-07
7.310000e+02 1.911632e-07
7.320000e+02 2.072991e-07
7.330000e+02 2.247453e-07
7.340000e+02 2.436040e-07
7.350000e+02 2.639850e-07
7.360000e+02 2.860061e-07
7.370000e+02 3.097944e-07
7.380000e+02 3.354859e-07
7.390000e+02 3.632263e-07
7.400000e+02 3.931709e-07
7.410000e+02 4.254935e-07
7.420000e+02 4.603667e-07
7.430000e+02 4.979937e-07
7.440000e+02 5.385749e-07
7.450000e+02 5.823355e-07
7.460000e+02 6.295147e-07
7.470000e+02 6.803686e-07
7.480000e+02 7.351717e-07
7.490000e+02 7.942182e-07
7.500000e+02 8.578234e-07
7.510000e+02 9.263244e-07
7.520000e+02 1.000083e-06
7.530000e+02 1.079486e-06
7.540000e+02 1.164948e-06
7.550000e+02 1.256911e-06
7.560000e+02 1.355851e-06
7.570000e+02 1.462222e-06
7.580000e+02 1.576722e-06
7.590000e+02 1.699772e-06
7.600000e+02 1.832061e-06
7.610000e+02 1.974232e-06
7.620000e+02 2.127004e-06
7.630000e+02 2.291130e-06
7.640000e+02 2.467420e-06
7.650000e+02 2.656727e-06
7.660000e+02 2.860008e-06
7.670000e+02 3.078213e-06
7.680000e+02 3.312391e-06
7.690000e+02 3.563708e-06
7.700000e+02 3.833318e-06
7.710000e+02 4.122511e-06
7.720000e+02 4.432653e-06
7.730000e+02 4.765193e-06
7.740000e+02 5.121684e-06
7.750000e+02 5.503776e-06
7.760000e+02 5.912214e-06
7.770000e+02 6.351923e-06
7.780000e+02 6.821855e-06
7.790000e+02 7.325153e-06
7.800000e+02 7.864087e-06
7.810000e+02 8.441072e-06
7.820000e+02 9.058680e-06
7.830000e+02 9.719647e-06
7.840000e+02 1.042689e-05
7.850000e+02 1.118351e-05
7.860000e+02 1.199276e-05
7.870000e+02 1.285830e-05
7.880000e+02 1.378370e-05
7.890000e+02 1.477297e-05
7.900000e+02 1.583035e-05
7.910000e+02 1.696032e-05
7.920000e+02 1.816764e-05
7.930000e+02 1.945739e-05
7.940000e+02 2.083494e-05
7.950000e+02 2.230602e-05
7.960000e+02 2.387669e-05
7.970000e+02 2.555341e-05
7.980000e+02 2.734301e-05
7.990000e+02 2.925273e-05
8.000000e+02 3.129042e-05
8.010000e+02 3.346402e-05
8.020000e+02 3.578258e-05
8.030000e+02 3.825499e-05
8.040000e+02 4.089114e-05
8.050000e+02 4.370139e-05
8.060000e+02 4.669673e-05
8.070000e+02 4.988882e-05
8.080000e+02 5.329000e-05
8.090000e+02 5.691337e-05
8.100000e+02 6.077279e-05
8.110000e+02 6.488296e-05
8.120000e+02 6.925939e-05
8.130000e+02 7.391873e-05
8.140000e+02 7.887828e-05
8.150000e+02 8.415657e-05
8.160000e+02 8.977318e-05
8.170000e+02 9.574828e-05
8.180000e+02 1.021054e-04
8.190000e+02 1.088661e-04
8.200000e+02 1.160555e-04
8.210000e+02 1.236996e-04
8.220000e+02 1.318257e-04
8.230000e+02 1.404630e-04
8.240000e+02 1.496420e-04
8.250000e+02 1.593954e-04
8.260000e+02 1.697573e-04
8.270000e+02 1.807640e-04
8.280000e+02 1.924538e-04
8.290000e+02 2.048672e-04
8.300000e+02 2.180469e-04
8.310000e+02 2.320381e-04
8.320000e+02 2.468885e-04
8.330000e+02 2.626484e-04
8.340000e+02 2.793708e-04
8.350000e+02 2.970990e-04
8.360000e+02 3.159305e-04
8.370000e+02 3.358909e-04
8.380000e+02 3.570454e-04
8.390000e+02 3.794979e-04
8.400000e+02 4.032899e-04
8.410000e+02 4.285077e-04
8.420000e+02 4.552300e-04
8.430000e+02 4.835540e-04
8.440000e+02 5.135591e-04
8.450000e+02 5.453450e-04
8.460000e+02 5.790119e-04
8.470000e+02 6.146663e-04
8.480000e+02 6.524199e-04
8.490000e+02 6.923905e-04
8.500000e+02 7.347024e-04
8.510000e+02 7.794861e-04
8.520000e+02 8.268781e-04
8.530000e+02 8.770268e-04
8.540000e+02 9.300843e-04
8.550000e+02 9.862065e-04
8.560000e+02 1.045563e-03
8.570000e+02 1.108338e-03
8.580000e+02 1.174712e-03
8.590000e+02 1.244885e-03
8.600000e+02 1.319064e-03
8.610000e+02 1.397465e-03
8.620000e+02 1.480318e-03
8.630000e+02 1.567861e-03
8.640000e+02 1.660357e-03
8.650000e+02 1.758055e-03
8.660000e+02 1.861257e-03
8.670000e+02 1.970239e-03
8.680000e+02 2.085315e-03
8.690000e+02 2.206810e-03
8.700000e+02 2.335065e-03
8.710000e+02 2.470438e-03
8.720000e+02 2.613305e-03
8.730000e+02 2.764060e-03
8.740000e+02 2.923119e-03
8.750000e+02 3.090916e-03
8.760000e+02 3.267908e-03
8.770000e+02 3.454562e-03
8.780000e+02 3.651421e-03
8.790000e+02 3.858971e-03
8.800000e+02 4.077782e-03
8.810000e+02 4.308433e-03
8.820000e+02 4.551535e-03
8.830000e+02 4.807727e-03
8.840000e+02 5.077678e-03
8.850000e+02 5.362093e-03
8.860000e+02 5.661705e-03
8.870000e+02 5.977290e-03
8.880000e+02 6.309655e-03
8.890000e+02 6.659657e-03
8.900000e+02 7.028174e-03
8.910000e+02 7.416141e-03
8.920000e+02 7.820331e-03
8.930000e+02 8.254377e-03
8.940000e+02 8.706739e-03
8.950000e+02 9.182741e-03
8.960000e+02 9.683559e-03
8.970000e+02 1.021042e-02
8.980000e+02 1.076461e-02
8.990000e+02 1.134748e-02
9.000000e+02 1.196044e-02
9.010000e+02 1.260496e-02
9.020000e+02 1.328259e-02
9.030000e+02 1.399494e-02
9.040000e+02 1.474370e-02
9.050000e+02 1.553061e-02
9.060000e+02 1.635763e-02
9.070000e+02 1.722638e-02
9.080000e+02 1.813950e-02
9.090000e+02 1.909852e-02
9.100000e+02 2.010585e-02
9.110000e+02 2.116385e-02
9.120000e+02 2.227516e-02
9.130000e+02 2.330759e-02
9.140000e+02 2.524266e-02
9.150000e+02 1.363701e-01
9.160000e+02 2.009997e-01
9.170000e+02 2.101980e-01
9.180000e+02 2.197501e-01
9.190000e+02 2.298356e-01
9.200000e+02 2.402508e-01
9.210000e+02 3.489794e-02
9.220000e+02 2.619977e-01
9.230000e+02 2.737497e-01
9.240000e+02 2.835019e-01
9.250000e+02 2.946870e-01
9.260000e+02 3.121128e-01
9.270000e+02 3.256154e-01
9.280000e+02 3.415427e-01
9.290000e+02 2.399678e-01
9.300000e+02 3.259515e-01
9.310000e+02 3.865633e-01
9.320000e+02 4.065577e-01
9.330000e+02 4.238961e-01
9.340000e+02 4.353288e-01
9.350000e+02 1.297967e-01
9.360000e+02 4.783512e-01
9.370000e+02 1.142775e-01
9.380000e+02 1.341599e-01
9.390000e+02 5.488800e-01
9.400000e+02 5.729921e-01
9.410000e+02 1.990110e-01
9.420000e+02 6.240245e-01
9.430000e+02 6.044935e-01
9.440000e+02 5.876404e-01
9.450000e+02 7.068955e-01
9.460000e+02 7.385646e-01
9.470000e+02 4.029300e-01
9.480000e+02 4.256028e-01
9.490000e+02 8.310629e-01
9.500000e+02 1.950176e-01
9.510000e+02 9.033010e-01
9.520000e+02 9.502708e-01
9.530000e+02 9.787291e-01
9.540000e+02 5.567087e-01
9.550000e+02 1.077424e+00
9.560000e+02 4.018556e-01
9.570000e+02 7.876044e-01
9.580000e+02 1.211136e+00
9.590000e+02 1.276878e+00
9.600000e+02 3.337809e-01
9.610000e+02 1.363510e+00
9.620000e+02 1.436370e+00
9.630000e+02 1.504696e+00
9.640000e+02 2.886658e-01
9.650000e+02 1.493755e+00
9.660000e+02 1.700317e+00
9.670000e+02 1.744236e+00
9.680000e+02 1.838201e+00
9.690000e+02 1.909718e+00
9.700000e+02 1.993059e+00
9.710000e+02 2.058614e+00
9.720000e+02 1.991902e+00
9.730000e+02 2.022311e+00
9.740000e+02 2.298784e+00
9.750000e+02 2.434234e+00
9.760000e+02 2.534982e+00
9.770000e+02 2.644469e+00
9.780000e+02 2.743138e+00
9.790000e+02 2.864732e+00
9.800000e+02 2.979102e+00
9.810000e+02 3.100414e+00
9.820000e+02 3.222092e+00
9.830000e+02 3.349818e+00
9.840000e+02 1.963803e+00
9.850000e+02 3.623619e+00
9.860000e+02 3.769512e+00
9.870000e+02 3.920146e+00
9.880000e+02 4.055484e+00
9.890000e+02 3.970396e+00
9.900000e+02 1.127363e+00
9.910000e+02 4.524306e+00
9.920000e+02 4.104241e+00
9.930000e+02 4.652658e+00
9.940000e+02 1.268309e+00
9.950000e+02 2.322674e+00
9.960000e+02 5.497407e+00
9.970000e+02 1.543459e+00
9.980000e+02 5.973805e+00
9.990000e+02 6.102067e+00
1.000000e+03 6.454124e+00
1.001000e+03 6.686471e+00
1.002000e+03 6.961518e+00
1.003000e+03 7.151499e+00
1.004000e+03 7.486193e+00
1.005000e+03 7.634339e+00
1.006000e+03 8.088209e+00
1.007000e+03 8.333934e+00
1.008000e+03 8.661094e+00
1.009000e+03 8.970701e+00
1.010000e+03 9.383598e+00
1.011000e+03 9.736307e+00
1.012000e+03 1.009943e+01
1.013000e+03 1.047931e+01
1.014000e+03 1.073188e+01
1.015000e+03 1.120023e+01
1.016000e+03 1.167982e+01
1.017000e+03 1.198823e+01
1.018000e+03 1.254822e+01
1.019000e+03 1.296790e+01
1.020000e+03 1.346571e+01
1.021000e+03 6.366532e+00
1.022000e+03 1.277568e+01
1.023000e+03 1.464509e+01
1.024000e+03 9.052036e+00
1.025000e+03 1.164774e+01
1.026000e+03 6.695014e+00
1.027000e+03 1.213957e+01
1.028000e+03 5.864909e+00
1.029000e+03 1.819204e+01
1.030000e+03 1.785514e+01
1.031000e+03 1.989672e+01
1.032000e+03 1.965962e+01
1.033000e+03 1.034644e+01
1.034000e+03 2.232052e+01
1.035000e+03 7.015412e+00
1.036000e+03 1.947716e+01
1.037000e+03 1.725039e+01
1.038000e+03 2.576096e+01
1.039000e+03 2.648462e+01
1.040000e+03 2.764593e+01
1.041000e+03 2.776590e+01
1.042000e+03 2.965071e+01
1.043000e+03 2.919128e+01
1.044000e+03 3.179729e+01
1.045000e+03 3.290204e+01
1.046000e+03 3.410691e+01
1.047000e+03 3.530522e+01
1.048000e+03 3.647850e+01
1.049000e+03 3.551524e+01
1.050000e+03 3.914492e+01
1.051000e+03 4.051934e+01
1.052000e+03 4.194868e+01
1.053000e+03 4.329641e+01
1.054000e+03 4.199798e+01
1.055000e+03 3.047979e+01
1.056000e+03 4.808120e+01
1.057000e+03 4.974461e+01
1.058000e+03 5.144852e+01
1.059000e+03 5.320571e+01
1.060000e+03 5.496518e+01
1.061000e+03 5.694420e+01
1.062000e+03 5.887779e+01
1.063000e+03 2.092149e+01
1.064000e+03 1.945138e+01
1.065000e+03 6.464340e+01
1.066000e+03 3.191591e+01
1.067000e+03 6.942568e+01
1.068000e+03 7.199098e+01
1.069000e+03 6.760756e+01
1.070000e+03 7.687872e+01
1.071000e+03 7.952734e+01
1.072000e+03 8.219134e+01
1.073000e+03 8.450001e+01
1.074000e+03 8.777483e+01
1.075000e+03 9.069496e+01
1.076000e+03 9.367350e+01
1.077000e+03 9.556558e+01
1.078000e+03 1.000193e+02
1.079000e+03 1.032743e+02
1.080000e+03 1.067526e+02
1.081000e+03 1.102712e+02
1.082000e+03 1.138216e+02
1.083000e+03 1.175825e+02
1.084000e+03 1.214519e+02
1.085000e+03 8.583102e+01
1.086000e+03 1.294699e+02
1.087000e+03 1.335648e+02
1.088000e+03 1.375362e+02
1.089000e+03 1.424190e+02
1.090000e+03 1.469624e+02
1.091000e+03 1.485575e+02
1.092000e+03 1.564512e+02
1.093000e+03 1.614545e+02
1.094000e+03 1.667354e+02
1.095000e+03 1.720200e+02
1.096000e+03 1.772442e+02
1.097000e+03 1.444269e+02
1.098000e+03 1.515431e+02
1.099000e+03 1.948264e+02
1.100000e+03 1.299272e+02
1.101000e+03 1.906468e+02
1.102000e+03 4.111745e+02
1.103000e+03 1.034017e+03
1.104000e+03 6.646398e+02
1.105000e+03 2.144800e+02
1.106000e+03 4.187982e+03
1.107000e+03 3.800726e+03
1.108000e+03 3.570893e+03
1.109000e+03 1.413798e+03
1.110000e+03 2.045476e+03
1.111000e+03 5.432998e+02
1.112000e+03 2.523593e+03
1.113000e+03 4.942021e+03
1.114000e+03 2.010363e+02
1.115000e+03 4.848609e+03
1.116000e+03 5.024683e+03
1.117000e+03 2.751680e+02
1.118000e+03 2.660282e+03
1.119000e+03 5.612822e+03
1.120000e+03 5.639106e+03
1.121000e+03 5.678674e+03
1.122000e+03 1.345537e+02
1.123000e+03 3.243486e+02
1.124000e+03 6.269001e+03
1.125000e+03 4.668290e+03
1.126000e+03 6.581409e+03
1.127000e+03 6.345348e+03
1.128000e+03 4.440490e+03
1.129000e+03 6.427079e+03
1.130000e+03 3.220924e+03
1.131000e+03 7.379435e+03
1.132000e+03 3.223145e+02
1.133000e+03 6.337841e+03
1.134000e+03 4.551582e+03
1.135000e+03 2.198662e+02
1.136000e+03 8.196885e+03
1.137000e+03 8.447727e+03
1.138000e+03 8.629515e+03
1.139000e+03 8.579746e+03
1.140000e+03 2.793003e+02
1.141000e+03 9.248393e+03
1.142000e+03 9.455678e+03
1.143000e+03 9.650010e+03
1.144000e+03 9.890711e+03
1.145000e+03 7.769702e+03
1.146000e+03 1.034783e+04
1.147000e+03 1.037984e+04
1.148000e+03 1.058154e+04
1.149000e+03 1.103773e+04
1.150000e+03 1.130085e+04
1.151000e+03 1.147205e+04
1.152000e+03 1.184689e+04
1.153000e+03 5.923374e+03
1.154000e+03 7.185265e+03
1.155000e+03 1.188647e+04
1.156000e+03 6.856875e+02
1.157000e+03 1.314290e+04
1.158000e+03 4.595995e+02
1.159000e+03 4.442466e+03
1.160000e+03 1.397954e+04
1.161000e+03 1.445522e+04
1.162000e+03 4.339615e+03
1.163000e+03 1.504998e+04
1.164000e+03 6.391592e+02
1.165000e+03 1.581361e+04
1.166000e+03 1.620404e+04
1.167000e+03 1.664453e+04
1.168000e+03 1.696274e+04
1.169000e+03 1.115664e+04
1.170000e+03 1.790374e+04
1.171000e+03 1.850058e+04
1.172000e+03 1.896347e+04
1.173000e+03 1.946190e+04
1.174000e+03 1.954659e+04
1.175000e+03 8.688633e+02
1.176000e+03 8.177500e+02
1.177000e+03 2.149036e+04
1.178000e+03 2.191708e+04
1.179000e+03 2.254928e+04
1.180000e+03 2.070927e+04
1.181000e+03 2.361159e+04
1.182000e+03 2.435507e+04
1.183000e+03 2.490207e+04
1.184000e+03 2.543874e+04
1.185000e+03 2.592177e+04
1.186000e+03 2.633419e+04
1.187000e+03 2.705085e+04
1.188000e+03 2.751284e+04
1.189000e+03 1.189418e+03
1.190000e+03 1.832592e+03
1.191000e+03 2.848518e+04
1.192000e+03 2.857277e+04
1.193000e+03 1.149182e+03
1.194000e+03 1.415654e+03
1.195000e+03 2.712392e+04
1.196000e+03 3.035981e+04
1.197000e+03 5.651680e+04
1.198000e+03 5.662323e+04
1.199000e+03 5.477414e+04
1.200000e+03 4.752000e+04
1.201000e+03 5.035561e+04
1.202000e+03 4.965077e+04
1.203000e+03 7.192695e+04
1.204000e+03 6.318238e+04
1.205000e+03 5.548563e+04
1.206000e+03 5.239127e+04
1.207000e+03 3.924395e+03
1.208000e+03 3.376629e+04
1.209000e+03 2.426179e+04
1.210000e+03 2.218186e+03
1.211000e+03 1.274037e+04
1.212000e+03 7.552361e+03
1.213000e+03 5.009375e+03
1.214000e+03 3.245034e+03
1.215000e+03 2.519969e+03
1.216000e+03 2.381911e+03
1.217000e+03 3.122409e+03
1.218000e+03 4.827417e+03
1.219000e+03 8.249225e+03
1.220000e+03 1.377702e+04
1.221000e+03 2.156947e+04
1.222000e+03 3.171969e+04
1.223000e+03 4.346215e+04
1.224000e+03 5.937839e+04
1.225000e+03 7.586239e+04
1.226000e+03 9.718968e+04
1.227000e+03 9.749991e+04
1.228000e+03 1.451908e+05
1.229000e+03 1.730771e+05
1.230000e+03 1.382404e+05
1.231000e+03 2.326829e+05
1.232000e+03 2.660197e+05
1.233000e+03 3.029582e+05
1.234000e+03 1.621945e+05
1.235000e+03 3.770652e+05
1.236000e+03 4.130930e+05
1.237000e+03 4.543918e+05
1.238000e+03 4.939798e+05
1.239000e+03 5.341122e+05
1.240000e+03 4.970734e+05
1.241000e+03 8.721952e+05
1.242000e+03 5.658591e+05
1.243000e+03 7.934726e+05
1.244000e+03 4.045086e+05
1.245000e+03 5.821526e+05
1.246000e+03 1.417206e+06
1.247000e+03 1.390013e+06
1.248000e+03 4.258059e+05
1.249000e+03 5.527841e+05
1.250000e+03 1.836501e+06
1.251000e+03 1.968324e+06
1.252000e+03 2.067222e+06
1.253000e+03 2.201637e+06
1.254000e+03 2.311332e+06
1.255000e+03 2.054234e+06
1.256000e+03 2.470796e+06
1.257000e+03 2.621524e+06
1.258000e+03 2.698054e+06
1.259000e+03 2.726463e+06
1.260000e+03 1.794409e+06
1.261000e+03 7.789239e+03
1.262000e+03 2.922326e+05
1.263000e+03 2.961716e+06
1.264000e+03 2.628745e+06
1.265000e+03 8.235750e+03
1.266000e+03 3.413983e+06
1.267000e+03 3.791018e+06
