# wavelength_A flux
5.000000e+02 4.008002e-35
5.010000e+02 5.144067e-35
5.020000e+02 6.595461e-35
5.030000e+02 8.447850e-35
5.040000e+02 1.080967e-34
5.050000e+02 1.389689e-34
5.060000e+02 1.774410e-34
5.070000e+02 2.263244e-34
5.080000e+02 2.884234e-34
5.090000e+02 3.671858e-34
5.100000e+02 4.645757e-34
5.110000e+02 5.934002e-34
5.120000e+02 7.532316e-34
5.130000e+02 9.553413e-34
5.140000e+02 1.210463e-33
5.150000e+02 1.532278e-33
5.160000e+02 1.937849e-33
5.170000e+02 2.448535e-33
5.180000e+02 3.090946e-33
5.190000e+02 3.898343e-33
5.200000e+02 4.912185e-33
5.210000e+02 6.184110e-33
5.220000e+02 7.778120e-33
5.230000e+02 9.774983e-33
5.240000e+02 1.227320e-32
5.250000e+02 1.539628e-32
5.260000e+02 1.929714e-32
5.270000e+02 2.416526e-32
5.280000e+02 3.023523e-32
5.290000e+02 3.779729e-32
5.300000e+02 4.721018e-32
5.310000e+02 5.891696e-32
5.320000e+02 7.346439e-32
5.330000e+02 9.152658e-32
5.340000e+02 1.139340e-31
5.350000e+02 1.417090e-31
5.360000e+02 1.761087e-31
5.370000e+02 2.183338e-31
5.380000e+02 2.713167e-31
5.390000e+02 3.363514e-31
5.400000e+02 4.166361e-31
5.410000e+02 5.156653e-31
5.420000e+02 6.377277e-31
5.430000e+02 7.880502e-31
5.440000e+02 9.730339e-31
5.450000e+02 1.200492e-30
5.460000e+02 1.479960e-30
5.470000e+02 1.823064e-30
5.480000e+02 2.243968e-30
5.490000e+02 2.759918e-30
5.500000e+02 3.391895e-30
5.510000e+02 4.165402e-30
5.520000e+02 5.111422e-30
5.530000e+02 6.267561e-30
5.540000e+02 7.679430e-30
5.550000e+02 9.402324e-30
5.560000e+02 1.150320e-29
5.570000e+02 1.406310e-29
5.580000e+02 1.718004e-29
5.590000e+02 2.097247e-29
5.600000e+02 2.558346e-29
5.610000e+02 3.118566e-29
5.620000e+02 3.798726e-29
5.630000e+02 4.623918e-29
5.640000e+02 5.624361e-29
5.650000e+02 6.836419e-29
5.660000e+02 8.303827e-29
5.670000e+02 1.007914e-28
5.680000e+02 1.222549e-28
5.690000e+02 1.481862e-28
5.700000e+02 1.794940e-28
5.710000e+02 2.172671e-28
5.720000e+02 2.628099e-28
5.730000e+02 3.176835e-28
5.740000e+02 3.837553e-28
5.750000e+02 4.632575e-28
5.760000e+02 5.588565e-28
5.770000e+02 6.737362e-28
5.780000e+02 8.116929e-28
5.790000e+02 9.772551e-28
5.800000e+02 1.175817e-27
5.810000e+02 1.413803e-27
5.820000e+02 1.698857e-27
5.830000e+02 2.040068e-27
5.840000e+02 2.448202e-27
5.850000e+02 2.936200e-27
5.860000e+02 3.519204e-27
5.870000e+02 4.215292e-27
5.880000e+02 5.045894e-27
5.890000e+02 6.036388e-27
5.900000e+02 7.216825e-27
5.910000e+02 8.622768e-27
5.920000e+02 1.029627e-26
5.930000e+02 1.228705e-26
5.940000e+02 1.465381e-26
5.950000e+02 1.746587e-26
5.960000e+02 2.080502e-26
5.970000e+02 2.476770e-26
5.980000e+02 2.946754e-26
5.990000e+02 3.503841e-26
6.000000e+02 4.163784e-26
6.010000e+02 4.945118e-26
6.020000e+02 5.869635e-26
6.030000e+02 6.962942e-26
6.040000e+02 8.255113e-26
6.050000e+02 9.781444e-26
6.060000e+02 1.158334e-25
6.070000e+02 1.370936e-25
6.080000e+02 1.621638e-25
6.090000e+02 1.917102e-25
6.100000e+02 2.265127e-25
6.110000e+02 2.674835e-25
6.120000e+02 3.156891e-25
6.130000e+02 3.723761e-25
6.140000e+02 4.390002e-25
6.150000e+02 5.172606e-25
6.160000e+02 6.091401e-25
6.170000e+02 7.169504e-25
6.180000e+02 8.433860e-25
6.190000e+02 9.915854e-25
6.200000e+02 1.165203e-24
6.210000e+02 1.368490e-24
6.220000e+02 1.606392e-24
6.230000e+02 1.884658e-24
6.240000e+02 2.209966e-24
6.250000e+02 2.590072e-24
6.260000e+02 3.033977e-24
6.270000e+02 3.552124e-24
6.280000e+02 4.156622e-24
6.290000e+02 4.861500e-24
6.300000e+02 5.683015e-24
6.310000e+02 6.639927e-24
6.320000e+02 7.754177e-24
6.330000e+02 9.050786e-24
6.340000e+02 1.055892e-23
6.350000e+02 1.231223e-23
6.360000e+02 1.434957e-23
6.370000e+02 1.671578e-23
6.380000e+02 1.946263e-23
6.390000e+02 2.264979e-23
6.400000e+02 2.634607e-23
6.410000e+02 3.063073e-23
6.420000e+02 3.559506e-23
6.430000e+02 4.134413e-23
6.440000e+02 4.799887e-23
6.450000e+02 5.569829e-23
6.460000e+02 6.460223e-23
6.470000e+02 7.489433e-23
6.480000e+02 8.678547e-23
6.490000e+02 1.005177e-22
6.500000e+02 1.163689e-22
6.510000e+02 1.346576e-22
6.520000e+02 1.557489e-22
6.530000e+02 1.800614e-22
6.540000e+02 2.080744e-22
6.550000e+02 2.403365e-22
6.560000e+02 2.774757e-22
6.570000e+02 3.202102e-22
6.580000e+02 3.693612e-22
6.590000e+02 4.258672e-22
6.600000e+02 4.908002e-22
6.610000e+02 5.653845e-22
6.620000e+02 6.510171e-22
6.630000e+02 7.492923e-22
6.640000e+02 8.620279e-22
6.650000e+02 9.912962e-22
6.660000e+02 1.139458e-21
6.670000e+02 1.309203e-21
6.680000e+02 1.503593e-21
6.690000e+02 1.726112e-21
6.700000e+02 1.980724e-21
6.710000e+02 2.271935e-21
6.720000e+02 2.604868e-21
6.730000e+02 2.985343e-21
6.740000e+02 3.419971e-21
6.750000e+02 3.916253e-21
6.760000e+02 4.482707e-21
6.770000e+02 5.128991e-21
6.780000e+02 5.866056e-21
6.790000e+02 6.706315e-21
6.800000e+02 7.663833e-21
6.810000e+02 8.754538e-21
6.820000e+02 9.996461e-21
6.830000e+02 1.141001e-20
6.840000e+02 1.301826e-20
6.850000e+02 1.484733e-20
6.860000e+02 1.692671e-20
6.870000e+02 1.928974e-20
6.880000e+02 2.197408e-20
6.890000e+02 2.502224e-20
6.900000e+02 2.848220e-20
6.910000e+02 3.240810e-20
6.920000e+02 3.686098e-20
6.930000e+02 4.190969e-20
6.940000e+02 4.763178e-20
6.950000e+02 5.411463e-20
6.960000e+02 6.145664e-20
6.970000e+02 6.976859e-20
6.980000e+02 7.917514e-20
6.990000e+02 8.981648e-20
7.000000e+02 1.018503e-19
7.010000e+02 1.154539e-19
7.020000e+02 1.308263e-19
7.030000e+02 1.481913e-19
7.040000e+02 1.678001e-19
7.050000e+02 1.899347e-19
7.060000e+02 2.149115e-19
7.070000e+02 2.430854e-19
7.080000e+02 2.748543e-19
7.090000e+02 3.106643e-19
7.100000e+02 3.510154e-19
7.110000e+02 3.964673e-19
7.120000e+02 4.476471e-19
7.130000e+02 5.052567e-19
7.140000e+02 5.700813e-19
7.150000e+02 6.429995e-19
7.160000e+02 7.249936e-19
7.170000e+02 8.171619e-19
7.180000e+02 9.207316e-19
7.190000e+02 1.037074e-18
7.200000e+02 1.167719e-18
7.210000e+02 1.314378e-18
7.220000e+02 1.478957e-18
7.230000e+02 1.663584e-18
7.240000e+02 1.870634e-18
7.250000e+02 2.102753e-18
7.260000e+02 2.362890e-18
7.270000e+02 2.654333e-18
7.280000e+02 2.980742e-18
7.290000e+02 3.346194e-18
7.300000e+02 3.755227e-18
7.310000e+02 4.212890e-18
7.320000e+02 4.724800e-18
7.330000e+02 5.297207e-18
7.340000e+02 5.937055e-18
7.350000e+02 6.652063e-18
7.360000e+02 7.450810e-18
7.370000e+02 8.342821e-18
7.380000e+02 9.338676e-18
7.390000e+02 1.045012e-17
7.400000e+02 1.169018e-17
7.410000e+02 1.307331e-17
7.420000e+02 1.461555e-17
7.430000e+02 1.633468e-17
7.440000e+02 1.825039e-17
7.450000e+02 2.038453e-17
7.460000e+02 2.276126e-17
7.470000e+02 2.540738e-17
7.480000e+02 2.835254e-17
7.490000e+02 3.162954e-17
7.500000e+02 3.527469e-17
7.510000e+02 3.932816e-17
7.520000e+02 4.383435e-17
7.530000e+02 4.884235e-17
7.540000e+02 5.440640e-17
7.550000e+02 6.058646e-17
7.560000e+02 6.744872e-17
7.570000e+02 7.506629e-17
7.580000e+02 8.351987e-17
7.590000e+02 9.289851e-17
7.600000e+02 1.033005e-16
7.610000e+02 1.148341e-16
7.620000e+02 1.276190e-16
7.630000e+02 1.417867e-16
7.640000e+02 1.574826e-16
7.650000e+02 1.748665e-16
7.660000e+02 1.941146e-16
7.670000e+02 2.154209e-16
7.680000e+02 2.389989e-16
7.690000e+02 2.650838e-16
7.700000e+02 2.939340e-16
7.710000e+02 3.258340e-16
7.720000e+02 3.610967e-16
7.730000e+02 4.000658e-16
7.740000e+02 4.431193e-16
7.750000e+02 4.906726e-16
7.760000e+02 5.431818e-16
7.770000e+02 6.011480e-16
7.780000e+02 6.651212e-16
7.790000e+02 7.357052e-16
7.800000e+02 8.135625e-16
7.810000e+02 8.994202e-16
7.820000e+02 9.940754e-16
7.830000e+02 1.098402e-15
7.840000e+02 1.213360e-15
7.850000e+02 1.339997e-15
7.860000e+02 1.479466e-15
7.870000e+02 1.633028e-15
7.880000e+02 1.802061e-15
7.890000e+02 1.988079e-15
7.900000e+02 2.192736e-15
7.910000e+02 2.417841e-15
7.920000e+02 2.665377e-15
7.930000e+02 2.937510e-15
7.940000e+02 3.236609e-15
7.950000e+02 3.565265e-15
7.960000e+02 3.926307e-15
7.970000e+02 4.322831e-15
7.980000e+02 4.758216e-15
7.990000e+02 5.236152e-15
8.000000e+02 5.760671e-15
8.010000e+02 6.336172e-15
8.020000e+02 6.967458e-15
8.030000e+02 7.659769e-15
8.040000e+02 8.418821e-15
8.050000e+02 9.250847e-15
8.060000e+02 1.016265e-14
8.070000e+02 1.116163e-14
8.080000e+02 1.225588e-14
8.090000e+02 1.345419e-14
8.100000e+02 1.476614e-14
8.110000e+02 1.620219e-14
8.120000e+02 1.777370e-14
8.130000e+02 1.949305e-14
8.140000e+02 2.137371e-14
8.150000e+02 2.343034e-14
8.160000e+02 2.567889e-14
8.170000e+02 2.813670e-14
8.180000e+02 3.082263e-14
8.190000e+02 3.375720e-14
8.200000e+02 3.696269e-14
8.210000e+02 4.046332e-14
8.220000e+02 4.428540e-14
8.230000e+02 4.845753e-14
8.240000e+02 5.301072e-14
8.250000e+02 5.797871e-14
8.260000e+02 6.339805e-14
8.270000e+02 6.930846e-14
8.280000e+02 7.575302e-14
8.290000e+02 8.277845e-14
8.300000e+02 9.043544e-14
8.310000e+02 9.877896e-14
8.320000e+02 1.078686e-13
8.330000e+02 1.177689e-13
8.340000e+02 1.285498e-13
8.350000e+02 1.402873e-13
8.360000e+02 1.530633e-13
8.370000e+02 1.669669e-13
8.380000e+02 1.820944e-13
8.390000e+02 1.985500e-13
8.400000e+02 2.164465e-13
8.410000e+02 2.359060e-13
8.420000e+02 2.570607e-13
8.430000e+02 2.800533e-13
8.440000e+02 3.050384e-13
8.450000e+02 3.321831e-13
8.460000e+02 3.616678e-13
8.470000e+02 3.936879e-13
8.480000e+02 4.284541e-13
8.490000e+02 4.661943e-13
8.500000e+02 5.071545e-13
8.510000e+02 5.516006e-13
8.520000e+02 5.998195e-13
8.530000e+02 6.521207e-13
8.540000e+02 7.088387e-13
8.550000e+02 7.703342e-13
8.560000e+02 8.369963e-13
8.570000e+02 9.092448e-13
8.580000e+02 9.875324e-13
8.590000e+02 1.072347e-12
8.600000e+02 1.164215e-12
8.610000e+02 1.263704e-12
8.620000e+02 1.371424e-12
8.630000e+02 1.488035e-12
8.640000e+02 1.614245e-12
8.650000e+02 1.750818e-12
8.660000e+02 1.898577e-12
8.670000e+02 2.058408e-12
8.680000e+02 2.231264e-12
8.690000e+02 2.418170e-12
8.700000e+02 2.620231e-12
8.710000e+02 2.838635e-12
8.720000e+02 3.074658e-12
8.730000e+02 3.329674e-12
8.740000e+02 3.605161e-12
8.750000e+02 3.902706e-12
8.760000e+02 4.224016e-12
8.770000e+02 4.570925e-12
8.780000e+02 4.945403e-12
8.790000e+02 5.349568e-12
8.800000e+02 5.785693e-12
8.810000e+02 6.256220e-12
8.820000e+02 6.763769e-12
8.830000e+02 7.311156e-12
8.840000e+02 7.901400e-12
8.850000e+02 8.537743e-12
8.860000e+02 9.223663e-12
8.870000e+02 9.962891e-12
8.880000e+02 1.075943e-11
8.890000e+02 1.161756e-11
8.900000e+02 1.254190e-11
8.910000e+02 1.353736e-11
8.920000e+02 1.460924e-11
8.930000e+02 1.576321e-11
8.940000e+02 1.700533e-11
8.950000e+02 1.834210e-11
8.960000e+02 1.978048e-11
8.970000e+02 2.132794e-11
8.980000e+02 2.299247e-11
8.990000e+02 2.478260e-11
9.000000e+02 2.670749e-11
9.010000e+02 2.877693e-11
9.020000e+02 3.100141e-11
9.030000e+02 3.339212e-11
9.040000e+02 3.596107e-11
9.050000e+02 3.872107e-11
9.060000e+02 4.168584e-11
9.070000e+02 4.487005e-11
9.080000e+02 4.828936e-11
9.090000e+02 5.196052e-11
9.100000e+02 5.590144e-11
9.110000e+02 6.013125e-11
9.120000e+02 6.467037e-11
9.130000e+02 6.954063e-11
9.140000e+02 7.995316e-11
9.150000e+02 1.561033e-08
9.160000e+02 6.827775e-08
9.170000e+02 5.282232e-10
9.180000e+02 2.014088e-08
9.190000e+02 1.845941e-07
9.200000e+02 4.298185e-07
9.210000e+02 1.235796e-10
9.220000e+02 7.687896e-08
9.230000e+02 8.168111e-10
9.240000e+02 7.291305e-10
9.250000e+02 9.514972e-09
9.260000e+02 2.792613e-08
9.270000e+02 7.725318e-10
9.280000e+02 1.713111e-06
9.290000e+02 1.942211e-06
9.300000e+02 5.940180e-07
9.310000e+02 1.445358e-09
9.320000e+02 1.737267e-06
9.330000e+02 5.956394e-08
9.340000e+02 1.507760e-08
9.350000e+02 8.931240e-09
9.360000e+02 2.664557e-09
9.370000e+02 8.931080e-10
9.380000e+02 6.126502e-09
9.390000e+02 9.407611e-09
9.400000e+02 6.943169e-07
9.410000e+02 1.197950e-07
9.420000e+02 5.884549e-06
9.430000e+02 1.372337e-08
9.440000e+02 6.572558e-06
9.450000e+02 5.072400e-06
9.460000e+02 2.007895e-07
9.470000e+02 7.895267e-10
9.480000e+02 1.453719e-06
9.490000e+02 4.006102e-07
9.500000e+02 1.629462e-08
9.510000e+02 2.415670e-07
9.520000e+02 4.985916e-07
9.530000e+02 3.633447e-09
9.540000e+02 1.211637e-09
9.550000e+02 3.255718e-08
9.560000e+02 3.889831e-06
9.570000e+02 1.881517e-08
9.580000e+02 1.550887e-09
9.590000e+02 9.202864e-07
9.600000e+02 3.164845e-08
9.610000e+02 3.364005e-07
9.620000e+02 1.238878e-07
9.630000e+02 1.750459e-08
9.640000e+02 5.823097e-09
9.650000e+02 2.655497e-09
9.660000e+02 3.598780e-08
9.670000e+02 6.904429e-09
9.680000e+02 5.384891e-09
9.690000e+02 1.941479e-07
9.700000e+02 4.043891e-07
9.710000e+02 1.190933e-08
9.720000e+02 6.006303e-09
9.730000e+02 1.442452e-07
9.740000e+02 4.074595e-07
9.750000e+02 8.785961e-08
9.760000e+02 4.135440e-06
9.770000e+02 1.570742e-06
9.780000e+02 6.655146e-07
9.790000e+02 3.043596e-05
9.800000e+02 1.786555e-05
9.810000e+02 3.557579e-07
9.820000e+02 6.966980e-08
9.830000e+02 1.267796e-05
9.840000e+02 2.042008e-06
9.850000e+02 1.624183e-07
9.860000e+02 2.894988e-07
9.870000e+02 1.074029e-05
9.880000e+02 1.106446e-08
9.890000e+02 2.119209e-06
9.900000e+02 7.963323e-06
9.910000e+02 8.913511e-08
9.920000e+02 1.333838e-08
9.930000e+02 4.903388e-05
9.940000e+02 3.214183e-08
9.950000e+02 2.279962e-06
9.960000e+02 2.706565e-08
9.970000e+02 7.387590e-06
9.980000e+02 9.030215e-06
9.990000e+02 1.451593e-07
1.000000e+03 1.101749e-04
1.001000e+03 7.933386e-05
1.002000e+03 4.271117e-05
1.003000e+03 1.408880e-07
1.004000e+03 2.779416e-08
1.005000e+03 5.609472e-07
1.006000e+03 2.867327e-05
1.007000e+03 5.903930e-05
1.008000e+03 1.511630e-05
1.009000e+03 2.280658e-07
1.010000e+03 1.410340e-05
1.011000e+03 1.539424e-05
1.012000e+03 2.321903e-05
1.013000e+03 2.276938e-05
1.014000e+03 4.955291e-08
1.015000e+03 5.346556e-08
1.016000e+03 8.787210e-07
1.017000e+03 5.899346e-08
1.018000e+03 2.261067e-07
1.019000e+03 6.642222e-08
1.020000e+03 4.349386e-05
1.021000e+03 5.947622e-07
1.022000e+03 8.153438e-07
1.023000e+03 9.015639e-08
1.024000e+03 1.916214e-05
1.025000e+03 9.343125e-08
1.026000e+03 1.608264e-07
1.027000e+03 3.555409e-06
1.028000e+03 9.656815e-07
1.029000e+03 1.172539e-07
1.030000e+03 2.749919e-06
1.031000e+03 7.885486e-06
1.032000e+03 1.065949e-04
1.033000e+03 6.442540e-06
1.034000e+03 8.799513e-06
1.035000e+03 8.138632e-07
1.036000e+03 1.737099e-07
1.037000e+03 6.423087e-05
1.038000e+03 4.238903e-04
1.039000e+03 7.326150e-05
1.040000e+03 4.750417e-05
1.041000e+03 3.229198e-04
1.042000e+03 2.395362e-04
1.043000e+03 3.202718e-04
1.044000e+03 1.426509e-03
1.045000e+03 5.532497e-07
1.046000e+03 5.249429e-05
1.047000e+03 2.854707e-05
1.048000e+03 6.259324e-07
1.049000e+03 2.354451e-05
1.050000e+03 5.980510e-06
1.051000e+03 3.466033e-06
1.052000e+03 3.639725e-04
1.053000e+03 5.402617e-04
1.054000e+03 4.654721e-07
1.055000e+03 6.704120e-04
1.056000e+03 7.962248e-04
1.057000e+03 8.752642e-05
1.058000e+03 3.160967e-06
1.059000e+03 4.428090e-06
1.060000e+03 1.066539e-06
1.061000e+03 1.654306e-04
1.062000e+03 1.897155e-06
1.063000e+03 1.474370e-04
1.064000e+03 1.362525e-06
1.065000e+03 8.357456e-07
1.066000e+03 2.542222e-04
1.067000e+03 3.214615e-06
1.068000e+03 2.028777e-03
1.069000e+03 1.210734e-06
1.070000e+03 3.063027e-05
1.071000e+03 4.782402e-04
1.072000e+03 2.752986e-03
1.073000e+03 1.269160e-06
1.074000e+03 1.093741e-04
1.075000e+03 6.334763e-05
1.076000e+03 3.024768e-03
1.077000e+03 3.789770e-06
1.078000e+03 5.390961e-06
1.079000e+03 2.400398e-05
1.080000e+03 1.212010e-04
1.081000e+03 6.578039e-04
1.082000e+03 3.407844e-04
1.083000e+03 1.744945e-04
1.084000e+03 8.924784e-03
1.085000e+03 4.186295e-05
1.086000e+03 3.795924e-03
1.087000e+03 9.081792e-06
1.088000e+03 9.030333e-03
1.089000e+03 1.065768e-02
1.090000e+03 3.387338e-05
1.091000e+03 5.523860e-05
1.092000e+03 8.063085e-03
1.093000e+03 1.274095e-02
1.094000e+03 3.890750e-04
1.095000e+03 1.832599e-02
1.096000e+03 3.058124e-03
1.097000e+03 3.098687e-03
1.098000e+03 1.334847e-02
1.099000e+03 1.242273e-04
1.100000e+03 5.176873e-06
1.101000e+03 8.328376e-06
1.102000e+03 9.571976e-05
1.103000e+03 1.766972e-02
1.104000e+03 1.791903e-02
1.105000e+03 2.001951e-02
1.106000e+03 4.632371e-04
1.107000e+03 8.012168e-06
1.108000e+03 3.491943e-03
1.109000e+03 5.926937e-05
1.110000e+03 1.969875e-02
1.111000e+03 1.237403e-02
1.112000e+03 1.488338e-03
1.113000e+03 2.397793e-02
1.114000e+03 8.553255e-04
1.115000e+03 6.772351e-05
1.116000e+03 2.274312e-05
1.117000e+03 1.589319e-02
1.118000e+03 1.040390e-04
1.119000e+03 1.502809e-03
1.120000e+03 3.754441e-05
1.121000e+03 8.749077e-03
1.122000e+03 6.266813e-02
1.123000e+03 2.146567e-02
1.124000e+03 2.573471e-02
1.125000e+03 1.079286e-02
1.126000e+03 1.233471e-01
1.127000e+03 1.141090e-02
1.128000e+03 5.848254e-02
1.129000e+03 5.453866e-03
1.130000e+03 4.394220e-02
1.131000e+03 6.758253e-02
1.132000e+03 7.075304e-05
1.133000e+03 6.792098e-04
1.134000e+03 8.509852e-03
1.135000e+03 6.449485e-02
1.136000e+03 1.304818e-03
1.137000e+03 2.958482e-02
1.138000e+03 6.622748e-03
1.139000e+03 6.687665e-02
1.140000e+03 4.909090e-02
1.141000e+03 6.843437e-02
1.142000e+03 8.509579e-02
1.143000e+03 6.807789e-03
1.144000e+03 8.801759e-02
1.145000e+03 5.786493e-05
1.146000e+03 9.191331e-02
1.147000e+03 7.506679e-02
1.148000e+03 3.546476e-04
1.149000e+03 3.480614e-02
1.150000e+03 2.662053e-02
1.151000e+03 8.409339e-02
1.152000e+03 3.646680e-02
1.153000e+03 8.364139e-02
1.154000e+03 1.167671e-01
1.155000e+03 3.728057e-02
1.156000e+03 9.042200e-02
1.157000e+03 1.053045e-01
1.158000e+03 9.698011e-03
1.159000e+03 9.506344e-02
1.160000e+03 1.552545e-02
1.161000e+03 8.387341e-02
1.162000e+03 1.677580e-03
1.163000e+03 6.852604e-03
1.164000e+03 8.129105e-04
1.165000e+03 3.784080e-02
1.166000e+03 2.395889e-02
1.167000e+03 2.204830e-02
1.168000e+03 1.125209e-01
1.169000e+03 1.329355e-01
1.170000e+03 1.392458e-02
1.171000e+03 6.396461e-02
1.172000e+03 2.700673e-02
1.173000e+03 5.407444e-02
1.174000e+03 3.149137e-04
1.175000e+03 5.022800e-04
1.176000e+03 2.127895e-04
1.177000e+03 1.711945e-01
1.178000e+03 1.679326e-01
1.179000e+03 1.440906e-01
1.180000e+03 6.012378e-02
1.181000e+03 1.512593e-01
1.182000e+03 1.290189e-01
1.183000e+03 5.758885e-02
1.184000e+03 4.673716e-02
1.185000e+03 5.657523e-02
1.186000e+03 1.511197e-03
1.187000e+03 1.021465e-01
1.188000e+03 3.823185e-02
1.189000e+03 1.311086e-01
1.190000e+03 1.260003e-01
1.191000e+03 9.536951e-02
1.192000e+03 1.085339e-01
1.193000e+03 8.164039e-02
1.194000e+03 1.063828e-01
1.195000e+03 1.002221e-01
1.196000e+03 5.182135e-01
1.197000e+03 1.163304e+00
1.198000e+03 4.788980e-03
1.199000e+03 1.027336e+00
1.200000e+03 1.816188e-02
1.201000e+03 7.036935e-01
1.202000e+03 1.532960e-01
1.203000e+03 4.887051e-01
1.204000e+03 2.249176e-02
1.205000e+03 3.336252e-01
1.206000e+03 3.076086e-01
1.207000e+03 7.586324e-02
1.208000e+03 1.859180e-01
1.209000e+03 1.685829e-01
1.210000e+03 1.097493e-03
1.211000e+03 7.225797e-02
1.212000e+03 2.993471e-02
1.213000e+03 1.946678e-02
1.214000e+03 6.531105e-03
1.215000e+03 1.153440e-03
1.216000e+03 8.500734e-04
1.217000e+03 4.319475e-03
1.218000e+03 1.676024e-02
1.219000e+03 4.066744e-02
1.220000e+03 2.294387e-02
1.221000e+03 1.411725e-01
1.222000e+03 1.714387e-01
1.223000e+03 1.444699e-01
1.224000e+03 4.209607e-01
1.225000e+03 1.014221e-02
1.226000e+03 8.343490e-01
1.227000e+03 9.813974e-01
1.228000e+03 8.724624e-02
1.229000e+03 9.840913e-01
1.230000e+03 6.872381e-01
1.231000e+03 4.357576e-02
1.232000e+03 2.572638e+00
1.233000e+03 3.049070e+00
1.234000e+03 3.282603e+00
1.235000e+03 2.462180e+00
1.236000e+03 1.473169e-01
1.237000e+03 4.172706e+00
1.238000e+03 3.587675e+00
1.239000e+03 9.351368e-01
1.240000e+03 2.655401e+00
1.241000e+03 1.307344e+00
1.242000e+03 3.181182e+00
1.243000e+03 6.196249e+00
1.244000e+03 6.930574e+00
1.245000e+03 6.364307e+00
1.246000e+03 2.561008e+00
1.247000e+03 4.244648e+00
1.248000e+03 7.173779e+00
1.249000e+03 9.652806e+00
1.250000e+03 5.882156e+00
1.251000e+03 9.071507e+00
1.252000e+03 5.735679e+00
1.253000e+03 1.052474e+01
1.254000e+03 6.383426e+00
1.255000e+03 2.850119e+00
1.256000e+03 4.635577e+00
1.257000e+03 6.056384e+00
1.258000e+03 1.977804e+00
1.259000e+03 3.190950e+00
1.260000e+03 1.067076e+01
1.261000e+03 3.999414e-01
1.262000e+03 1.198871e+01
1.263000e+03 8.428364e+00
1.264000e+03 2.658455e+00
1.265000e+03 4.594475e+00
1.266000e+03 1.271987e+01
1.267000e+03 4.855245e+00
