# wavelength_A flux
5.000000e+02 3.023484e-08
5.010000e+02 3.428942e-08
5.020000e+02 3.886748e-08
5.030000e+02 4.403395e-08
5.040000e+02 4.986155e-08
5.050000e+02 5.747158e-08
5.060000e+02 6.500394e-08
5.070000e+02 7.348645e-08
5.080000e+02 8.303424e-08
5.090000e+02 9.377760e-08
5.100000e+02 1.058564e-07
5.110000e+02 1.194325e-07
5.120000e+02 1.346836e-07
5.130000e+02 1.518083e-07
5.140000e+02 1.710278e-07
5.150000e+02 1.925864e-07
5.160000e+02 2.167622e-07
5.170000e+02 2.438481e-07
5.180000e+02 2.742048e-07
5.190000e+02 3.081869e-07
5.200000e+02 3.462186e-07
5.210000e+02 3.887628e-07
5.220000e+02 4.362985e-07
5.230000e+02 4.895005e-07
5.240000e+02 5.488953e-07
5.250000e+02 6.152241e-07
5.260000e+02 6.892520e-07
5.270000e+02 7.718413e-07
5.280000e+02 8.639417e-07
5.290000e+02 9.664407e-07
5.300000e+02 1.080988e-06
5.310000e+02 1.208380e-06
5.320000e+02 1.350199e-06
5.330000e+02 1.508005e-06
5.340000e+02 1.683529e-06
5.350000e+02 1.878678e-06
5.360000e+02 2.095545e-06
5.370000e+02 2.314529e-06
5.380000e+02 2.603973e-06
5.390000e+02 2.900955e-06
5.400000e+02 3.230434e-06
5.410000e+02 3.595634e-06
5.420000e+02 4.000884e-06
5.430000e+02 4.449802e-06
5.440000e+02 4.947044e-06
5.450000e+02 5.497621e-06
5.460000e+02 6.106229e-06
5.470000e+02 6.781253e-06
5.480000e+02 7.526911e-06
5.490000e+02 8.351287e-06
5.500000e+02 9.262284e-06
5.510000e+02 1.026864e-05
5.520000e+02 1.137991e-05
5.530000e+02 1.260655e-05
5.540000e+02 1.396003e-05
5.550000e+02 1.545292e-05
5.560000e+02 1.709894e-05
5.570000e+02 1.891312e-05
5.580000e+02 2.091190e-05
5.590000e+02 2.311326e-05
5.600000e+02 2.553684e-05
5.610000e+02 2.820409e-05
5.620000e+02 3.113844e-05
5.630000e+02 3.436547e-05
5.640000e+02 3.791312e-05
5.650000e+02 4.181178e-05
5.660000e+02 4.609480e-05
5.670000e+02 5.079828e-05
5.680000e+02 5.596170e-05
5.690000e+02 6.162810e-05
5.700000e+02 6.784420e-05
5.710000e+02 7.466123e-05
5.720000e+02 8.213444e-05
5.730000e+02 9.032430e-05
5.740000e+02 9.929644e-05
5.750000e+02 1.091236e-04
5.760000e+02 1.198707e-04
5.770000e+02 1.316537e-04
5.780000e+02 1.445338e-04
5.790000e+02 1.586205e-04
5.800000e+02 1.740219e-04
5.810000e+02 1.908549e-04
5.820000e+02 2.092465e-04
5.830000e+02 2.293332e-04
5.840000e+02 2.512144e-04
5.850000e+02 2.751994e-04
5.860000e+02 3.013394e-04
5.870000e+02 3.298418e-04
5.880000e+02 3.609228e-04
5.890000e+02 3.948017e-04
5.900000e+02 4.317325e-04
5.910000e+02 4.719635e-04
5.920000e+02 5.157813e-04
5.930000e+02 5.634905e-04
5.940000e+02 6.154210e-04
5.950000e+02 6.719157e-04
5.960000e+02 7.333998e-04
5.970000e+02 8.002484e-04
5.980000e+02 8.729236e-04
5.990000e+02 9.519099e-04
6.000000e+02 1.037730e-03
6.010000e+02 1.130902e-03
6.020000e+02 1.232168e-03
6.030000e+02 1.342050e-03
6.040000e+02 1.461299e-03
6.050000e+02 1.590675e-03
6.060000e+02 1.730994e-03
6.070000e+02 1.883149e-03
6.080000e+02 2.048080e-03
6.090000e+02 2.226813e-03
6.100000e+02 2.420447e-03
6.110000e+02 2.630170e-03
6.120000e+02 2.857250e-03
6.130000e+02 3.103057e-03
6.140000e+02 3.369062e-03
6.150000e+02 3.656846e-03
6.160000e+02 3.968105e-03
6.170000e+02 4.304663e-03
6.180000e+02 4.668477e-03
6.190000e+02 5.061648e-03
6.200000e+02 5.486431e-03
6.210000e+02 5.945245e-03
6.220000e+02 6.440686e-03
6.230000e+02 6.975533e-03
6.240000e+02 7.552770e-03
6.250000e+02 8.175593e-03
6.260000e+02 8.847427e-03
6.270000e+02 9.571939e-03
6.280000e+02 1.035306e-02
6.290000e+02 1.119499e-02
6.300000e+02 1.210224e-02
6.310000e+02 1.307919e-02
6.320000e+02 1.413230e-02
6.330000e+02 1.526576e-02
6.340000e+02 1.648595e-02
6.350000e+02 1.779912e-02
6.360000e+02 1.919815e-02
6.370000e+02 2.073191e-02
6.380000e+02 2.236640e-02
6.390000e+02 2.412373e-02
6.400000e+02 2.601269e-02
6.410000e+02 2.804261e-02
6.420000e+02 3.022353e-02
6.430000e+02 3.256609e-02
6.440000e+02 3.508166e-02
6.450000e+02 3.778238e-02
6.460000e+02 4.068124e-02
6.470000e+02 4.379191e-02
6.480000e+02 4.712928e-02
6.490000e+02 5.070889e-02
6.500000e+02 5.454744e-02
6.510000e+02 5.866277e-02
6.520000e+02 6.307378e-02
6.530000e+02 6.780064e-02
6.540000e+02 7.286481e-02
6.550000e+02 7.828911e-02
6.560000e+02 8.409787e-02
6.570000e+02 9.031565e-02
6.580000e+02 9.697375e-02
6.590000e+02 1.040976e-01
6.600000e+02 1.117194e-01
6.610000e+02 1.198725e-01
6.620000e+02 1.285918e-01
6.630000e+02 1.379144e-01
6.640000e+02 1.478802e-01
6.650000e+02 1.585308e-01
6.660000e+02 1.699117e-01
6.670000e+02 1.820696e-01
6.680000e+02 1.950548e-01
6.690000e+02 2.089210e-01
6.700000e+02 2.237245e-01
6.710000e+02 2.395255e-01
6.720000e+02 2.563869e-01
6.730000e+02 2.743784e-01
6.740000e+02 2.935693e-01
6.750000e+02 3.140363e-01
6.760000e+02 3.358597e-01
6.770000e+02 3.591246e-01
6.780000e+02 3.839209e-01
6.790000e+02 4.103445e-01
6.800000e+02 4.384962e-01
6.810000e+02 4.684831e-01
6.820000e+02 5.004180e-01
6.830000e+02 5.344214e-01
6.840000e+02 5.706196e-01
6.850000e+02 6.091461e-01
6.860000e+02 6.501447e-01
6.870000e+02 6.937601e-01
6.880000e+02 7.401606e-01
6.890000e+02 7.895047e-01
6.900000e+02 8.419718e-01
6.910000e+02 8.977501e-01
6.920000e+02 9.570358e-01
6.930000e+02 1.020038e+00
6.940000e+02 1.086977e+00
6.950000e+02 1.158086e+00
6.960000e+02 1.233609e+00
6.970000e+02 1.313792e+00
6.980000e+02 1.398950e+00
6.990000e+02 1.489329e+00
7.000000e+02 1.585249e+00
7.010000e+02 1.687028e+00
7.020000e+02 1.795007e+00
7.030000e+02 1.909540e+00
7.040000e+02 2.031005e+00
7.050000e+02 2.159797e+00
7.060000e+02 2.296333e+00
7.070000e+02 2.441053e+00
7.080000e+02 2.594422e+00
7.090000e+02 2.756920e+00
7.100000e+02 2.929078e+00
7.110000e+02 3.111421e+00
7.120000e+02 3.304522e+00
7.130000e+02 3.508981e+00
7.140000e+02 3.725428e+00
7.150000e+02 3.954526e+00
7.160000e+02 4.196974e+00
7.170000e+02 4.453491e+00
7.180000e+02 4.724839e+00
7.190000e+02 5.011937e+00
7.200000e+02 5.315505e+00
7.210000e+02 5.636487e+00
7.220000e+02 5.975825e+00
7.230000e+02 6.334512e+00
7.240000e+02 6.713582e+00
7.250000e+02 7.114130e+00
7.260000e+02 7.537302e+00
7.270000e+02 7.984304e+00
7.280000e+02 8.456398e+00
7.290000e+02 8.954910e+00
7.300000e+02 9.481237e+00
7.310000e+02 1.003684e+01
7.320000e+02 1.062325e+01
7.330000e+02 1.124208e+01
7.340000e+02 1.189501e+01
7.350000e+02 1.258382e+01
7.360000e+02 1.331035e+01
7.370000e+02 1.407657e+01
7.380000e+02 1.488450e+01
7.390000e+02 1.573629e+01
7.400000e+02 1.663413e+01
7.410000e+02 1.758048e+01
7.420000e+02 1.857767e+01
7.430000e+02 1.962840e+01
7.440000e+02 2.073527e+01
7.450000e+02 2.190113e+01
7.460000e+02 2.312896e+01
7.470000e+02 2.442183e+01
7.480000e+02 2.578300e+01
7.490000e+02 2.721587e+01
7.500000e+02 2.872396e+01
7.510000e+02 3.031101e+01
7.520000e+02 3.198090e+01
7.530000e+02 3.373767e+01
7.540000e+02 3.558561e+01
7.550000e+02 3.752913e+01
7.560000e+02 3.957291e+01
7.570000e+02 4.172125e+01
7.580000e+02 4.398082e+01
7.590000e+02 4.635521e+01
7.600000e+02 4.885088e+01
7.610000e+02 5.147328e+01
7.620000e+02 5.422855e+01
7.630000e+02 5.712299e+01
7.640000e+02 6.016322e+01
7.650000e+02 6.335612e+01
7.660000e+02 6.670895e+01
7.670000e+02 7.022916e+01
7.680000e+02 7.392434e+01
7.690000e+02 7.780352e+01
7.700000e+02 8.187440e+01
7.710000e+02 8.614616e+01
7.720000e+02 9.062811e+01
7.730000e+02 9.532995e+01
7.740000e+02 1.002618e+02
7.750000e+02 1.054342e+02
7.760000e+02 1.108519e+02
7.770000e+02 1.165451e+02
7.780000e+02 1.225072e+02
7.790000e+02 1.287566e+02
7.800000e+02 1.353065e+02
7.810000e+02 1.421705e+02
7.820000e+02 1.493625e+02
7.830000e+02 1.568972e+02
7.840000e+02 1.647901e+02
7.850000e+02 1.730570e+02
7.860000e+02 1.817145e+02
7.870000e+02 1.907805e+02
7.880000e+02 2.002719e+02
7.890000e+02 2.102081e+02
7.900000e+02 2.206084e+02
7.910000e+02 2.314932e+02
7.920000e+02 2.428836e+02
7.930000e+02 2.548017e+02
7.940000e+02 2.672702e+02
7.950000e+02 2.803130e+02
7.960000e+02 2.939547e+02
7.970000e+02 3.082212e+02
7.980000e+02 3.231393e+02
7.990000e+02 3.387367e+02
8.000000e+02 3.550424e+02
8.010000e+02 3.720862e+02
8.020000e+02 3.899003e+02
8.030000e+02 4.085162e+02
8.040000e+02 4.279681e+02
8.050000e+02 4.482909e+02
8.060000e+02 4.695212e+02
8.070000e+02 4.916969e+02
8.080000e+02 5.148570e+02
8.090000e+02 5.390428e+02
8.100000e+02 5.642967e+02
8.110000e+02 5.906625e+02
8.120000e+02 6.181862e+02
8.130000e+02 6.469150e+02
8.140000e+02 6.768984e+02
8.150000e+02 7.081868e+02
8.160000e+02 7.408354e+02
8.170000e+02 7.748969e+02
8.180000e+02 8.104298e+02
8.190000e+02 8.474927e+02
8.200000e+02 8.861478e+02
8.210000e+02 9.264586e+02
8.220000e+02 9.684912e+02
8.230000e+02 1.012314e+03
8.240000e+02 1.057999e+03
8.250000e+02 1.105619e+03
8.260000e+02 1.155251e+03
8.270000e+02 1.206975e+03
8.280000e+02 1.260871e+03
8.290000e+02 1.317026e+03
8.300000e+02 1.375528e+03
8.310000e+02 1.436467e+03
8.320000e+02 1.499940e+03
8.330000e+02 1.566044e+03
8.340000e+02 1.634880e+03
8.350000e+02 1.706443e+03
8.360000e+02 1.781169e+03
8.370000e+02 1.858856e+03
8.380000e+02 1.939707e+03
8.390000e+02 2.023869e+03
8.400000e+02 2.111447e+03
8.410000e+02 2.202576e+03
8.420000e+02 2.297362e+03
8.430000e+02 2.396038e+03
8.440000e+02 2.498650e+03
8.450000e+02 2.605380e+03
8.460000e+02 2.716381e+03
8.470000e+02 2.831814e+03
8.480000e+02 2.951842e+03
8.490000e+02 3.076635e+03
8.500000e+02 3.206370e+03
8.510000e+02 3.341227e+03
8.520000e+02 3.481394e+03
8.530000e+02 3.627073e+03
8.540000e+02 3.778470e+03
8.550000e+02 3.935770e+03
8.560000e+02 4.099201e+03
8.570000e+02 4.268984e+03
8.580000e+02 4.445348e+03
8.590000e+02 4.628532e+03
8.600000e+02 4.818780e+03
8.610000e+02 5.016346e+03
8.620000e+02 5.221489e+03
8.630000e+02 5.434475e+03
8.640000e+02 5.655599e+03
8.650000e+02 5.885127e+03
8.660000e+02 6.123383e+03
8.670000e+02 6.370652e+03
8.680000e+02 6.627258e+03
8.690000e+02 6.893528e+03
8.700000e+02 7.169789e+03
8.710000e+02 7.456424e+03
8.720000e+02 7.753759e+03
8.730000e+02 8.062176e+03
8.740000e+02 8.382059e+03
8.750000e+02 8.713802e+03
8.760000e+02 9.057814e+03
8.770000e+02 9.414502e+03
8.780000e+02 9.784343e+03
8.790000e+02 1.016774e+04
8.800000e+02 1.056517e+04
8.810000e+02 1.097711e+04
8.820000e+02 1.140405e+04
8.830000e+02 1.184649e+04
8.840000e+02 1.230497e+04
8.850000e+02 1.278001e+04
8.860000e+02 1.327217e+04
8.870000e+02 1.378203e+04
8.880000e+02 1.431017e+04
8.890000e+02 1.485719e+04
8.900000e+02 1.542374e+04
8.910000e+02 1.601044e+04
8.920000e+02 1.660196e+04
8.930000e+02 1.724700e+04
8.940000e+02 1.789824e+04
8.950000e+02 1.857242e+04
8.960000e+02 1.927030e+04
8.970000e+02 1.999263e+04
8.980000e+02 2.074020e+04
8.990000e+02 2.151384e+04
9.000000e+02 2.231439e+04
9.010000e+02 2.314270e+04
9.020000e+02 2.399968e+04
9.030000e+02 2.488624e+04
9.040000e+02 2.580317e+04
9.050000e+02 2.675189e+04
9.060000e+02 2.773299e+04
9.070000e+02 2.874728e+04
9.080000e+02 2.979677e+04
9.090000e+02 3.088163e+04
9.100000e+02 3.200326e+04
9.110000e+02 3.316294e+04
9.120000e+02 3.436222e+04
9.130000e+02 3.526774e+04
9.140000e+02 3.729684e+04
9.150000e+02 1.350947e+05
9.160000e+02 3.422303e+05
9.170000e+02 3.583298e+05
9.180000e+02 3.330032e+05
9.190000e+02 4.190995e+05
9.200000e+02 4.412582e+05
9.210000e+02 4.626289e+04
9.220000e+02 4.699520e+05
9.230000e+02 4.069417e+05
9.240000e+02 4.549303e+05
9.250000e+02 5.061960e+05
9.260000e+02 4.892550e+05
9.270000e+02 5.394289e+05
9.280000e+02 5.603867e+05
9.290000e+02 5.183292e+05
9.300000e+02 5.856831e+05
9.310000e+02 5.657530e+05
9.320000e+02 6.277269e+05
9.330000e+02 6.453613e+05
9.340000e+02 6.647199e+05
9.350000e+02 1.685269e+05
9.360000e+02 6.752814e+05
9.370000e+02 1.359921e+05
9.380000e+02 4.157617e+05
9.390000e+02 7.547863e+05
9.400000e+02 7.862162e+05
9.410000e+02 3.383726e+05
9.420000e+02 8.316527e+05
9.430000e+02 8.520818e+05
9.440000e+02 6.427124e+05
9.450000e+02 9.031987e+05
9.460000e+02 9.275562e+05
9.470000e+02 8.142473e+05
9.480000e+02 8.444649e+05
9.490000e+02 9.959694e+05
9.500000e+02 2.097997e+05
9.510000e+02 1.031122e+06
9.520000e+02 1.092759e+06
9.530000e+02 1.079457e+06
9.540000e+02 9.822351e+05
9.550000e+02 1.183762e+06
9.560000e+02 1.036326e+06
9.570000e+02 8.216224e+05
9.580000e+02 1.183895e+06
9.590000e+02 1.327623e+06
9.600000e+02 2.810116e+05
9.610000e+02 1.399390e+06
9.620000e+02 1.433357e+06
9.630000e+02 1.474391e+06
9.640000e+02 2.039826e+05
9.650000e+02 1.421376e+06
9.660000e+02 1.594632e+06
9.670000e+02 1.617259e+06
9.680000e+02 1.626593e+06
9.690000e+02 1.718182e+06
9.700000e+02 1.767359e+06
9.710000e+02 1.778206e+06
9.720000e+02 1.714072e+06
9.730000e+02 1.726882e+06
9.740000e+02 1.944998e+06
9.750000e+02 2.012313e+06
9.760000e+02 2.078578e+06
9.770000e+02 2.133434e+06
9.780000e+02 2.181113e+06
9.790000e+02 2.250601e+06
9.800000e+02 2.309138e+06
9.810000e+02 2.364797e+06
9.820000e+02 2.400830e+06
9.830000e+02 2.493224e+06
9.840000e+02 1.154440e+06
9.850000e+02 2.615211e+06
9.860000e+02 2.678985e+06
9.870000e+02 2.760389e+06
9.880000e+02 2.727714e+06
9.890000e+02 2.362124e+06
9.900000e+02 5.188207e+05
9.910000e+02 2.964383e+06
9.920000e+02 2.619406e+06
9.930000e+02 3.066539e+06
9.940000e+02 5.993192e+05
9.950000e+02 1.077713e+06
9.960000e+02 2.268112e+06
9.970000e+02 8.768980e+05
9.980000e+02 3.625142e+06
9.990000e+02 3.625856e+06
1.000000e+03 3.820890e+06
1.001000e+03 3.917739e+06
1.002000e+03 4.013137e+06
1.003000e+03 3.858444e+06
1.004000e+03 4.106332e+06
1.005000e+03 3.998184e+06
1.006000e+03 4.425514e+06
1.007000e+03 4.532044e+06
1.008000e+03 4.639146e+06
1.009000e+03 4.648722e+06
1.010000e+03 4.872480e+06
1.011000e+03 4.992198e+06
1.012000e+03 5.110469e+06
1.013000e+03 5.232904e+06
1.014000e+03 4.670857e+06
1.015000e+03 5.193500e+06
1.016000e+03 5.551247e+06
1.017000e+03 5.108220e+06
1.018000e+03 5.840416e+06
1.019000e+03 5.779789e+06
1.020000e+03 6.156383e+06
1.021000e+03 3.661927e+06
1.022000e+03 5.802541e+06
1.023000e+03 6.185161e+06
1.024000e+03 6.228712e+06
1.025000e+03 4.645928e+06
1.026000e+03 2.601678e+06
1.027000e+03 6.416830e+06
1.028000e+03 2.001497e+06
1.029000e+03 6.735206e+06
1.030000e+03 7.663918e+06
1.031000e+03 7.900544e+06
1.032000e+03 8.128891e+06
1.033000e+03 3.659880e+06
1.034000e+03 8.548258e+06
1.035000e+03 2.072987e+06
1.036000e+03 7.760806e+06
1.037000e+03 2.296529e+06
1.038000e+03 9.411228e+06
1.039000e+03 9.564596e+06
1.040000e+03 9.848130e+06
1.041000e+03 1.000276e+07
1.042000e+03 1.022624e+07
1.043000e+03 1.017689e+07
1.044000e+03 1.078175e+07
1.045000e+03 1.102456e+07
1.046000e+03 1.129684e+07
1.047000e+03 1.150913e+07
1.048000e+03 1.144234e+07
1.049000e+03 1.183866e+07
1.050000e+03 1.232392e+07
1.051000e+03 1.256191e+07
1.052000e+03 1.292010e+07
1.053000e+03 1.311855e+07
1.054000e+03 1.186368e+07
1.055000e+03 1.375830e+07
1.056000e+03 1.412574e+07
1.057000e+03 1.440531e+07
1.058000e+03 1.471264e+07
1.059000e+03 1.479042e+07
1.060000e+03 1.500468e+07
1.061000e+03 1.573621e+07
1.062000e+03 1.601795e+07
1.063000e+03 6.720156e+06
1.064000e+03 4.046542e+06
1.065000e+03 1.565198e+07
1.066000e+03 1.502040e+07
1.067000e+03 1.730222e+07
1.068000e+03 1.843350e+07
1.069000e+03 1.752216e+07
1.070000e+03 1.908911e+07
1.071000e+03 1.966812e+07
1.072000e+03 2.009017e+07
1.073000e+03 1.908523e+07
1.074000e+03 2.088399e+07
1.075000e+03 2.129234e+07
1.076000e+03 2.187616e+07
1.077000e+03 2.204437e+07
1.078000e+03 2.270855e+07
1.079000e+03 2.320542e+07
1.080000e+03 2.375458e+07
1.081000e+03 2.428206e+07
1.082000e+03 2.478804e+07
1.083000e+03 2.529385e+07
1.084000e+03 2.585479e+07
1.085000e+03 2.112658e+07
1.086000e+03 2.697813e+07
1.087000e+03 2.701912e+07
1.088000e+03 2.804725e+07
1.089000e+03 2.869538e+07
1.090000e+03 2.908352e+07
1.091000e+03 2.966086e+07
1.092000e+03 3.051046e+07
1.093000e+03 3.112136e+07
1.094000e+03 3.175564e+07
1.095000e+03 3.241872e+07
1.096000e+03 3.306605e+07
1.097000e+03 3.354215e+07
1.098000e+03 3.422404e+07
1.099000e+03 3.508241e+07
1.100000e+03 3.450961e+07
1.101000e+03 3.322592e+07
1.102000e+03 7.033851e+07
1.103000e+03 2.164969e+08
1.104000e+03 8.697574e+07
1.105000e+03 3.675789e+07
1.106000e+03 4.267773e+08
1.107000e+03 1.700249e+08
1.108000e+03 4.643190e+08
1.109000e+03 2.610049e+08
1.110000e+03 1.266645e+08
1.111000e+03 8.034077e+07
1.112000e+03 4.366944e+08
1.113000e+03 5.150634e+08
1.114000e+03 3.072520e+07
1.115000e+03 4.153659e+08
1.116000e+03 3.915741e+08
1.117000e+03 3.277254e+07
1.118000e+03 3.357416e+08
1.119000e+03 5.394099e+08
1.120000e+03 4.292565e+08
1.121000e+03 5.079272e+08
1.122000e+03 1.402272e+07
1.123000e+03 7.382125e+07
1.124000e+03 5.922860e+08
1.125000e+03 3.282409e+08
1.126000e+03 6.204944e+08
1.127000e+03 6.075530e+08
1.128000e+03 2.497090e+08
1.129000e+03 6.071853e+08
1.130000e+03 5.826436e+08
1.131000e+03 6.659691e+08
1.132000e+03 3.923136e+07
1.133000e+03 4.639260e+08
1.134000e+03 6.465736e+08
1.135000e+03 2.451962e+07
1.136000e+03 6.204778e+08
1.137000e+03 7.229169e+08
1.138000e+03 6.958874e+08
1.139000e+03 7.296117e+08
1.140000e+03 2.472637e+07
1.141000e+03 7.643505e+08
1.142000e+03 7.680712e+08
1.143000e+03 7.816468e+08
1.144000e+03 8.059713e+08
1.145000e+03 4.337851e+08
1.146000e+03 8.300648e+08
1.147000e+03 8.274749e+08
1.148000e+03 6.559069e+08
1.149000e+03 8.591202e+08
1.150000e+03 8.320574e+08
1.151000e+03 8.860456e+08
1.152000e+03 8.957875e+08
1.153000e+03 3.172306e+08
1.154000e+03 9.628800e+07
1.155000e+03 8.215871e+08
1.156000e+03 2.994221e+08
1.157000e+03 9.664010e+08
1.158000e+03 3.877870e+07
1.159000e+03 8.559221e+08
1.160000e+03 9.392682e+08
1.161000e+03 1.023481e+09
1.162000e+03 2.723832e+08
1.163000e+03 9.558764e+08
1.164000e+03 4.910650e+07
1.165000e+03 1.083820e+09
1.166000e+03 1.084641e+09
1.167000e+03 1.076588e+09
1.168000e+03 1.141611e+09
1.169000e+03 1.134007e+09
1.170000e+03 1.168001e+09
1.171000e+03 1.186203e+09
1.172000e+03 1.125634e+09
1.173000e+03 1.233825e+09
1.174000e+03 9.305546e+08
1.175000e+03 5.750323e+07
1.176000e+03 5.086093e+07
1.177000e+03 1.310382e+09
1.178000e+03 1.273928e+09
1.179000e+03 1.348418e+09
1.180000e+03 1.017144e+09
1.181000e+03 1.382309e+09
1.182000e+03 1.406931e+09
1.183000e+03 1.412772e+09
1.184000e+03 1.423483e+09
1.185000e+03 1.440740e+09
1.186000e+03 1.356042e+09
1.187000e+03 1.490612e+09
1.188000e+03 1.428409e+09
1.189000e+03 6.504384e+07
1.190000e+03 2.860270e+08
1.191000e+03 1.517891e+09
1.192000e+03 1.546450e+09
1.193000e+03 6.178739e+07
1.194000e+03 7.397414e+07
1.195000e+03 1.171097e+09
1.196000e+03 1.575385e+09
1.197000e+03 2.214724e+09
1.198000e+03 2.064616e+09
1.199000e+03 2.176577e+09
1.200000e+03 1.863782e+09
1.201000e+03 2.049840e+09
1.202000e+03 1.956590e+09
1.203000e+03 2.417404e+09
1.204000e+03 1.973028e+09
1.205000e+03 2.043553e+09
1.206000e+03 1.839122e+09
1.207000e+03 3.770364e+08
1.208000e+03 1.440762e+09
1.209000e+03 1.113096e+09
1.210000e+03 1.026234e+08
1.211000e+03 6.757898e+08
1.212000e+03 4.518852e+08
1.213000e+03 2.876483e+08
1.214000e+03 1.708921e+08
1.215000e+03 1.092817e+08
1.216000e+03 9.992233e+07
1.217000e+03 1.512822e+08
1.218000e+03 2.620510e+08
1.219000e+03 4.440767e+08
1.220000e+03 6.858104e+08
1.221000e+03 9.956157e+08
1.222000e+03 1.333333e+09
1.223000e+03 1.705922e+09
1.224000e+03 2.102187e+09
1.225000e+03 2.269257e+09
1.226000e+03 2.899188e+09
1.227000e+03 3.277235e+09
1.228000e+03 3.484140e+09
1.229000e+03 4.023449e+09
1.230000e+03 4.288967e+09
1.231000e+03 4.398472e+09
1.232000e+03 5.256671e+09
1.233000e+03 5.621646e+09
1.234000e+03 3.614048e+09
1.235000e+03 6.253927e+09
1.236000e+03 5.702779e+09
1.237000e+03 6.884154e+09
1.238000e+03 7.019735e+09
1.239000e+03 7.288460e+09
1.240000e+03 6.856654e+09
1.241000e+03 1.163880e+10
1.242000e+03 6.524644e+09
1.243000e+03 1.032777e+10
1.244000e+03 4.060032e+09
1.245000e+03 6.095264e+09
1.246000e+03 1.848914e+10
1.247000e+03 1.861617e+10
1.248000e+03 4.290477e+09
1.249000e+03 5.558989e+09
1.250000e+03 2.215363e+10
1.251000e+03 2.425513e+10
1.252000e+03 2.328143e+10
1.253000e+03 2.554491e+10
1.254000e+03 2.424134e+10
1.255000e+03 2.710162e+10
1.256000e+03 2.550113e+10
1.257000e+03 2.809911e+10
1.258000e+03 2.296100e+10
1.259000e+03 2.645693e+10
1.260000e+03 2.410321e+10
1.261000e+03 2.246447e+08
1.262000e+03 2.546352e+09
1.263000e+03 3.093041e+10
1.264000e+03 2.433969e+10
1.265000e+03 2.313748e+08
1.266000e+03 3.149776e+10
1.267000e+03 2.919794e+10
