# wavelength_A flux
5.000000e+02 7.720314e-41
5.010000e+02 9.997704e-41
5.020000e+02 1.293455e-40
5.030000e+02 1.671707e-40
5.040000e+02 2.158462e-40
5.050000e+02 5.789633e-40
5.060000e+02 7.412448e-40
5.070000e+02 9.481578e-40
5.080000e+02 1.211808e-39
5.090000e+02 1.547289e-39
5.100000e+02 1.973877e-39
5.110000e+02 2.515806e-39
5.120000e+02 3.203749e-39
5.130000e+02 4.076285e-39
5.140000e+02 5.182175e-39
5.150000e+02 6.581864e-39
5.160000e+02 8.352620e-39
5.170000e+02 1.058706e-38
5.180000e+02 1.341636e-38
5.190000e+02 1.698201e-38
5.200000e+02 2.147824e-38
5.210000e+02 2.713888e-38
5.220000e+02 3.415156e-38
5.230000e+02 4.322054e-38
5.240000e+02 5.449020e-38
5.250000e+02 6.863039e-38
5.260000e+02 8.637244e-38
5.270000e+02 1.086060e-37
5.280000e+02 1.364514e-37
5.290000e+02 1.709583e-37
5.300000e+02 2.148673e-37
5.310000e+02 2.693264e-37
5.320000e+02 3.373017e-37
5.330000e+02 4.220944e-37
5.340000e+02 5.277768e-37
5.350000e+02 6.593903e-37
5.360000e+02 8.230325e-37
5.370000e+02 7.358869e-37
5.380000e+02 1.279734e-36
5.390000e+02 1.594624e-36
5.400000e+02 1.984863e-36
5.410000e+02 2.465851e-36
5.420000e+02 3.067701e-36
5.430000e+02 3.809919e-36
5.440000e+02 4.727772e-36
5.450000e+02 5.862423e-36
5.460000e+02 7.259549e-36
5.470000e+02 8.994128e-36
5.480000e+02 1.112816e-35
5.490000e+02 1.375873e-35
5.500000e+02 1.699863e-35
5.510000e+02 2.098631e-35
5.520000e+02 2.589081e-35
5.530000e+02 3.191891e-35
5.540000e+02 3.932271e-35
5.550000e+02 4.840964e-35
5.560000e+02 5.955467e-35
5.570000e+02 7.321544e-35
5.580000e+02 8.994610e-35
5.590000e+02 1.104234e-34
5.600000e+02 1.354693e-34
5.610000e+02 1.660815e-34
5.620000e+02 2.034737e-34
5.630000e+02 2.491154e-34
5.640000e+02 3.047896e-34
5.650000e+02 3.726613e-34
5.660000e+02 4.553364e-34
5.670000e+02 5.559821e-34
5.680000e+02 6.784260e-34
5.690000e+02 8.272856e-34
5.700000e+02 1.008153e-33
5.710000e+02 1.227762e-33
5.720000e+02 1.494237e-33
5.730000e+02 1.817401e-33
5.740000e+02 2.209005e-33
5.750000e+02 2.684366e-33
5.760000e+02 3.257735e-33
5.770000e+02 3.953113e-33
5.780000e+02 4.792664e-33
5.790000e+02 5.806848e-33
5.800000e+02 7.031206e-33
5.810000e+02 8.508399e-33
5.820000e+02 1.028892e-32
5.830000e+02 1.243132e-32
5.840000e+02 1.490812e-32
5.850000e+02 1.809996e-32
5.860000e+02 2.187115e-32
5.870000e+02 2.637451e-32
5.880000e+02 3.178230e-32
5.890000e+02 3.827413e-32
5.900000e+02 4.606415e-32
5.910000e+02 5.540637e-32
5.920000e+02 6.660334e-32
5.930000e+02 8.001659e-32
5.940000e+02 9.607457e-32
5.950000e+02 1.152877e-31
5.960000e+02 1.382649e-31
5.970000e+02 1.657238e-31
5.980000e+02 1.985215e-31
5.990000e+02 2.376725e-31
6.000000e+02 2.843845e-31
6.010000e+02 3.400843e-31
6.020000e+02 4.064643e-31
6.030000e+02 4.855362e-31
6.040000e+02 5.796559e-31
6.050000e+02 6.916369e-31
6.060000e+02 8.247913e-31
6.070000e+02 9.830332e-31
6.080000e+02 1.170999e-30
6.090000e+02 1.394145e-30
6.100000e+02 1.658933e-30
6.110000e+02 1.972915e-30
6.120000e+02 2.345065e-30
6.130000e+02 2.785910e-30
6.140000e+02 3.307854e-30
6.150000e+02 3.925505e-30
6.160000e+02 4.656018e-30
6.170000e+02 5.519641e-30
6.180000e+02 6.539918e-30
6.190000e+02 7.744754e-30
6.200000e+02 9.166741e-30
6.210000e+02 1.084425e-29
6.220000e+02 1.282214e-29
6.230000e+02 1.515319e-29
6.240000e+02 1.789863e-29
6.250000e+02 2.113081e-29
6.260000e+02 2.493396e-29
6.270000e+02 2.940662e-29
6.280000e+02 3.466436e-29
6.290000e+02 4.084164e-29
6.300000e+02 4.809573e-29
6.310000e+02 5.567126e-29
6.320000e+02 6.660001e-29
6.330000e+02 7.831329e-29
6.340000e+02 9.204212e-29
6.350000e+02 1.080698e-28
6.360000e+02 1.269562e-28
6.370000e+02 1.489951e-28
6.380000e+02 1.747758e-28
6.390000e+02 2.049191e-28
6.400000e+02 2.401470e-28
6.410000e+02 2.812976e-28
6.420000e+02 3.293442e-28
6.430000e+02 3.854159e-28
6.440000e+02 4.508232e-28
6.450000e+02 5.270861e-28
6.460000e+02 6.159628e-28
6.470000e+02 7.194925e-28
6.480000e+02 8.400364e-28
6.490000e+02 9.803265e-28
6.500000e+02 1.143525e-27
6.510000e+02 1.333288e-27
6.520000e+02 1.553837e-27
6.530000e+02 1.810054e-27
6.540000e+02 2.107574e-27
6.550000e+02 2.452912e-27
6.560000e+02 2.853558e-27
6.570000e+02 3.318153e-27
6.580000e+02 3.856735e-27
6.590000e+02 4.480738e-27
6.600000e+02 5.203436e-27
6.610000e+02 6.040068e-27
6.620000e+02 7.008184e-27
6.630000e+02 8.127964e-27
6.640000e+02 9.422645e-27
6.650000e+02 1.091885e-26
6.660000e+02 1.264725e-26
6.670000e+02 1.464303e-26
6.680000e+02 1.694661e-26
6.690000e+02 1.960430e-26
6.700000e+02 2.266933e-26
6.710000e+02 2.620263e-26
6.720000e+02 3.027407e-26
6.730000e+02 3.496367e-26
6.740000e+02 4.036323e-26
6.750000e+02 4.657745e-26
6.760000e+02 5.372640e-26
6.770000e+02 6.194743e-26
6.780000e+02 7.139737e-26
6.790000e+02 8.225585e-26
6.800000e+02 9.472770e-26
6.810000e+02 1.090470e-25
6.820000e+02 1.254808e-25
6.830000e+02 1.443345e-25
6.840000e+02 1.659548e-25
6.850000e+02 1.907390e-25
6.860000e+02 2.191384e-25
6.870000e+02 2.516676e-25
6.880000e+02 2.889138e-25
6.890000e+02 3.315398e-25
6.900000e+02 3.803184e-25
6.910000e+02 4.361006e-25
6.920000e+02 4.998750e-25
6.930000e+02 5.727561e-25
6.940000e+02 6.560151e-25
6.950000e+02 7.510930e-25
6.960000e+02 8.596263e-25
6.970000e+02 9.834394e-25
6.980000e+02 1.124751e-24
6.990000e+02 1.285843e-24
7.000000e+02 1.469468e-24
7.010000e+02 1.678691e-24
7.020000e+02 1.917004e-24
7.030000e+02 2.188345e-24
7.040000e+02 2.497190e-24
7.050000e+02 2.848583e-24
7.060000e+02 3.248258e-24
7.070000e+02 3.702680e-24
7.080000e+02 4.219165e-24
7.090000e+02 4.805996e-24
7.100000e+02 5.472494e-24
7.110000e+02 6.229220e-24
7.120000e+02 7.088086e-24
7.130000e+02 8.062528e-24
7.140000e+02 9.167749e-24
7.150000e+02 1.042085e-23
7.160000e+02 1.184113e-23
7.170000e+02 1.345039e-23
7.180000e+02 1.527293e-23
7.190000e+02 1.733682e-23
7.200000e+02 1.967275e-23
7.210000e+02 2.231583e-23
7.220000e+02 2.530541e-23
7.230000e+02 2.868591e-23
7.240000e+02 3.250709e-23
7.250000e+02 3.682508e-23
7.260000e+02 4.170264e-23
7.270000e+02 4.721061e-23
7.280000e+02 5.342843e-23
7.290000e+02 6.044529e-23
7.300000e+02 6.836099e-23
7.310000e+02 7.728867e-23
7.320000e+02 8.735367e-23
7.330000e+02 9.869774e-23
7.340000e+02 1.114787e-22
7.350000e+02 1.258744e-22
7.360000e+02 1.420824e-22
7.370000e+02 1.603295e-22
7.380000e+02 1.808605e-22
7.390000e+02 2.039564e-22
7.400000e+02 2.299293e-22
7.410000e+02 2.591288e-22
7.420000e+02 2.919450e-22
7.430000e+02 3.288148e-22
7.440000e+02 3.702262e-22
7.450000e+02 4.167246e-22
7.460000e+02 4.689187e-22
7.470000e+02 5.274885e-22
7.480000e+02 5.931936e-22
7.490000e+02 6.668803e-22
7.500000e+02 7.494934e-22
7.510000e+02 8.420867e-22
7.520000e+02 9.458354e-22
7.530000e+02 1.062048e-21
7.540000e+02 1.192185e-21
7.550000e+02 1.337871e-21
7.560000e+02 1.500918e-21
7.570000e+02 1.683338e-21
7.580000e+02 1.887377e-21
7.590000e+02 2.115528e-21
7.600000e+02 2.370573e-21
7.610000e+02 2.655593e-21
7.620000e+02 2.974023e-21
7.630000e+02 3.329676e-21
7.640000e+02 3.726794e-21
7.650000e+02 4.170081e-21
7.660000e+02 4.664772e-21
7.670000e+02 5.216667e-21
7.680000e+02 5.832197e-21
7.690000e+02 6.518495e-21
7.700000e+02 7.283643e-21
7.710000e+02 8.136245e-21
7.720000e+02 9.086136e-21
7.730000e+02 1.014411e-20
7.740000e+02 1.132214e-20
7.750000e+02 1.263351e-20
7.760000e+02 1.409284e-20
7.770000e+02 1.571660e-20
7.780000e+02 1.752262e-20
7.790000e+02 1.953087e-20
7.800000e+02 2.176343e-20
7.810000e+02 2.424468e-20
7.820000e+02 2.700158e-20
7.830000e+02 3.006398e-20
7.840000e+02 3.346480e-20
7.850000e+02 3.724047e-20
7.860000e+02 4.143120e-20
7.870000e+02 4.608260e-20
7.880000e+02 5.124145e-20
7.890000e+02 5.696299e-20
7.900000e+02 6.330684e-20
7.910000e+02 7.033928e-20
7.920000e+02 7.813262e-20
7.930000e+02 8.676714e-20
7.940000e+02 9.633127e-20
7.950000e+02 1.069223e-19
7.960000e+02 1.186477e-19
7.970000e+02 1.316255e-19
7.980000e+02 1.459860e-19
7.990000e+02 1.618727e-19
8.000000e+02 1.794434e-19
8.010000e+02 1.988716e-19
8.020000e+02 2.203487e-19
8.030000e+02 2.440847e-19
8.040000e+02 2.703110e-19
8.050000e+02 2.992817e-19
8.060000e+02 3.312762e-19
8.070000e+02 3.666019e-19
8.080000e+02 4.055957e-19
8.090000e+02 4.486283e-19
8.100000e+02 4.961069e-19
8.110000e+02 5.484785e-19
8.120000e+02 6.062332e-19
8.130000e+02 6.699105e-19
8.140000e+02 7.400997e-19
8.150000e+02 8.174498e-19
8.160000e+02 9.026703e-19
8.170000e+02 9.965404e-19
8.180000e+02 1.099916e-18
8.190000e+02 1.213730e-18
8.200000e+02 1.339010e-18
8.210000e+02 1.476878e-18
8.220000e+02 1.628566e-18
8.230000e+02 1.795421e-18
8.240000e+02 1.978916e-18
8.250000e+02 2.180669e-18
8.260000e+02 2.402441e-18
8.270000e+02 2.646167e-18
8.280000e+02 2.913960e-18
8.290000e+02 3.208130e-18
8.300000e+02 3.531205e-18
8.310000e+02 3.885944e-18
8.320000e+02 4.275367e-18
8.330000e+02 4.702773e-18
8.340000e+02 5.171761e-18
8.350000e+02 5.681047e-18
8.360000e+02 6.250484e-18
8.370000e+02 6.869391e-18
8.380000e+02 7.547822e-18
8.390000e+02 8.291451e-18
8.400000e+02 9.106366e-18
8.410000e+02 9.999210e-18
8.420000e+02 1.097692e-17
8.430000e+02 1.204834e-17
8.440000e+02 1.322113e-17
8.450000e+02 1.450500e-17
8.460000e+02 1.591016e-17
8.470000e+02 1.744775e-17
8.480000e+02 1.912990e-17
8.490000e+02 2.096983e-17
8.500000e+02 2.298190e-17
8.510000e+02 2.518178e-17
8.520000e+02 2.758650e-17
8.530000e+02 3.021461e-17
8.540000e+02 3.308639e-17
8.550000e+02 3.622354e-17
8.560000e+02 3.965000e-17
8.570000e+02 4.339168e-17
8.580000e+02 4.744683e-17
8.590000e+02 5.193601e-17
8.600000e+02 5.680250e-17
8.610000e+02 6.211245e-17
8.620000e+02 6.790517e-17
8.630000e+02 7.422327e-17
8.640000e+02 8.111304e-17
8.650000e+02 8.862474e-17
8.660000e+02 9.681291e-17
8.670000e+02 1.057367e-16
8.680000e+02 1.154603e-16
8.690000e+02 1.260533e-16
8.700000e+02 1.375908e-16
8.710000e+02 1.501561e-16
8.720000e+02 1.638365e-16
8.730000e+02 1.787287e-16
8.740000e+02 1.949370e-16
8.750000e+02 2.125742e-16
8.760000e+02 2.317627e-16
8.770000e+02 2.526351e-16
8.780000e+02 2.753344e-16
8.790000e+02 3.000172e-16
8.800000e+02 3.268505e-16
8.810000e+02 3.560165e-16
8.820000e+02 3.877123e-16
8.830000e+02 4.221504e-16
8.840000e+02 4.595626e-16
8.850000e+02 5.001969e-16
8.860000e+02 5.443231e-16
8.870000e+02 5.922325e-16
8.880000e+02 6.442400e-16
8.890000e+02 7.006860e-16
8.900000e+02 7.619380e-16
8.910000e+02 8.283935e-16
8.920000e+02 9.002692e-16
8.930000e+02 9.786650e-16
8.940000e+02 1.063445e-15
8.950000e+02 1.155361e-15
8.960000e+02 1.254996e-15
8.970000e+02 1.362980e-15
8.980000e+02 1.479992e-15
8.990000e+02 1.606763e-15
9.000000e+02 1.744084e-15
9.010000e+02 1.892806e-15
9.020000e+02 2.053849e-15
9.030000e+02 2.228203e-15
9.040000e+02 2.416935e-15
9.050000e+02 2.621180e-15
9.060000e+02 2.842226e-15
9.070000e+02 3.081347e-15
9.080000e+02 3.340037e-15
9.090000e+02 3.619807e-15
9.100000e+02 3.922338e-15
9.110000e+02 4.249465e-15
9.120000e+02 4.603508e-15
9.130000e+02 4.772384e-15
9.140000e+02 0.000000e+00
9.150000e+02 2.864488e-06
9.160000e+02 3.159521e-06
9.170000e+02 3.308225e-06
9.180000e+02 3.459572e-06
9.190000e+02 3.628028e-06
9.200000e+02 3.798529e-06
9.210000e+02 9.742207e-15
9.220000e+02 4.151539e-06
9.230000e+02 4.298865e-06
9.240000e+02 4.171466e-06
9.250000e+02 4.632256e-06
9.260000e+02 4.988048e-06
9.270000e+02 5.266968e-06
9.280000e+02 5.549059e-06
9.290000e+02 4.320341e-06
9.300000e+02 5.664747e-06
9.310000e+02 6.052300e-06
9.320000e+02 6.647973e-06
9.330000e+02 6.872362e-06
9.340000e+02 7.168476e-06
9.350000e+02 2.683009e-11
9.360000e+02 7.678870e-06
9.370000e+02 2.000000e-11
9.380000e+02 1.878550e-07
9.390000e+02 8.919115e-06
9.400000e+02 9.339070e-06
9.410000e+02 9.410278e-07
9.420000e+02 1.021414e-05
9.430000e+02 1.063105e-05
9.440000e+02 1.013851e-05
9.450000e+02 1.161173e-05
9.460000e+02 1.211997e-05
9.470000e+02 1.247234e-05
9.480000e+02 1.338342e-05
9.490000e+02 1.343236e-05
9.500000e+02 4.761205e-09
9.510000e+02 1.427968e-05
9.520000e+02 1.615856e-05
9.530000e+02 1.649231e-05
9.540000e+02 6.429521e-06
9.550000e+02 1.848277e-05
9.560000e+02 1.982111e-05
9.570000e+02 4.978938e-08
9.580000e+02 1.489650e-05
9.590000e+02 2.276259e-05
9.600000e+02 8.549250e-11
9.610000e+02 2.465652e-05
9.620000e+02 2.573002e-05
9.630000e+02 2.652869e-05
9.640000e+02 3.765308e-10
9.650000e+02 1.766419e-05
9.660000e+02 3.043087e-05
9.670000e+02 3.132128e-05
9.680000e+02 3.162812e-05
9.690000e+02 3.457739e-05
9.700000e+02 3.641805e-05
9.710000e+02 3.575419e-05
9.720000e+02 2.156125e-05
9.730000e+02 1.935322e-05
9.740000e+02 4.082134e-05
9.750000e+02 4.517781e-05
9.760000e+02 4.797672e-05
9.770000e+02 5.036130e-05
9.780000e+02 5.254478e-05
9.790000e+02 5.515560e-05
9.800000e+02 5.758306e-05
9.810000e+02 6.004945e-05
9.820000e+02 6.196585e-05
9.830000e+02 6.545935e-05
9.840000e+02 6.561277e-08
9.850000e+02 7.060525e-05
9.860000e+02 7.400849e-05
9.870000e+02 7.644798e-05
9.880000e+02 7.947932e-05
9.890000e+02 4.819158e-05
9.900000e+02 3.725421e-08
9.910000e+02 6.619759e-05
9.920000e+02 6.144232e-05
9.930000e+02 9.513109e-05
9.940000e+02 4.365575e-11
9.950000e+02 8.866846e-08
9.960000e+02 1.113623e-04
9.970000e+02 3.286063e-06
9.980000e+02 1.393128e-04
9.990000e+02 2.886214e-05
1.000000e+03 1.358563e-04
1.001000e+03 1.404121e-04
1.002000e+03 1.474604e-04
1.003000e+03 1.432096e-04
1.004000e+03 1.603949e-04
1.005000e+03 1.627772e-04
1.006000e+03 1.779488e-04
1.007000e+03 1.814311e-04
1.008000e+03 1.887349e-04
1.009000e+03 1.882742e-04
1.010000e+03 2.046811e-04
1.011000e+03 2.129293e-04
1.012000e+03 2.215591e-04
1.013000e+03 2.304383e-04
1.014000e+03 1.450253e-04
1.015000e+03 2.396072e-04
1.016000e+03 2.542422e-04
1.017000e+03 9.916481e-05
1.018000e+03 2.692036e-04
1.019000e+03 2.824928e-04
1.020000e+03 2.937095e-04
1.021000e+03 1.209676e-04
1.022000e+03 1.830956e-04
1.023000e+03 2.685386e-04
1.024000e+03 2.052954e-04
1.025000e+03 5.129475e-06
1.026000e+03 9.640671e-08
1.027000e+03 1.513992e-04
1.028000e+03 2.706656e-09
1.029000e+03 1.822123e-04
1.030000e+03 4.113537e-04
1.031000e+03 4.466301e-04
1.032000e+03 4.814460e-04
1.033000e+03 4.161848e-08
1.034000e+03 5.195491e-04
1.035000e+03 1.804437e-09
1.036000e+03 3.964136e-04
1.037000e+03 5.940795e-04
1.038000e+03 6.200604e-04
1.039000e+03 6.658859e-04
1.040000e+03 6.930763e-04
1.041000e+03 7.183294e-04
1.042000e+03 7.501405e-04
1.043000e+03 6.558228e-04
1.044000e+03 8.131298e-04
1.045000e+03 8.446433e-04
1.046000e+03 8.799310e-04
1.047000e+03 9.126588e-04
1.048000e+03 7.280188e-04
1.049000e+03 9.502012e-04
1.050000e+03 9.765283e-04
1.051000e+03 1.006820e-03
1.052000e+03 1.073518e-03
1.053000e+03 1.114097e-03
1.054000e+03 5.900949e-04
1.055000e+03 1.227389e-03
1.056000e+03 1.296828e-03
1.057000e+03 1.342977e-03
1.058000e+03 1.360082e-03
1.059000e+03 1.758036e-03
1.060000e+03 1.425646e-03
1.061000e+03 1.566966e-03
1.062000e+03 1.548892e-03
1.063000e+03 1.327679e-03
1.064000e+03 1.629815e-09
1.065000e+03 9.703215e-04
1.066000e+03 1.867101e-03
1.067000e+03 1.822609e-03
1.068000e+03 1.993811e-03
1.069000e+03 1.999829e-03
1.070000e+03 2.178280e-03
1.071000e+03 2.276729e-03
1.072000e+03 2.363896e-03
1.073000e+03 2.141583e-03
1.074000e+03 2.537781e-03
1.075000e+03 2.603799e-03
1.076000e+03 2.684057e-03
1.077000e+03 6.437767e-07
1.078000e+03 2.807117e-03
1.079000e+03 2.973339e-03
1.080000e+03 3.539989e-03
1.081000e+03 3.270221e-03
1.082000e+03 3.354064e-03
1.083000e+03 3.444205e-03
1.084000e+03 3.622290e-03
1.085000e+03 3.750695e-03
1.086000e+03 3.903870e-03
1.087000e+03 3.828535e-03
1.088000e+03 4.070219e-03
1.089000e+03 4.319771e-03
1.090000e+03 4.383484e-03
1.091000e+03 4.518454e-03
1.092000e+03 4.668146e-03
1.093000e+03 4.899429e-03
1.094000e+03 5.067287e-03
1.095000e+03 5.265586e-03
1.096000e+03 2.511054e-03
1.097000e+03 5.384268e-03
1.098000e+03 5.696951e-03
1.099000e+03 5.943923e-03
1.100000e+03 5.598076e-03
1.101000e+03 5.087168e-03
1.102000e+03 1.866151e-02
1.103000e+03 7.974582e-02
1.104000e+03 1.683086e-02
1.105000e+03 7.454813e-03
1.106000e+03 1.837230e-01
1.107000e+03 1.294597e-01
1.108000e+03 1.907250e-01
1.109000e+03 1.773300e-01
1.110000e+03 7.829650e-02
1.111000e+03 2.041386e-02
1.112000e+03 1.911574e-01
1.113000e+03 1.701493e-01
1.114000e+03 6.830126e-03
1.115000e+03 1.715257e-01
1.116000e+03 1.946809e-01
1.117000e+03 3.839985e-03
1.118000e+03 2.022196e-01
1.119000e+03 2.150958e-01
1.120000e+03 2.042338e-01
1.121000e+03 2.076044e-01
1.122000e+03 7.677823e-04
1.123000e+03 6.930965e-02
1.124000e+03 2.275701e-01
1.125000e+03 1.982615e-01
1.126000e+03 2.344434e-01
1.127000e+03 2.174690e-01
1.128000e+03 5.257245e-02
1.129000e+03 2.371996e-01
1.130000e+03 2.377558e-01
1.131000e+03 2.621849e-01
1.132000e+03 3.443062e-04
1.133000e+03 2.508408e-01
1.134000e+03 2.413575e-01
1.135000e+03 1.417130e-03
1.136000e+03 2.627816e-01
1.137000e+03 2.679399e-01
1.138000e+03 2.715352e-01
1.139000e+03 2.677600e-01
1.140000e+03 2.680957e-03
1.141000e+03 2.823128e-01
1.142000e+03 2.857006e-01
1.143000e+03 2.828358e-01
1.144000e+03 2.926006e-01
1.145000e+03 1.538104e-01
1.146000e+03 3.003669e-01
1.147000e+03 2.918450e-01
1.148000e+03 2.892072e-01
1.149000e+03 3.092476e-01
1.150000e+03 3.126503e-01
1.151000e+03 3.121760e-01
1.152000e+03 3.229832e-01
1.153000e+03 2.379262e-01
1.154000e+03 2.811641e-01
1.155000e+03 3.340755e-01
1.156000e+03 2.753104e-01
1.157000e+03 3.226428e-01
1.158000e+03 2.691762e-02
1.159000e+03 3.042519e-01
1.160000e+03 3.527122e-01
1.161000e+03 3.569703e-01
1.162000e+03 6.510112e-02
1.163000e+03 3.621579e-01
1.164000e+03 3.844500e-06
1.165000e+03 3.751958e-01
1.166000e+03 3.836900e-01
1.167000e+03 3.916318e-01
1.168000e+03 4.018072e-01
1.169000e+03 3.823881e-01
1.170000e+03 4.197292e-01
1.171000e+03 4.297757e-01
1.172000e+03 4.376180e-01
1.173000e+03 4.473757e-01
1.174000e+03 4.192851e-01
1.175000e+03 2.026558e-06
1.176000e+03 4.768372e-07
1.177000e+03 4.836491e-01
1.178000e+03 4.919293e-01
1.179000e+03 5.009454e-01
1.180000e+03 4.255687e-01
1.181000e+03 5.188504e-01
1.182000e+03 5.355948e-01
1.183000e+03 5.427684e-01
1.184000e+03 5.498127e-01
1.185000e+03 5.560143e-01
1.186000e+03 5.479754e-01
1.187000e+03 5.680541e-01
1.188000e+03 5.573158e-01
1.189000e+03 8.339942e-03
1.190000e+03 3.747995e-01
1.191000e+03 5.558276e-01
1.192000e+03 5.542119e-01
1.193000e+03 6.176919e-03
1.194000e+03 8.658856e-03
1.195000e+03 4.346167e-01
1.196000e+03 5.247733e-01
1.197000e+03 2.384398e+00
1.198000e+03 2.257734e+00
1.199000e+03 2.023230e+00
1.200000e+03 1.417392e+00
1.201000e+03 1.550617e+00
1.202000e+03 1.433931e+00
1.203000e+03 3.225689e+00
1.204000e+03 2.367521e+00
1.205000e+03 1.667633e+00
1.206000e+03 1.410331e+00
1.207000e+03 1.794100e-03
1.208000e+03 4.185295e-01
1.209000e+03 1.730608e-01
1.210000e+03 3.464520e-06
1.211000e+03 2.211598e-02
1.212000e+03 5.479008e-03
1.213000e+03 1.320093e-03
1.214000e+03 2.355702e-04
1.215000e+03 1.274120e-05
1.216000e+03 2.215185e-06
1.217000e+03 1.183212e-04
1.218000e+03 9.123212e-04
1.219000e+03 3.969464e-03
1.220000e+03 1.814349e-02
1.221000e+03 6.381743e-02
1.222000e+03 1.854667e-01
1.223000e+03 4.485436e-01
1.224000e+03 7.381340e-01
1.225000e+03 1.707681e+00
1.226000e+03 2.918955e+00
1.227000e+03 4.374118e+00
1.228000e+03 6.669043e+00
1.229000e+03 9.313569e+00
1.230000e+03 1.237562e+01
1.231000e+03 1.489097e+01
1.232000e+03 2.015951e+01
1.233000e+03 2.463822e+01
1.234000e+03 6.699099e+00
1.235000e+03 3.487146e+01
1.236000e+03 4.017801e+01
1.237000e+03 4.625421e+01
1.238000e+03 5.243636e+01
1.239000e+03 5.866714e+01
1.240000e+03 4.404406e+01
1.241000e+03 8.898102e+01
1.242000e+03 6.228660e+01
1.243000e+03 1.021743e+02
1.244000e+03 4.796485e+01
1.245000e+03 7.075031e+01
1.246000e+03 1.704797e+02
1.247000e+03 1.796420e+02
1.248000e+03 4.870170e+01
1.249000e+03 8.689327e+01
1.250000e+03 1.854683e+02
1.251000e+03 2.487731e+02
1.252000e+03 2.607490e+02
1.253000e+03 2.810456e+02
1.254000e+03 2.958381e+02
1.255000e+03 3.161776e+02
1.256000e+03 3.262357e+02
1.257000e+03 2.711926e+02
1.258000e+03 3.601215e+02
1.259000e+03 3.542182e+02
1.260000e+03 2.193587e+02
1.261000e+03 8.456230e-03
1.262000e+03 3.573138e+01
1.263000e+03 4.080967e+02
1.264000e+03 3.326684e+02
1.265000e+03 2.710342e-03
1.266000e+03 4.501602e+02
1.267000e+03 5.110661e+02
