# wavelength_A flux
5.000000e+02 5.592243e-15
5.010000e+02 6.544121e-15
5.020000e+02 7.653067e-15
5.030000e+02 8.944175e-15
5.040000e+02 1.044641e-14
5.050000e+02 1.192212e-14
5.060000e+02 1.391016e-14
5.070000e+02 1.621947e-14
5.080000e+02 1.890030e-14
5.090000e+02 2.201051e-14
5.100000e+02 2.561665e-14
5.110000e+02 2.979523e-14
5.120000e+02 3.463421e-14
5.130000e+02 4.023458e-14
5.140000e+02 4.671225e-14
5.150000e+02 5.420076e-14
5.160000e+02 6.285087e-14
5.170000e+02 7.284204e-14
5.180000e+02 8.436436e-14
5.190000e+02 9.765612e-14
5.200000e+02 1.129760e-13
5.210000e+02 1.306237e-13
5.220000e+02 1.509572e-13
5.230000e+02 1.743181e-13
5.240000e+02 2.012004e-13
5.250000e+02 2.320953e-13
5.260000e+02 2.675850e-13
5.270000e+02 3.083286e-13
5.280000e+02 3.550780e-13
5.290000e+02 4.087872e-13
5.300000e+02 4.701356e-13
5.310000e+02 5.405243e-13
5.320000e+02 6.211132e-13
5.330000e+02 7.133311e-13
5.340000e+02 8.188001e-13
5.350000e+02 9.393610e-13
5.360000e+02 1.077106e-12
5.370000e+02 1.247423e-12
5.380000e+02 1.413913e-12
5.390000e+02 1.618638e-12
5.400000e+02 1.852081e-12
5.410000e+02 2.118298e-12
5.420000e+02 2.421104e-12
5.430000e+02 2.765983e-12
5.440000e+02 3.158415e-12
5.450000e+02 3.604701e-12
5.460000e+02 4.112709e-12
5.470000e+02 4.688296e-12
5.480000e+02 5.342735e-12
5.490000e+02 6.085506e-12
5.500000e+02 6.928137e-12
5.510000e+02 7.883584e-12
5.520000e+02 8.966433e-12
5.530000e+02 1.019308e-11
5.540000e+02 1.158197e-11
5.550000e+02 1.315381e-11
5.560000e+02 1.493186e-11
5.570000e+02 1.694224e-11
5.580000e+02 1.921425e-11
5.590000e+02 2.178074e-11
5.600000e+02 2.467855e-11
5.610000e+02 2.794895e-11
5.620000e+02 3.163817e-11
5.630000e+02 3.579797e-11
5.640000e+02 4.048625e-11
5.650000e+02 4.576781e-11
5.660000e+02 5.171501e-11
5.670000e+02 5.840886e-11
5.680000e+02 6.593973e-11
5.690000e+02 7.440859e-11
5.700000e+02 8.392815e-11
5.710000e+02 9.462400e-11
5.720000e+02 1.066364e-10
5.730000e+02 1.201217e-10
5.740000e+02 1.352540e-10
5.750000e+02 1.522252e-10
5.760000e+02 1.712651e-10
5.770000e+02 1.925818e-10
5.780000e+02 2.164730e-10
5.790000e+02 2.432259e-10
5.800000e+02 2.731708e-10
5.810000e+02 3.066750e-10
5.820000e+02 3.441465e-10
5.830000e+02 3.860405e-10
5.840000e+02 4.329468e-10
5.850000e+02 4.851650e-10
5.860000e+02 5.435291e-10
5.870000e+02 6.086950e-10
5.880000e+02 6.814034e-10
5.890000e+02 7.624984e-10
5.900000e+02 8.528950e-10
5.910000e+02 9.536384e-10
5.920000e+02 1.065863e-09
5.930000e+02 1.190829e-09
5.940000e+02 1.329929e-09
5.950000e+02 1.484703e-09
5.960000e+02 1.656852e-09
5.970000e+02 1.848253e-09
5.980000e+02 2.060980e-09
5.990000e+02 2.297322e-09
6.000000e+02 2.559800e-09
6.010000e+02 2.851213e-09
6.020000e+02 3.174582e-09
6.030000e+02 3.533333e-09
6.040000e+02 3.931174e-09
6.050000e+02 4.372202e-09
6.060000e+02 4.860937e-09
6.070000e+02 5.402324e-09
6.080000e+02 6.001843e-09
6.090000e+02 6.665493e-09
6.100000e+02 7.399873e-09
6.110000e+02 8.212234e-09
6.120000e+02 9.110544e-09
6.130000e+02 1.010355e-08
6.140000e+02 1.120085e-08
6.150000e+02 1.241299e-08
6.160000e+02 1.375152e-08
6.170000e+02 1.522912e-08
6.180000e+02 1.685968e-08
6.190000e+02 1.865842e-08
6.200000e+02 2.064203e-08
6.210000e+02 2.282877e-08
6.220000e+02 2.523865e-08
6.230000e+02 2.789355e-08
6.240000e+02 3.081742e-08
6.250000e+02 3.403645e-08
6.260000e+02 3.757928e-08
6.270000e+02 4.147721e-08
6.280000e+02 4.576444e-08
6.290000e+02 5.047836e-08
6.300000e+02 5.565975e-08
6.310000e+02 6.137392e-08
6.320000e+02 6.760720e-08
6.330000e+02 7.447532e-08
6.340000e+02 8.201415e-08
6.350000e+02 9.028871e-08
6.360000e+02 9.936561e-08
6.370000e+02 1.093206e-07
6.380000e+02 1.202359e-07
6.390000e+02 1.321999e-07
6.400000e+02 1.453095e-07
6.410000e+02 1.596699e-07
6.420000e+02 1.753957e-07
6.430000e+02 1.926116e-07
6.440000e+02 2.114530e-07
6.450000e+02 2.320675e-07
6.460000e+02 2.546151e-07
6.470000e+02 2.792698e-07
6.480000e+02 3.062206e-07
6.490000e+02 3.356728e-07
6.500000e+02 3.678493e-07
6.510000e+02 4.029913e-07
6.520000e+02 4.413618e-07
6.530000e+02 4.832451e-07
6.540000e+02 5.289497e-07
6.550000e+02 5.788100e-07
6.560000e+02 6.331887e-07
6.570000e+02 6.924845e-07
6.580000e+02 7.571047e-07
6.590000e+02 8.275281e-07
6.600000e+02 9.042475e-07
6.610000e+02 9.878022e-07
6.620000e+02 1.078777e-06
6.630000e+02 1.177803e-06
6.640000e+02 1.285563e-06
6.650000e+02 1.402797e-06
6.660000e+02 1.530302e-06
6.670000e+02 1.668941e-06
6.680000e+02 1.819647e-06
6.690000e+02 1.983425e-06
6.700000e+02 2.161363e-06
6.710000e+02 2.354634e-06
6.720000e+02 2.564504e-06
6.730000e+02 2.792338e-06
6.740000e+02 3.039611e-06
6.750000e+02 3.307911e-06
6.760000e+02 3.598951e-06
6.770000e+02 3.914578e-06
6.780000e+02 4.256781e-06
6.790000e+02 4.627704e-06
6.800000e+02 5.029654e-06
6.810000e+02 5.465119e-06
6.820000e+02 5.936773e-06
6.830000e+02 6.447496e-06
6.840000e+02 7.000388e-06
6.850000e+02 7.598783e-06
6.860000e+02 8.246263e-06
6.870000e+02 8.946688e-06
6.880000e+02 9.704196e-06
6.890000e+02 1.052324e-05
6.900000e+02 1.140862e-05
6.910000e+02 1.236545e-05
6.920000e+02 1.339927e-05
6.930000e+02 1.451600e-05
6.940000e+02 1.572201e-05
6.950000e+02 1.702412e-05
6.960000e+02 1.842966e-05
6.970000e+02 1.994664e-05
6.980000e+02 2.158303e-05
6.990000e+02 2.334833e-05
7.000000e+02 2.525207e-05
7.010000e+02 2.730465e-05
7.020000e+02 2.951718e-05
7.030000e+02 3.190159e-05
7.040000e+02 3.447064e-05
7.050000e+02 3.723801e-05
7.060000e+02 4.021833e-05
7.070000e+02 4.342727e-05
7.080000e+02 4.688159e-05
7.090000e+02 5.059924e-05
7.100000e+02 5.459936e-05
7.110000e+02 5.890252e-05
7.120000e+02 6.353064e-05
7.130000e+02 6.850716e-05
7.140000e+02 7.385716e-05
7.150000e+02 7.960741e-05
7.160000e+02 8.578652e-05
7.170000e+02 9.242515e-05
7.180000e+02 9.955617e-05
7.190000e+02 1.072130e-04
7.200000e+02 1.154346e-04
7.210000e+02 1.242598e-04
7.220000e+02 1.337312e-04
7.230000e+02 1.438938e-04
7.240000e+02 1.547958e-04
7.250000e+02 1.664887e-04
7.260000e+02 1.790271e-04
7.270000e+02 1.924695e-04
7.280000e+02 2.068780e-04
7.290000e+02 2.223191e-04
7.300000e+02 2.388631e-04
7.310000e+02 2.565855e-04
7.320000e+02 2.755661e-04
7.330000e+02 2.958904e-04
7.340000e+02 3.176491e-04
7.350000e+02 3.409388e-04
7.360000e+02 3.658623e-04
7.370000e+02 3.925286e-04
7.380000e+02 4.210544e-04
7.390000e+02 4.515632e-04
7.400000e+02 4.841868e-04
7.410000e+02 5.190642e-04
7.420000e+02 5.563449e-04
7.430000e+02 5.961859e-04
7.440000e+02 6.387554e-04
7.450000e+02 6.842316e-04
7.460000e+02 7.328035e-04
7.470000e+02 7.846721e-04
7.480000e+02 8.400506e-04
7.490000e+02 8.991656e-04
7.500000e+02 9.622572e-04
7.510000e+02 1.029580e-03
7.520000e+02 1.101406e-03
7.530000e+02 1.178020e-03
7.540000e+02 1.259727e-03
7.550000e+02 1.346851e-03
7.560000e+02 1.439732e-03
7.570000e+02 1.538737e-03
7.580000e+02 1.644239e-03
7.590000e+02 1.756658e-03
7.600000e+02 1.876416e-03
7.610000e+02 2.003976e-03
7.620000e+02 2.139818e-03
7.630000e+02 2.284457e-03
7.640000e+02 2.438433e-03
7.650000e+02 2.602320e-03
7.660000e+02 2.776727e-03
7.670000e+02 2.962295e-03
7.680000e+02 3.159712e-03
7.690000e+02 3.369677e-03
7.700000e+02 3.592969e-03
7.710000e+02 3.830388e-03
7.720000e+02 4.082783e-03
7.730000e+02 4.351053e-03
7.740000e+02 4.636149e-03
7.750000e+02 4.939074e-03
7.760000e+02 5.260960e-03
7.770000e+02 5.602716e-03
7.780000e+02 5.965735e-03
7.790000e+02 6.351200e-03
7.800000e+02 6.760428e-03
7.810000e+02 7.194812e-03
7.820000e+02 7.655825e-03
7.830000e+02 8.145017e-03
7.840000e+02 8.664026e-03
7.850000e+02 9.214580e-03
7.860000e+02 9.798503e-03
7.870000e+02 1.041770e-02
7.880000e+02 1.107423e-02
7.890000e+02 1.177022e-02
7.900000e+02 1.250791e-02
7.910000e+02 1.328968e-02
7.920000e+02 1.411804e-02
7.930000e+02 1.499563e-02
7.940000e+02 1.592521e-02
7.950000e+02 1.690973e-02
7.960000e+02 1.795226e-02
7.970000e+02 1.905605e-02
7.980000e+02 2.022452e-02
7.990000e+02 2.146127e-02
8.000000e+02 2.277009e-02
8.010000e+02 2.415497e-02
8.020000e+02 2.562009e-02
8.030000e+02 2.716988e-02
8.040000e+02 2.880899e-02
8.050000e+02 3.054229e-02
8.060000e+02 3.237493e-02
8.070000e+02 3.431232e-02
8.080000e+02 3.636011e-02
8.090000e+02 3.852431e-02
8.100000e+02 4.081118e-02
8.110000e+02 4.322732e-02
8.120000e+02 4.577966e-02
8.130000e+02 4.847549e-02
8.140000e+02 5.132245e-02
8.150000e+02 5.432861e-02
8.160000e+02 5.750236e-02
8.170000e+02 6.085259e-02
8.180000e+02 6.438863e-02
8.190000e+02 6.812021e-02
8.200000e+02 7.205761e-02
8.210000e+02 7.621159e-02
8.220000e+02 8.059344e-02
8.230000e+02 8.521501e-02
8.240000e+02 9.008873e-02
8.250000e+02 9.522763e-02
8.260000e+02 1.006454e-01
8.270000e+02 1.063564e-01
8.280000e+02 1.123756e-01
8.290000e+02 1.187189e-01
8.300000e+02 1.254026e-01
8.310000e+02 1.324442e-01
8.320000e+02 1.398619e-01
8.330000e+02 1.476745e-01
8.340000e+02 1.559021e-01
8.350000e+02 1.645711e-01
8.360000e+02 1.736871e-01
8.370000e+02 1.832884e-01
8.380000e+02 1.933947e-01
8.390000e+02 2.040306e-01
8.400000e+02 2.152225e-01
8.410000e+02 2.269979e-01
8.420000e+02 2.393872e-01
8.430000e+02 2.524153e-01
8.440000e+02 2.661192e-01
8.450000e+02 2.805300e-01
8.460000e+02 2.956821e-01
8.470000e+02 3.116118e-01
8.480000e+02 3.283567e-01
8.490000e+02 3.459563e-01
8.500000e+02 3.644518e-01
8.510000e+02 3.838865e-01
8.520000e+02 4.043056e-01
8.530000e+02 4.257558e-01
8.540000e+02 4.482862e-01
8.550000e+02 4.719492e-01
8.560000e+02 4.967982e-01
8.570000e+02 5.228893e-01
8.580000e+02 5.502812e-01
8.590000e+02 5.790352e-01
8.600000e+02 6.092153e-01
8.610000e+02 6.408885e-01
8.620000e+02 6.741244e-01
8.630000e+02 7.089961e-01
8.640000e+02 7.455794e-01
8.650000e+02 7.839540e-01
8.660000e+02 8.242024e-01
8.670000e+02 8.664113e-01
8.680000e+02 9.106709e-01
8.690000e+02 9.570752e-01
8.700000e+02 1.005723e+00
8.710000e+02 1.056715e+00
8.720000e+02 1.110160e+00
8.730000e+02 1.166168e+00
8.740000e+02 1.224856e+00
8.750000e+02 1.286344e+00
8.760000e+02 1.350759e+00
8.770000e+02 1.418233e+00
8.780000e+02 1.488901e+00
8.790000e+02 1.562908e+00
8.800000e+02 1.640401e+00
8.810000e+02 1.721537e+00
8.820000e+02 1.806476e+00
8.830000e+02 1.895387e+00
8.840000e+02 1.988445e+00
8.850000e+02 2.085832e+00
8.860000e+02 2.187738e+00
8.870000e+02 2.294362e+00
8.880000e+02 2.405909e+00
8.890000e+02 2.522594e+00
8.900000e+02 2.644639e+00
8.910000e+02 2.772277e+00
8.920000e+02 2.907035e+00
8.930000e+02 3.045309e+00
8.940000e+02 3.191215e+00
8.950000e+02 3.343741e+00
8.960000e+02 3.503170e+00
8.970000e+02 3.669796e+00
8.980000e+02 3.843926e+00
8.990000e+02 4.025878e+00
9.000000e+02 4.215982e+00
9.010000e+02 4.414584e+00
9.020000e+02 4.622041e+00
9.030000e+02 4.838725e+00
9.040000e+02 5.065022e+00
9.050000e+02 5.301334e+00
9.060000e+02 5.548078e+00
9.070000e+02 5.805702e+00
9.080000e+02 6.074617e+00
9.090000e+02 6.355330e+00
9.100000e+02 6.648313e+00
9.110000e+02 6.954066e+00
9.120000e+02 7.273081e+00
9.130000e+02 7.628597e+00
9.140000e+02 7.857916e+00
9.150000e+02 5.179802e+01
9.160000e+02 1.476178e+02
9.170000e+02 1.075588e+02
9.180000e+02 1.290612e+02
9.190000e+02 2.191377e+02
9.200000e+02 2.403994e+02
9.210000e+02 1.087626e+01
9.220000e+02 2.521995e+02
9.230000e+02 1.307515e+02
9.240000e+02 1.803823e+02
9.250000e+02 2.416178e+02
9.260000e+02 2.463414e+02
9.270000e+02 1.658316e+02
9.280000e+02 3.256665e+02
9.290000e+02 2.852974e+02
9.300000e+02 3.394655e+02
9.310000e+02 1.648549e+02
9.320000e+02 3.750072e+02
9.330000e+02 3.617929e+02
9.340000e+02 3.421315e+02
9.350000e+02 1.266708e+01
9.360000e+02 2.156923e+02
9.370000e+02 1.310873e+01
9.380000e+02 1.136665e+02
9.390000e+02 2.840490e+02
9.400000e+02 4.930275e+02
9.410000e+02 6.068067e+01
9.420000e+02 5.286762e+02
9.430000e+02 3.586608e+02
9.440000e+02 3.962223e+02
9.450000e+02 5.862155e+02
9.460000e+02 5.797823e+02
9.470000e+02 1.425604e+02
9.480000e+02 5.600081e+02
9.490000e+02 6.479965e+02
9.500000e+02 2.350311e+01
9.510000e+02 6.371300e+02
9.520000e+02 7.069902e+02
9.530000e+02 2.035426e+02
9.540000e+02 1.471382e+02
9.550000e+02 6.478515e+02
9.560000e+02 7.841424e+02
9.570000e+02 1.596824e+02
9.580000e+02 7.604602e+01
9.590000e+02 9.512906e+02
9.600000e+02 3.428021e+01
9.610000e+02 9.395266e+02
9.620000e+02 8.582440e+02
9.630000e+02 8.251441e+02
9.640000e+02 6.090527e+01
9.650000e+02 2.620175e+02
9.660000e+02 8.887986e+02
9.670000e+02 5.450758e+02
9.680000e+02 3.546028e+02
9.690000e+02 1.147436e+03
9.700000e+02 1.144650e+03
9.710000e+02 5.602817e+02
9.720000e+02 6.478012e+02
9.730000e+02 1.114008e+03
9.740000e+02 1.347219e+03
9.750000e+02 1.184832e+03
9.760000e+02 1.631185e+03
9.770000e+02 1.647833e+03
9.780000e+02 1.517931e+03
9.790000e+02 1.844963e+03
9.800000e+02 1.905165e+03
9.810000e+02 1.710926e+03
9.820000e+02 1.180866e+03
9.830000e+02 2.083749e+03
9.840000e+02 2.539153e+02
9.850000e+02 1.735829e+03
9.860000e+02 1.790827e+03
9.870000e+02 2.370713e+03
9.880000e+02 4.763248e+02
9.890000e+02 1.689660e+03
9.900000e+02 1.243921e+02
9.910000e+02 9.327523e+02
9.920000e+02 2.163691e+02
9.930000e+02 2.614163e+03
9.940000e+02 1.662131e+02
9.950000e+02 2.096379e+02
9.960000e+02 8.651519e+02
9.970000e+02 1.697832e+02
9.980000e+02 3.175168e+03
9.990000e+02 1.158183e+03
1.000000e+03 3.497678e+03
1.001000e+03 3.713600e+03
1.002000e+03 3.808556e+03
1.003000e+03 2.146890e+03
1.004000e+03 8.559956e+02
1.005000e+03 2.686847e+03
1.006000e+03 4.286356e+03
1.007000e+03 4.448462e+03
1.008000e+03 4.473093e+03
1.009000e+03 2.888739e+03
1.010000e+03 4.760036e+03
1.011000e+03 4.997088e+03
1.012000e+03 5.043214e+03
1.013000e+03 5.147579e+03
1.014000e+03 4.175352e+02
1.015000e+03 8.976143e+02
1.016000e+03 3.379740e+03
1.017000e+03 4.548740e+02
1.018000e+03 3.501740e+03
1.019000e+03 1.002145e+03
1.020000e+03 6.467882e+03
1.021000e+03 1.259383e+03
1.022000e+03 3.097916e+03
1.023000e+03 1.236660e+03
1.024000e+03 6.063289e+03
1.025000e+03 4.908809e+02
1.026000e+03 6.200072e+02
1.027000e+03 5.182475e+03
1.028000e+03 4.501060e+02
1.029000e+03 7.080444e+02
1.030000e+03 7.334703e+03
1.031000e+03 6.614358e+03
1.032000e+03 8.680385e+03
1.033000e+03 6.916562e+02
1.034000e+03 8.501536e+03
1.035000e+03 6.337295e+02
1.036000e+03 9.721621e+02
1.037000e+03 1.034414e+04
1.038000e+03 1.108408e+04
1.039000e+03 1.099861e+04
1.040000e+03 1.153720e+04
1.041000e+03 1.201922e+04
1.042000e+03 1.234848e+04
1.043000e+03 1.117962e+04
1.044000e+03 1.325969e+04
1.045000e+03 1.321059e+04
1.046000e+03 1.380819e+04
1.047000e+03 1.214604e+04
1.048000e+03 4.094703e+03
1.049000e+03 1.357917e+04
1.050000e+03 1.273861e+04
1.051000e+03 1.114757e+04
1.052000e+03 1.636287e+04
1.053000e+03 1.696493e+04
1.054000e+03 1.517911e+03
1.055000e+03 1.806946e+04
1.056000e+03 1.859416e+04
1.057000e+03 1.735371e+04
1.058000e+03 1.476061e+04
1.059000e+03 8.955864e+03
1.060000e+03 5.958128e+03
1.061000e+03 1.975668e+04
1.062000e+03 1.303875e+04
1.063000e+03 3.443252e+03
1.064000e+03 1.852090e+03
1.065000e+03 2.342900e+03
1.066000e+03 2.034759e+04
1.067000e+03 8.790739e+03
1.068000e+03 2.597107e+04
1.069000e+03 4.544711e+03
1.070000e+03 2.474656e+04
1.071000e+03 2.808800e+04
1.072000e+03 2.882301e+04
1.073000e+03 3.602072e+03
1.074000e+03 2.558975e+04
1.075000e+03 2.387286e+04
1.076000e+03 3.212835e+04
1.077000e+03 5.889172e+03
1.078000e+03 2.158435e+04
1.079000e+03 2.907052e+04
1.080000e+03 3.178014e+04
1.081000e+03 3.519794e+04
1.082000e+03 3.552803e+04
1.083000e+03 3.491598e+04
1.084000e+03 3.978507e+04
1.085000e+03 2.329842e+04
1.086000e+03 4.189912e+04
1.087000e+03 1.727028e+04
1.088000e+03 4.388243e+04
1.089000e+03 4.528795e+04
1.090000e+03 3.096849e+04
1.091000e+03 3.174479e+04
1.092000e+03 4.868668e+04
1.093000e+03 4.987638e+04
1.094000e+03 4.887991e+04
1.095000e+03 5.259430e+04
1.096000e+03 3.604947e+04
1.097000e+03 5.289642e+04
1.098000e+03 5.655437e+04
1.099000e+03 5.018850e+04
1.100000e+03 1.446369e+04
1.101000e+03 2.212346e+04
1.102000e+03 6.864702e+04
1.103000e+03 2.957593e+05
1.104000e+03 1.405801e+05
1.105000e+03 6.284166e+04
1.106000e+03 2.757088e+05
1.107000e+03 1.617175e+04
1.108000e+03 4.017148e+05
1.109000e+03 7.571856e+04
1.110000e+03 2.092480e+05
1.111000e+03 1.448593e+05
1.112000e+03 3.735978e+05
1.113000e+03 4.710361e+05
1.114000e+03 4.642779e+04
1.115000e+03 1.358283e+05
1.116000e+03 1.024575e+05
1.117000e+03 4.029947e+04
1.118000e+03 1.058881e+05
1.119000e+03 4.604455e+05
1.120000e+03 1.048713e+05
1.121000e+03 5.166083e+05
1.122000e+03 1.326022e+04
1.123000e+03 2.071530e+05
1.124000e+03 5.797470e+05
1.125000e+03 4.372105e+05
1.126000e+03 6.322773e+05
1.127000e+03 6.062766e+05
1.128000e+03 2.880466e+05
1.129000e+03 5.494353e+05
1.130000e+03 6.425301e+05
1.131000e+03 6.656622e+05
1.132000e+03 2.325472e+04
1.133000e+03 2.098370e+05
1.134000e+03 5.828868e+05
1.135000e+03 1.867594e+04
1.136000e+03 3.952067e+05
1.137000e+03 7.421272e+05
1.138000e+03 6.095122e+05
1.139000e+03 7.788461e+05
1.140000e+03 1.673766e+04
1.141000e+03 8.004026e+05
1.142000e+03 8.319544e+05
1.143000e+03 7.687276e+05
1.144000e+03 8.604161e+05
1.145000e+03 7.428331e+04
1.146000e+03 9.004000e+05
1.147000e+03 8.931129e+05
1.148000e+03 2.456901e+05
1.149000e+03 9.081972e+05
1.150000e+03 8.454008e+05
1.151000e+03 9.762627e+05
1.152000e+03 9.851599e+05
1.153000e+03 5.929439e+05
1.154000e+03 9.866079e+05
1.155000e+03 9.710104e+05
1.156000e+03 8.052182e+05
1.157000e+03 1.061990e+06
1.158000e+03 5.123985e+04
1.159000e+03 1.055836e+06
1.160000e+03 9.167486e+05
1.161000e+03 1.150417e+06
1.162000e+03 3.166788e+05
1.163000e+03 7.883142e+05
1.164000e+03 2.931675e+04
1.165000e+03 1.222174e+06
1.166000e+03 1.192393e+06
1.167000e+03 1.201370e+06
1.168000e+03 1.323608e+06
1.169000e+03 1.324586e+06
1.170000e+03 1.283367e+06
1.171000e+03 1.362621e+06
1.172000e+03 1.150235e+06
1.173000e+03 1.453455e+06
1.174000e+03 2.849248e+05
1.175000e+03 4.123888e+04
1.176000e+03 5.027475e+04
1.177000e+03 1.576651e+06
1.178000e+03 1.595218e+06
1.179000e+03 1.617802e+06
1.180000e+03 1.286920e+06
1.181000e+03 1.688154e+06
1.182000e+03 1.699010e+06
1.183000e+03 1.640634e+06
1.184000e+03 1.623427e+06
1.185000e+03 1.741528e+06
1.186000e+03 8.749853e+05
1.187000e+03 1.810582e+06
1.188000e+03 1.514016e+06
1.189000e+03 6.258737e+04
1.190000e+03 1.113935e+06
1.191000e+03 1.881289e+06
1.192000e+03 1.968821e+06
1.193000e+03 9.169163e+04
1.194000e+03 7.049863e+04
1.195000e+03 1.803868e+06
1.196000e+03 2.030069e+06
1.197000e+03 3.087710e+06
1.198000e+03 1.730026e+06
1.199000e+03 3.030563e+06
1.200000e+03 1.958069e+06
1.201000e+03 2.898913e+06
1.202000e+03 2.532355e+06
1.203000e+03 3.519338e+06
1.204000e+03 1.905282e+06
1.205000e+03 3.042324e+06
1.206000e+03 2.991341e+06
1.207000e+03 3.067414e+05
1.208000e+03 2.206703e+06
1.209000e+03 1.701794e+06
1.210000e+03 1.123846e+05
1.211000e+03 8.914499e+05
1.212000e+03 5.131008e+05
1.213000e+03 2.713119e+05
1.214000e+03 1.353623e+05
1.215000e+03 1.132938e+05
1.216000e+03 1.439463e+05
1.217000e+03 1.224235e+05
1.218000e+03 2.356513e+05
1.219000e+03 4.916533e+05
1.220000e+03 7.906910e+05
1.221000e+03 1.441654e+06
1.222000e+03 2.039302e+06
1.223000e+03 2.681985e+06
1.224000e+03 3.295171e+06
1.225000e+03 1.923156e+06
1.226000e+03 4.745568e+06
1.227000e+03 5.262904e+06
1.228000e+03 4.299351e+06
1.229000e+03 6.122444e+06
1.230000e+03 6.228646e+06
1.231000e+03 4.458024e+06
1.232000e+03 7.801929e+06
1.233000e+03 8.289222e+06
1.234000e+03 5.590309e+06
1.235000e+03 8.939573e+06
1.236000e+03 6.233424e+06
1.237000e+03 9.686933e+06
1.238000e+03 9.797771e+06
1.239000e+03 9.828629e+06
1.240000e+03 6.569624e+06
1.241000e+03 1.028035e+07
1.242000e+03 1.045066e+07
1.243000e+03 1.176566e+07
1.244000e+03 1.008245e+07
1.245000e+03 1.124412e+07
1.246000e+03 1.272284e+07
1.247000e+03 1.308493e+07
1.248000e+03 9.439254e+06
1.249000e+03 1.216871e+07
1.250000e+03 1.195725e+07
1.251000e+03 1.477945e+07
1.252000e+03 1.443792e+07
1.253000e+03 1.535877e+07
1.254000e+03 1.523281e+07
1.255000e+03 1.553399e+07
1.256000e+03 1.546499e+07
1.257000e+03 1.501155e+07
1.258000e+03 1.491479e+07
1.259000e+03 1.646040e+07
1.260000e+03 1.699168e+07
1.261000e+03 4.374730e+05
1.262000e+03 1.091683e+07
1.263000e+03 1.790139e+07
1.264000e+03 1.699701e+07
1.265000e+03 5.051960e+05
1.266000e+03 1.914844e+07
1.267000e+03 1.828234e+07
