# wavelength_A flux
5.000000e+02 2.151576e-39
5.010000e+02 2.776275e-39
5.020000e+02 3.578985e-39
5.030000e+02 4.609001e-39
5.040000e+02 5.929761e-39
5.050000e+02 2.059156e-38
5.060000e+02 2.628829e-38
5.070000e+02 3.353029e-38
5.080000e+02 4.272846e-38
5.090000e+02 5.440056e-38
5.100000e+02 6.919878e-38
5.110000e+02 8.794112e-38
5.120000e+02 1.116751e-37
5.130000e+02 1.416739e-37
5.140000e+02 1.795734e-37
5.150000e+02 2.274060e-37
5.160000e+02 2.877494e-37
5.170000e+02 3.637343e-37
5.180000e+02 4.594898e-37
5.190000e+02 5.798910e-37
5.200000e+02 7.312651e-37
5.210000e+02 9.212320e-37
5.220000e+02 1.154648e-36
5.230000e+02 1.458375e-36
5.240000e+02 1.833292e-36
5.250000e+02 2.302173e-36
5.260000e+02 2.888526e-36
5.270000e+02 3.621530e-36
5.280000e+02 4.536521e-36
5.290000e+02 5.673753e-36
5.300000e+02 7.085735e-36
5.310000e+02 8.870563e-36
5.320000e+02 1.107976e-35
5.330000e+02 1.382346e-35
5.340000e+02 1.723343e-35
5.350000e+02 2.146638e-35
5.360000e+02 2.671111e-35
5.370000e+02 1.952409e-35
5.380000e+02 4.128687e-35
5.390000e+02 5.127711e-35
5.400000e+02 6.365397e-35
5.410000e+02 7.891897e-35
5.420000e+02 9.780138e-35
5.430000e+02 1.210913e-34
5.440000e+02 1.498155e-34
5.450000e+02 1.852164e-34
5.460000e+02 2.287092e-34
5.470000e+02 2.824679e-34
5.480000e+02 3.484490e-34
5.490000e+02 4.295326e-34
5.500000e+02 5.291031e-34
5.510000e+02 6.513021e-34
5.520000e+02 8.011378e-34
5.530000e+02 9.847480e-34
5.540000e+02 1.209588e-33
5.550000e+02 1.484724e-33
5.560000e+02 1.821176e-33
5.570000e+02 2.232327e-33
5.580000e+02 2.734416e-33
5.590000e+02 3.347158e-33
5.600000e+02 4.094394e-33
5.610000e+02 5.005154e-33
5.620000e+02 6.114256e-33
5.630000e+02 7.464120e-33
5.640000e+02 9.105925e-33
5.650000e+02 1.110150e-32
5.660000e+02 1.352547e-32
5.670000e+02 1.646790e-32
5.680000e+02 2.003735e-32
5.690000e+02 2.436466e-32
5.700000e+02 2.960736e-32
5.710000e+02 3.595506e-32
5.720000e+02 4.363660e-32
5.730000e+02 5.292446e-32
5.740000e+02 6.414856e-32
5.750000e+02 7.775274e-32
5.760000e+02 9.352610e-32
5.770000e+02 1.138699e-31
5.780000e+02 1.376729e-31
5.790000e+02 1.663481e-31
5.800000e+02 2.008705e-31
5.810000e+02 2.424031e-31
5.820000e+02 2.923290e-31
5.830000e+02 3.521816e-31
5.840000e+02 4.194970e-31
5.850000e+02 5.096179e-31
5.860000e+02 6.147275e-31
5.870000e+02 7.391873e-31
5.880000e+02 8.886977e-31
5.890000e+02 1.067388e-30
5.900000e+02 1.281347e-30
5.910000e+02 1.537180e-30
5.920000e+02 1.843171e-30
5.930000e+02 2.208678e-30
5.940000e+02 2.645149e-30
5.950000e+02 3.166069e-30
5.960000e+02 3.787429e-30
5.970000e+02 4.528180e-30
5.980000e+02 5.410776e-30
5.990000e+02 6.461792e-30
6.000000e+02 7.712679e-30
6.010000e+02 9.182131e-30
6.020000e+02 1.096983e-29
6.030000e+02 1.307179e-29
6.040000e+02 1.556807e-29
6.050000e+02 1.853099e-29
6.060000e+02 2.204605e-29
6.070000e+02 2.621365e-29
6.080000e+02 3.115245e-29
6.090000e+02 3.700209e-29
6.100000e+02 4.392740e-29
6.110000e+02 5.212128e-29
6.120000e+02 6.181060e-29
6.130000e+02 7.326293e-29
6.140000e+02 8.679213e-29
6.150000e+02 1.027666e-28
6.160000e+02 1.216188e-28
6.170000e+02 1.438557e-28
6.180000e+02 1.700757e-28
6.190000e+02 2.009673e-28
6.200000e+02 2.373532e-28
6.210000e+02 2.801837e-28
6.220000e+02 3.305775e-28
6.230000e+02 3.898405e-28
6.240000e+02 4.595021e-28
6.250000e+02 5.413437e-28
6.260000e+02 6.374493e-28
6.270000e+02 7.502570e-28
6.280000e+02 8.825921e-28
6.290000e+02 1.037765e-27
6.300000e+02 1.219449e-27
6.310000e+02 1.417802e-27
6.320000e+02 1.680228e-27
6.330000e+02 1.970830e-27
6.340000e+02 2.315677e-27
6.350000e+02 2.714412e-27
6.360000e+02 3.181437e-27
6.370000e+02 3.727027e-27
6.380000e+02 4.363682e-27
6.390000e+02 5.106724e-27
6.400000e+02 5.973540e-27
6.410000e+02 6.984287e-27
6.420000e+02 8.162331e-27
6.430000e+02 9.534743e-27
6.440000e+02 1.113288e-26
6.450000e+02 1.299221e-26
6.460000e+02 1.515718e-26
6.470000e+02 1.767401e-26
6.480000e+02 2.059929e-26
6.490000e+02 2.399857e-26
6.500000e+02 2.794233e-26
6.510000e+02 3.252796e-26
6.520000e+02 3.784668e-26
6.530000e+02 4.401437e-26
6.540000e+02 5.116550e-26
6.550000e+02 5.945258e-26
6.560000e+02 6.905224e-26
6.570000e+02 8.016375e-26
6.580000e+02 9.303272e-26
6.590000e+02 1.079168e-25
6.600000e+02 1.251277e-25
6.610000e+02 1.450265e-25
6.620000e+02 1.680167e-25
6.630000e+02 1.945701e-25
6.640000e+02 2.252268e-25
6.650000e+02 2.606047e-25
6.660000e+02 3.014188e-25
6.670000e+02 3.484794e-25
6.680000e+02 4.027262e-25
6.690000e+02 4.652269e-25
6.700000e+02 5.372099e-25
6.710000e+02 6.200806e-25
6.720000e+02 7.154517e-25
6.730000e+02 8.251572e-25
6.740000e+02 9.513056e-25
6.750000e+02 1.096305e-24
6.760000e+02 1.262907e-24
6.770000e+02 1.454254e-24
6.780000e+02 1.673941e-24
6.790000e+02 1.926047e-24
6.800000e+02 2.215293e-24
6.810000e+02 2.546973e-24
6.820000e+02 2.927184e-24
6.830000e+02 3.362864e-24
6.840000e+02 3.861932e-24
6.850000e+02 4.433285e-24
6.860000e+02 5.087398e-24
6.870000e+02 5.835728e-24
6.880000e+02 6.691616e-24
6.890000e+02 7.670159e-24
6.900000e+02 8.788522e-24
6.910000e+02 1.006621e-23
6.920000e+02 1.152538e-23
6.930000e+02 1.319121e-23
6.940000e+02 1.509228e-23
6.950000e+02 1.726109e-23
6.960000e+02 1.973431e-23
6.970000e+02 2.255322e-23
6.980000e+02 2.576651e-23
6.990000e+02 2.942644e-23
7.000000e+02 3.359419e-23
7.010000e+02 3.833853e-23
7.020000e+02 4.373733e-23
7.030000e+02 4.985657e-23
7.040000e+02 5.686236e-23
7.050000e+02 6.480030e-23
7.060000e+02 7.382167e-23
7.070000e+02 8.407023e-23
7.080000e+02 9.570717e-23
7.090000e+02 1.089155e-22
7.100000e+02 1.239078e-22
7.110000e+02 1.409131e-22
7.120000e+02 1.601975e-22
7.130000e+02 1.820589e-22
7.140000e+02 2.068337e-22
7.150000e+02 2.348985e-22
7.160000e+02 2.666850e-22
7.170000e+02 3.026695e-22
7.180000e+02 3.433913e-22
7.190000e+02 3.894706e-22
7.200000e+02 4.415810e-22
7.210000e+02 5.004995e-22
7.220000e+02 5.670916e-22
7.230000e+02 6.423328e-22
7.240000e+02 7.273191e-22
7.250000e+02 8.232814e-22
7.260000e+02 9.315508e-22
7.270000e+02 1.053840e-21
7.280000e+02 1.191726e-21
7.290000e+02 1.347221e-21
7.300000e+02 1.522520e-21
7.310000e+02 1.720077e-21
7.320000e+02 1.942652e-21
7.330000e+02 2.193334e-21
7.340000e+02 2.475584e-21
7.350000e+02 2.793277e-21
7.360000e+02 3.150685e-21
7.370000e+02 3.552868e-21
7.380000e+02 4.005083e-21
7.390000e+02 4.513437e-21
7.400000e+02 5.084714e-21
7.410000e+02 5.726615e-21
7.420000e+02 6.447491e-21
7.430000e+02 7.256997e-21
7.440000e+02 8.165601e-21
7.450000e+02 9.185187e-21
7.460000e+02 1.032897e-20
7.470000e+02 1.161170e-20
7.480000e+02 1.304980e-20
7.490000e+02 1.466163e-20
7.500000e+02 1.646766e-20
7.510000e+02 1.849067e-20
7.520000e+02 2.075607e-20
7.530000e+02 2.329218e-20
7.540000e+02 2.613048e-20
7.550000e+02 2.930611e-20
7.560000e+02 3.285811e-20
7.570000e+02 3.682790e-20
7.580000e+02 4.126988e-20
7.590000e+02 4.623163e-20
7.600000e+02 5.177555e-20
7.610000e+02 5.796733e-20
7.620000e+02 6.488133e-20
7.630000e+02 7.259918e-20
7.640000e+02 8.121213e-20
7.650000e+02 9.082036e-20
7.660000e+02 1.015388e-19
7.670000e+02 1.134893e-19
7.680000e+02 1.268097e-19
7.690000e+02 1.404933e-19
7.700000e+02 1.581972e-19
7.710000e+02 1.766200e-19
7.720000e+02 1.971340e-19
7.730000e+02 2.199702e-19
7.740000e+02 2.453848e-19
7.750000e+02 2.736613e-19
7.760000e+02 3.049990e-19
7.770000e+02 3.400889e-19
7.780000e+02 3.789711e-19
7.790000e+02 4.221853e-19
7.800000e+02 4.702014e-19
7.810000e+02 5.235389e-19
7.820000e+02 5.827720e-19
7.830000e+02 6.485350e-19
7.840000e+02 7.215287e-19
7.850000e+02 8.025269e-19
7.860000e+02 8.923797e-19
7.870000e+02 9.920977e-19
7.880000e+02 1.102605e-18
7.890000e+02 1.225105e-18
7.900000e+02 1.360862e-18
7.910000e+02 1.511276e-18
7.920000e+02 1.677881e-18
7.930000e+02 1.862378e-18
7.940000e+02 2.066633e-18
7.950000e+02 2.292707e-18
7.960000e+02 2.542869e-18
7.970000e+02 2.819614e-18
7.980000e+02 3.125691e-18
7.990000e+02 3.464115e-18
8.000000e+02 3.838251e-18
8.010000e+02 4.251705e-18
8.020000e+02 4.708559e-18
8.030000e+02 5.213197e-18
8.040000e+02 5.770497e-18
8.050000e+02 6.385805e-18
8.060000e+02 7.065003e-18
8.070000e+02 7.814525e-18
8.080000e+02 8.641462e-18
8.090000e+02 9.553590e-18
8.100000e+02 1.055945e-17
8.110000e+02 1.166840e-17
8.120000e+02 1.289070e-17
8.130000e+02 1.423768e-17
8.140000e+02 1.572163e-17
8.150000e+02 1.735613e-17
8.160000e+02 1.915603e-17
8.170000e+02 2.113741e-17
8.180000e+02 2.331867e-17
8.190000e+02 2.571879e-17
8.200000e+02 2.835930e-17
8.210000e+02 3.126360e-17
8.220000e+02 3.445738e-17
8.230000e+02 3.796863e-17
8.240000e+02 4.182803e-17
8.250000e+02 4.606915e-17
8.260000e+02 5.072867e-17
8.270000e+02 5.584672e-17
8.280000e+02 6.146715e-17
8.290000e+02 6.763788e-17
8.300000e+02 7.441130e-17
8.310000e+02 8.184457e-17
8.320000e+02 9.000029e-17
8.330000e+02 9.894646e-17
8.340000e+02 1.087576e-16
8.350000e+02 1.194196e-16
8.360000e+02 1.313070e-16
8.370000e+02 1.442316e-16
8.380000e+02 1.583820e-16
8.390000e+02 1.739048e-16
8.400000e+02 1.908977e-16
8.410000e+02 2.095034e-16
8.420000e+02 2.298703e-16
8.430000e+02 2.521676e-16
8.440000e+02 2.765652e-16
8.450000e+02 3.032584e-16
8.460000e+02 3.324563e-16
8.470000e+02 3.643875e-16
8.480000e+02 3.993004e-16
8.490000e+02 4.374655e-16
8.500000e+02 4.791771e-16
8.510000e+02 5.247550e-16
8.520000e+02 5.745463e-16
8.530000e+02 6.289324e-16
8.540000e+02 6.883248e-16
8.550000e+02 7.531658e-16
8.560000e+02 8.239401e-16
8.570000e+02 9.011856e-16
8.580000e+02 9.854662e-16
8.590000e+02 1.077408e-15
8.600000e+02 1.177685e-15
8.610000e+02 1.287032e-15
8.620000e+02 1.406246e-15
8.630000e+02 1.536184e-15
8.640000e+02 1.677802e-15
8.650000e+02 1.831983e-15
8.660000e+02 2.000182e-15
8.670000e+02 2.183249e-15
8.680000e+02 2.382596e-15
8.690000e+02 2.599626e-15
8.700000e+02 2.835864e-15
8.710000e+02 3.092957e-15
8.720000e+02 3.372691e-15
8.730000e+02 3.676998e-15
8.740000e+02 4.007985e-15
8.750000e+02 4.367907e-15
8.760000e+02 4.759223e-15
8.770000e+02 5.184556e-15
8.780000e+02 5.646709e-15
8.790000e+02 6.149211e-15
8.800000e+02 6.694937e-15
8.810000e+02 7.287696e-15
8.820000e+02 7.931424e-15
8.830000e+02 8.630366e-15
8.840000e+02 9.389117e-15
8.850000e+02 1.021264e-14
8.860000e+02 1.110629e-14
8.870000e+02 1.207588e-14
8.880000e+02 1.312764e-14
8.890000e+02 1.426837e-14
8.900000e+02 1.550531e-14
8.910000e+02 1.684635e-14
8.920000e+02 1.829838e-14
8.930000e+02 1.987539e-14
8.940000e+02 2.158244e-14
8.950000e+02 2.343180e-14
8.960000e+02 2.543498e-14
8.970000e+02 2.760437e-14
8.980000e+02 2.995336e-14
8.990000e+02 3.249633e-14
9.000000e+02 3.524885e-14
9.010000e+02 3.822761e-14
9.020000e+02 4.145066e-14
9.030000e+02 4.493738e-14
9.040000e+02 4.870875e-14
9.050000e+02 5.278703e-14
9.060000e+02 5.719704e-14
9.070000e+02 6.196098e-14
9.080000e+02 6.711708e-14
9.090000e+02 7.268558e-14
9.100000e+02 7.870229e-14
9.110000e+02 8.520388e-14
9.120000e+02 9.224492e-14
9.130000e+02 9.086488e-14
9.140000e+02 3.410605e-13
9.150000e+02 8.063996e-06
9.160000e+02 4.242376e-05
9.170000e+02 4.441757e-05
9.180000e+02 4.640410e-05
9.190000e+02 4.878663e-05
9.200000e+02 5.099288e-05
9.210000e+02 1.707870e-13
9.220000e+02 5.547990e-05
9.230000e+02 5.711207e-05
9.240000e+02 6.122245e-05
9.250000e+02 5.630782e-05
9.260000e+02 6.507826e-05
9.270000e+02 6.597017e-05
9.280000e+02 7.320430e-05
9.290000e+02 3.032255e-07
9.300000e+02 2.031622e-05
9.310000e+02 7.843188e-05
9.320000e+02 8.764714e-05
9.330000e+02 9.129012e-05
9.340000e+02 8.099436e-05
9.350000e+02 6.017217e-09
9.360000e+02 9.136437e-05
9.370000e+02 1.035119e-09
9.380000e+02 1.000161e-08
9.390000e+02 1.170301e-04
9.400000e+02 1.225958e-04
9.410000e+02 2.397155e-08
9.420000e+02 1.336121e-04
9.430000e+02 5.953661e-05
9.440000e+02 9.239576e-05
9.450000e+02 1.489522e-04
9.460000e+02 1.557833e-04
9.470000e+02 3.728510e-07
9.480000e+02 4.795911e-07
9.490000e+02 1.638570e-04
9.500000e+02 7.894414e-10
9.510000e+02 1.858900e-04
9.520000e+02 2.030156e-04
9.530000e+02 1.153816e-04
9.540000e+02 1.269378e-06
9.550000e+02 2.019181e-04
9.560000e+02 3.900095e-08
9.570000e+02 5.838316e-06
9.580000e+02 4.589820e-06
9.590000e+02 2.959405e-04
9.600000e+02 4.860340e-09
9.610000e+02 2.916870e-04
9.620000e+02 3.208003e-04
9.630000e+02 2.741817e-04
9.640000e+02 4.074536e-10
9.650000e+02 3.453548e-05
9.660000e+02 3.709377e-04
9.670000e+02 2.342380e-04
9.680000e+02 2.125672e-04
9.690000e+02 3.929886e-04
9.700000e+02 4.506468e-04
9.710000e+02 2.928578e-04
9.720000e+02 1.014699e-04
9.730000e+02 1.500696e-04
9.740000e+02 4.128568e-04
9.750000e+02 4.885268e-04
9.760000e+02 6.213979e-04
9.770000e+02 6.621669e-04
9.780000e+02 6.614885e-04
9.790000e+02 7.368862e-04
9.800000e+02 7.690029e-04
9.810000e+02 7.929232e-04
9.820000e+02 7.509598e-04
9.830000e+02 8.675599e-04
9.840000e+02 6.139729e-06
9.850000e+02 1.350090e-04
9.860000e+02 7.494223e-04
9.870000e+02 1.068443e-03
9.880000e+02 7.655790e-05
9.890000e+02 9.073883e-04
9.900000e+02 8.052329e-07
9.910000e+02 6.070674e-04
9.920000e+02 2.408662e-06
9.930000e+02 6.772180e-04
9.940000e+02 2.910383e-09
9.950000e+02 8.657216e-06
9.960000e+02 2.505600e-04
9.970000e+02 1.210719e-08
9.980000e+02 1.779247e-03
9.990000e+02 3.981971e-04
1.000000e+03 1.661205e-03
1.001000e+03 1.610669e-03
1.002000e+03 2.207625e-03
1.003000e+03 1.753689e-03
1.004000e+03 2.435592e-04
1.005000e+03 2.135758e-03
1.006000e+03 2.651002e-03
1.007000e+03 2.713428e-03
1.008000e+03 2.720069e-03
1.009000e+03 1.662358e-03
1.010000e+03 3.188159e-03
1.011000e+03 3.325989e-03
1.012000e+03 3.473178e-03
1.013000e+03 3.639353e-03
1.014000e+03 5.900394e-06
1.015000e+03 1.407603e-04
1.016000e+03 2.924546e-03
1.017000e+03 9.526033e-06
1.018000e+03 3.596550e-03
1.019000e+03 3.967318e-04
1.020000e+03 4.664879e-03
1.021000e+03 2.629124e-06
1.022000e+03 9.131110e-04
1.023000e+03 8.728229e-04
1.024000e+03 9.969866e-06
1.025000e+03 2.133062e-06
1.026000e+03 1.294034e-06
1.027000e+03 7.070444e-05
1.028000e+03 2.125744e-07
1.029000e+03 1.196424e-05
1.030000e+03 1.798351e-03
1.031000e+03 6.314717e-03
1.032000e+03 2.113776e-03
1.033000e+03 7.281080e-06
1.034000e+03 8.179529e-03
1.035000e+03 7.264316e-08
1.036000e+03 3.227312e-05
1.037000e+03 1.025666e-02
1.038000e+03 1.091546e-02
1.039000e+03 1.037032e-02
1.040000e+03 1.186085e-02
1.041000e+03 7.820648e-03
1.042000e+03 1.305277e-02
1.043000e+03 6.181990e-03
1.044000e+03 1.422429e-02
1.045000e+03 1.480264e-02
1.046000e+03 1.544906e-02
1.047000e+03 1.541804e-02
1.048000e+03 6.273680e-03
1.049000e+03 1.115046e-02
1.050000e+03 1.428413e-02
1.051000e+03 1.277719e-02
1.052000e+03 1.979824e-02
1.053000e+03 2.059755e-02
1.054000e+03 4.291348e-05
1.055000e+03 5.968288e-05
1.056000e+03 2.363354e-02
1.057000e+03 2.356156e-02
1.058000e+03 2.238480e-02
1.059000e+03 2.053335e-02
1.060000e+03 6.260233e-03
1.061000e+03 2.902690e-02
1.062000e+03 2.366313e-02
1.063000e+03 5.159791e-07
1.064000e+03 6.332994e-08
1.065000e+03 1.412071e-04
1.066000e+03 1.253188e-05
1.067000e+03 1.955946e-03
1.068000e+03 3.891694e-02
1.069000e+03 4.594237e-03
1.070000e+03 4.042635e-02
1.071000e+03 4.375921e-02
1.072000e+03 4.570075e-02
1.073000e+03 8.072332e-04
1.074000e+03 4.849916e-02
1.075000e+03 4.324365e-02
1.076000e+03 6.607968e-03
1.077000e+03 5.647540e-06
1.078000e+03 4.707078e-02
1.079000e+03 5.692410e-02
1.080000e+03 5.254709e-02
1.081000e+03 6.310449e-02
1.082000e+03 5.633393e-02
1.083000e+03 1.245133e-02
1.084000e+03 5.872390e-02
1.085000e+03 6.390519e-03
1.086000e+03 7.823823e-02
1.087000e+03 5.006833e-02
1.088000e+03 7.443141e-02
1.089000e+03 8.673371e-02
1.090000e+03 8.152073e-02
1.091000e+03 5.265691e-02
1.092000e+03 6.805274e-03
1.093000e+03 9.032276e-02
1.094000e+03 9.571886e-02
1.095000e+03 1.048133e-01
1.096000e+03 2.691053e-03
1.097000e+03 1.584908e-02
1.098000e+03 1.762182e-03
1.099000e+03 1.089832e-01
1.100000e+03 2.564361e-03
1.101000e+03 4.453044e-02
1.102000e+03 1.455512e-01
1.103000e+03 1.874250e-01
1.104000e+03 1.871570e-01
1.105000e+03 1.300623e-01
1.106000e+03 2.579513e-01
1.107000e+03 4.659736e-02
1.108000e+03 2.139891e-01
1.109000e+03 7.272083e-02
1.110000e+03 1.767041e-01
1.111000e+03 2.061655e-01
1.112000e+03 2.518167e-01
1.113000e+03 2.616609e-01
1.114000e+03 1.193588e-01
1.115000e+03 2.065074e-01
1.116000e+03 1.723584e-01
1.117000e+03 1.839691e-01
1.118000e+03 1.436115e-01
1.119000e+03 3.213971e-01
1.120000e+03 2.293129e-01
1.121000e+03 3.176275e-01
1.122000e+03 7.011741e-03
1.123000e+03 1.997969e-01
1.124000e+03 3.481160e-01
1.125000e+03 3.029022e-01
1.126000e+03 3.598903e-01
1.127000e+03 3.344094e-01
1.128000e+03 2.662311e-01
1.129000e+03 3.602965e-01
1.130000e+03 1.644472e-01
1.131000e+03 3.879564e-01
1.132000e+03 7.056385e-03
1.133000e+03 3.310766e-01
1.134000e+03 2.078521e-01
1.135000e+03 4.428625e-05
1.136000e+03 3.775651e-01
1.137000e+03 4.224802e-01
1.138000e+03 4.234529e-01
1.139000e+03 4.345850e-01
1.140000e+03 1.385347e-01
1.141000e+03 4.492130e-01
1.142000e+03 4.557912e-01
1.143000e+03 4.195975e-01
1.144000e+03 4.689553e-01
1.145000e+03 1.466427e-01
1.146000e+03 4.799793e-01
1.147000e+03 4.819251e-01
1.148000e+03 4.370660e-01
1.149000e+03 5.039437e-01
1.150000e+03 4.888957e-01
1.151000e+03 5.182396e-01
1.152000e+03 5.294262e-01
1.153000e+03 3.783768e-01
1.154000e+03 5.143610e-01
1.155000e+03 5.464321e-01
1.156000e+03 5.181432e-04
1.157000e+03 5.517212e-01
1.158000e+03 1.429766e-01
1.159000e+03 5.013940e-01
1.160000e+03 5.850270e-01
1.161000e+03 6.000571e-01
1.162000e+03 1.316569e-01
1.163000e+03 5.975398e-01
1.164000e+03 1.504421e-04
1.165000e+03 6.365569e-01
1.166000e+03 6.507903e-01
1.167000e+03 6.645735e-01
1.168000e+03 6.537074e-01
1.169000e+03 1.655902e-01
1.170000e+03 6.989543e-01
1.171000e+03 7.237670e-01
1.172000e+03 7.375173e-01
1.173000e+03 7.555243e-01
1.174000e+03 4.882674e-01
1.175000e+03 1.917481e-04
1.176000e+03 4.535913e-05
1.177000e+03 8.178524e-01
1.178000e+03 8.326029e-01
1.179000e+03 8.490376e-01
1.180000e+03 8.111829e-01
1.181000e+03 8.733550e-01
1.182000e+03 8.944134e-01
1.183000e+03 9.157413e-01
1.184000e+03 8.832287e-01
1.185000e+03 9.487249e-01
1.186000e+03 3.174901e-01
1.187000e+03 9.770895e-01
1.188000e+03 9.500393e-01
1.189000e+03 4.113382e-01
1.190000e+03 7.075926e-01
1.191000e+03 1.013850e+00
1.192000e+03 1.008946e+00
1.193000e+03 1.168237e-01
1.194000e+03 5.114108e-01
1.195000e+03 1.002378e+00
1.196000e+03 1.007596e+00
1.197000e+03 2.494691e+00
1.198000e+03 2.302734e+00
1.199000e+03 2.048653e+00
1.200000e+03 1.899148e+00
1.201000e+03 1.997786e+00
1.202000e+03 1.896300e+00
1.203000e+03 2.952160e+00
1.204000e+03 2.405364e+00
1.205000e+03 2.108436e+00
1.206000e+03 1.939933e+00
1.207000e+03 9.824634e-03
1.208000e+03 1.005524e+00
1.209000e+03 5.924147e-01
1.210000e+03 2.845228e-04
1.211000e+03 1.718465e-01
1.212000e+03 5.828205e-02
1.213000e+03 1.836539e-02
1.214000e+03 3.528159e-03
1.215000e+03 3.025759e-04
1.216000e+03 5.879314e-05
1.217000e+03 1.923421e-03
1.218000e+03 1.293396e-02
1.219000e+03 5.335141e-02
1.220000e+03 1.647734e-01
1.221000e+03 3.505465e-01
1.222000e+03 7.132155e-01
1.223000e+03 1.027501e+00
1.224000e+03 1.609586e+00
1.225000e+03 2.372689e+00
1.226000e+03 3.122665e+00
1.227000e+03 2.463950e+00
1.228000e+03 5.394792e+00
1.229000e+03 6.285965e+00
1.230000e+03 2.969351e-03
1.231000e+03 6.321448e+00
1.232000e+03 9.264658e+00
1.233000e+03 1.065112e+01
1.234000e+03 6.050570e+00
1.235000e+03 1.271845e+01
1.236000e+03 1.342595e+01
1.237000e+03 1.466099e+01
1.238000e+03 1.557562e+01
1.239000e+03 1.587872e+01
1.240000e+03 9.073420e-01
1.241000e+03 1.655307e+01
1.242000e+03 1.757794e+01
1.243000e+03 1.973723e+01
1.244000e+03 1.922284e+01
1.245000e+03 6.337613e+00
1.246000e+03 2.267908e+01
1.247000e+03 2.286946e+01
1.248000e+03 1.614508e+00
1.249000e+03 2.140790e+01
1.250000e+03 2.041308e+01
1.251000e+03 2.682166e+01
1.252000e+03 2.492016e+01
1.253000e+03 2.837181e+01
1.254000e+03 2.772613e+01
1.255000e+03 5.368233e-02
1.256000e+03 1.767266e+01
1.257000e+03 2.217683e+01
1.258000e+03 2.473490e+01
1.259000e+03 3.267780e+01
1.260000e+03 3.072719e+01
1.261000e+03 3.125057e-01
1.262000e+03 2.877823e+01
1.263000e+03 7.724295e+00
1.264000e+03 2.280791e+01
1.265000e+03 2.591515e-02
1.266000e+03 3.765762e+01
1.267000e+03 3.877743e+01
