# wavelength_A flux
5.000000e+02 1.710454e-37
5.010000e+02 2.217812e-37
5.020000e+02 2.872621e-37
5.030000e+02 3.716849e-37
5.040000e+02 4.804158e-37
5.050000e+02 6.407062e-37
5.060000e+02 8.267843e-37
5.070000e+02 1.065794e-36
5.080000e+02 1.372511e-36
5.090000e+02 1.765678e-36
5.100000e+02 1.619168e-36
5.110000e+02 2.913293e-36
5.120000e+02 3.736379e-36
5.130000e+02 4.787576e-36
5.140000e+02 6.128230e-36
5.150000e+02 7.836571e-36
5.160000e+02 1.001132e-35
5.170000e+02 1.277726e-35
5.180000e+02 1.629154e-35
5.190000e+02 2.075242e-35
5.200000e+02 2.640951e-35
5.210000e+02 3.357675e-35
5.220000e+02 4.264644e-35
5.230000e+02 5.412111e-35
5.240000e+02 6.861567e-35
5.250000e+02 8.691115e-35
5.260000e+02 1.099833e-34
5.270000e+02 1.390527e-34
5.280000e+02 1.756450e-34
5.290000e+02 2.216655e-34
5.300000e+02 2.794917e-34
5.310000e+02 3.520872e-34
5.320000e+02 4.431434e-34
5.330000e+02 5.572542e-34
5.340000e+02 7.001314e-34
5.350000e+02 8.788701e-34
5.360000e+02 1.102272e-33
5.370000e+02 1.353975e-33
5.380000e+02 1.729402e-33
5.390000e+02 2.163439e-33
5.400000e+02 2.704085e-33
5.410000e+02 3.376876e-33
5.420000e+02 4.213753e-33
5.430000e+02 5.253476e-33
5.440000e+02 6.544291e-33
5.450000e+02 8.145521e-33
5.460000e+02 1.013019e-32
5.470000e+02 1.258811e-32
5.480000e+02 1.562967e-32
5.490000e+02 1.939042e-32
5.500000e+02 2.403671e-32
5.510000e+02 2.977247e-32
5.520000e+02 3.684758e-32
5.530000e+02 4.556790e-32
5.540000e+02 5.630747e-32
5.550000e+02 6.952400e-32
5.560000e+02 8.577568e-32
5.570000e+02 1.057443e-31
5.580000e+02 1.302613e-31
5.590000e+02 1.603396e-31
5.600000e+02 1.972129e-31
5.610000e+02 2.423821e-31
5.620000e+02 2.976722e-31
5.630000e+02 3.653007e-31
5.640000e+02 4.479596e-31
5.650000e+02 5.489148e-31
5.660000e+02 6.721261e-31
5.670000e+02 8.223901e-31
5.680000e+02 1.005514e-30
5.690000e+02 1.228522e-30
5.700000e+02 1.499907e-30
5.710000e+02 1.829927e-30
5.720000e+02 2.230967e-30
5.730000e+02 2.717964e-30
5.740000e+02 3.308930e-30
5.750000e+02 4.025557e-30
5.760000e+02 4.894047e-30
5.770000e+02 5.945822e-30
5.780000e+02 7.218455e-30
5.790000e+02 8.757446e-30
5.800000e+02 1.061728e-29
5.810000e+02 1.286331e-29
5.820000e+02 1.557385e-29
5.830000e+02 1.884244e-29
5.840000e+02 2.276766e-29
5.850000e+02 2.752429e-29
5.860000e+02 3.324025e-29
5.870000e+02 4.011161e-29
5.880000e+02 4.837106e-29
5.890000e+02 5.829298e-29
5.900000e+02 7.020405e-29
5.910000e+02 8.449511e-29
5.920000e+02 1.016294e-28
5.930000e+02 1.221601e-28
5.940000e+02 1.467449e-28
5.950000e+02 1.761658e-28
5.960000e+02 2.113522e-28
5.970000e+02 2.534077e-28
5.980000e+02 3.036421e-28
5.990000e+02 3.636092e-28
6.000000e+02 4.351504e-28
6.010000e+02 5.204489e-28
6.020000e+02 6.220870e-28
6.030000e+02 7.431222e-28
6.040000e+02 8.871698e-28
6.050000e+02 1.058503e-27
6.060000e+02 1.262169e-27
6.070000e+02 1.504126e-27
6.080000e+02 1.791404e-27
6.090000e+02 2.132293e-27
6.100000e+02 2.536562e-27
6.110000e+02 3.015718e-27
6.120000e+02 3.583304e-27
6.130000e+02 4.255256e-27
6.140000e+02 5.050309e-27
6.150000e+02 5.990483e-27
6.160000e+02 7.101637e-27
6.170000e+02 8.414129e-27
6.180000e+02 9.963571e-27
6.190000e+02 1.179172e-26
6.200000e+02 1.394753e-26
6.210000e+02 1.648831e-26
6.220000e+02 1.948117e-26
6.230000e+02 2.300461e-26
6.240000e+02 2.715047e-26
6.250000e+02 3.202604e-26
6.260000e+02 3.775669e-26
6.270000e+02 4.448878e-26
6.280000e+02 5.239310e-26
6.290000e+02 6.166884e-26
6.300000e+02 7.254810e-26
6.310000e+02 8.509920e-26
6.320000e+02 1.002444e-25
6.330000e+02 1.177431e-25
6.340000e+02 1.382243e-25
6.350000e+02 1.621726e-25
6.360000e+02 1.901990e-25
6.370000e+02 2.229384e-25
6.380000e+02 2.611796e-25
6.390000e+02 3.058249e-25
6.400000e+02 3.579204e-25
6.410000e+02 4.186789e-25
6.420000e+02 4.895062e-25
6.430000e+02 5.720296e-25
6.440000e+02 6.681331e-25
6.450000e+02 7.799967e-25
6.460000e+02 9.101414e-25
6.470000e+02 1.061481e-24
6.480000e+02 1.237383e-24
6.490000e+02 1.441734e-24
6.500000e+02 1.679022e-24
6.510000e+02 1.954426e-24
6.520000e+02 2.273916e-24
6.530000e+02 2.644373e-24
6.540000e+02 3.073727e-24
6.550000e+02 3.571108e-24
6.560000e+02 4.147027e-24
6.570000e+02 4.813576e-24
6.580000e+02 5.584661e-24
6.590000e+02 6.476267e-24
6.600000e+02 7.506760e-24
6.610000e+02 8.697235e-24
6.620000e+02 1.007190e-23
6.630000e+02 1.165855e-23
6.640000e+02 1.348905e-23
6.650000e+02 1.559992e-23
6.660000e+02 1.803348e-23
6.670000e+02 2.083685e-23
6.680000e+02 2.406532e-23
6.690000e+02 2.778172e-23
6.700000e+02 3.205795e-23
6.710000e+02 3.697618e-23
6.720000e+02 4.263035e-23
6.730000e+02 4.912781e-23
6.740000e+02 5.659110e-23
6.750000e+02 6.516016e-23
6.760000e+02 7.499463e-23
6.770000e+02 8.627663e-23
6.780000e+02 9.921374e-23
6.790000e+02 1.140426e-22
6.800000e+02 1.310327e-22
6.810000e+02 1.504910e-22
6.820000e+02 1.727668e-22
6.830000e+02 1.982576e-22
6.840000e+02 2.274155e-22
6.850000e+02 2.607545e-22
6.860000e+02 2.988586e-22
6.870000e+02 3.423913e-22
6.880000e+02 3.921059e-22
6.890000e+02 4.488577e-22
6.900000e+02 5.136170e-22
6.910000e+02 5.874842e-22
6.920000e+02 6.717071e-22
6.930000e+02 7.676992e-22
6.940000e+02 8.770637e-22
6.950000e+02 1.001613e-21
6.960000e+02 1.143402e-21
6.970000e+02 1.304754e-21
6.980000e+02 1.488297e-21
6.990000e+02 1.697000e-21
7.000000e+02 1.934233e-21
7.010000e+02 2.203781e-21
7.020000e+02 2.509935e-21
7.030000e+02 2.857535e-21
7.040000e+02 3.252044e-21
7.050000e+02 3.699625e-21
7.060000e+02 4.206979e-21
7.070000e+02 4.782695e-21
7.080000e+02 5.434851e-21
7.090000e+02 6.173650e-21
7.100000e+02 7.010294e-21
7.110000e+02 7.957400e-21
7.120000e+02 9.029163e-21
7.130000e+02 1.024155e-20
7.140000e+02 1.161253e-20
7.150000e+02 1.316228e-20
7.160000e+02 1.491350e-20
7.170000e+02 1.689168e-20
7.180000e+02 1.912544e-20
7.190000e+02 2.164691e-20
7.200000e+02 2.449217e-20
7.210000e+02 2.770166e-20
7.220000e+02 3.132077e-20
7.230000e+02 3.540035e-20
7.240000e+02 3.999742e-20
7.250000e+02 4.517585e-20
7.260000e+02 5.100716e-20
7.270000e+02 5.757145e-20
7.280000e+02 6.495834e-20
7.290000e+02 7.326812e-20
7.300000e+02 8.261297e-20
7.310000e+02 9.311812e-20
7.320000e+02 1.049243e-19
7.330000e+02 1.181900e-19
7.340000e+02 1.330859e-19
7.350000e+02 1.498094e-19
7.360000e+02 1.685780e-19
7.370000e+02 1.896375e-19
7.380000e+02 2.132570e-19
7.390000e+02 2.397401e-19
7.400000e+02 2.694245e-19
7.410000e+02 3.026865e-19
7.420000e+02 3.399453e-19
7.430000e+02 3.816681e-19
7.440000e+02 4.283749e-19
7.450000e+02 4.806446e-19
7.460000e+02 5.391212e-19
7.470000e+02 6.045216e-19
7.480000e+02 6.776427e-19
7.490000e+02 7.593707e-19
7.500000e+02 8.506905e-19
7.510000e+02 9.526963e-19
7.520000e+02 1.066604e-18
7.530000e+02 1.193763e-18
7.540000e+02 1.335672e-18
7.550000e+02 1.493995e-18
7.560000e+02 1.670576e-18
7.570000e+02 1.867456e-18
7.580000e+02 2.086922e-18
7.590000e+02 2.331472e-18
7.600000e+02 2.603899e-18
7.610000e+02 2.907292e-18
7.620000e+02 3.245071e-18
7.630000e+02 3.621024e-18
7.640000e+02 4.039342e-18
7.650000e+02 4.504543e-18
7.660000e+02 5.022103e-18
7.670000e+02 5.597394e-18
7.680000e+02 6.236739e-18
7.690000e+02 6.946420e-18
7.700000e+02 7.736206e-18
7.710000e+02 8.612437e-18
7.720000e+02 9.585175e-18
7.730000e+02 1.066475e-17
7.740000e+02 1.186255e-17
7.750000e+02 1.319117e-17
7.760000e+02 1.466448e-17
7.770000e+02 1.629777e-17
7.780000e+02 1.810793e-17
7.790000e+02 2.011356e-17
7.800000e+02 2.233515e-17
7.810000e+02 2.479530e-17
7.820000e+02 2.751887e-17
7.830000e+02 3.053325e-17
7.840000e+02 3.386861e-17
7.850000e+02 3.755813e-17
7.860000e+02 4.163832e-17
7.870000e+02 4.614991e-17
7.880000e+02 5.113601e-17
7.890000e+02 5.664568e-17
7.900000e+02 6.273231e-17
7.910000e+02 6.945454e-17
7.920000e+02 7.686786e-17
7.930000e+02 8.506991e-17
7.940000e+02 9.411153e-17
7.950000e+02 1.040870e-16
7.960000e+02 1.150898e-16
7.970000e+02 1.272229e-16
7.980000e+02 1.405987e-16
7.990000e+02 1.553409e-16
8.000000e+02 1.715850e-16
8.010000e+02 1.894793e-16
8.020000e+02 2.091867e-16
8.030000e+02 2.308854e-16
8.040000e+02 2.547706e-16
8.050000e+02 2.781397e-16
8.060000e+02 3.099717e-16
8.070000e+02 3.417866e-16
8.080000e+02 3.767679e-16
8.090000e+02 4.152269e-16
8.100000e+02 4.574987e-16
8.110000e+02 5.039503e-16
8.120000e+02 5.549825e-16
8.130000e+02 6.110335e-16
8.140000e+02 6.725755e-16
8.150000e+02 7.401512e-16
8.160000e+02 8.143121e-16
8.170000e+02 8.956887e-16
8.180000e+02 9.849619e-16
8.190000e+02 1.082875e-15
8.200000e+02 1.190238e-15
8.210000e+02 1.307933e-15
8.220000e+02 1.436936e-15
8.230000e+02 1.578287e-15
8.240000e+02 1.733137e-15
8.250000e+02 1.902736e-15
8.260000e+02 2.088447e-15
8.270000e+02 2.291753e-15
8.280000e+02 2.514270e-15
8.290000e+02 2.757760e-15
8.300000e+02 3.024137e-15
8.310000e+02 3.315488e-15
8.320000e+02 3.634083e-15
8.330000e+02 3.982391e-15
8.340000e+02 4.363097e-15
8.350000e+02 4.776467e-15
8.360000e+02 5.233649e-15
8.370000e+02 5.730122e-15
8.380000e+02 6.272298e-15
8.390000e+02 6.864253e-15
8.400000e+02 7.510416e-15
8.410000e+02 8.215599e-15
8.420000e+02 8.985025e-15
8.430000e+02 9.824287e-15
8.440000e+02 1.073965e-14
8.450000e+02 1.173714e-14
8.460000e+02 1.282611e-14
8.470000e+02 1.398427e-14
8.480000e+02 1.528669e-14
8.490000e+02 1.671256e-14
8.500000e+02 1.817408e-14
8.510000e+02 1.991653e-14
8.520000e+02 2.161289e-14
8.530000e+02 2.371463e-14
8.540000e+02 2.586901e-14
8.550000e+02 2.821212e-14
8.560000e+02 3.076362e-14
8.570000e+02 3.353747e-14
8.580000e+02 3.652758e-14
8.590000e+02 3.983335e-14
8.600000e+02 4.338188e-14
8.610000e+02 4.727188e-14
8.620000e+02 5.148172e-14
8.630000e+02 5.605461e-14
8.640000e+02 6.053448e-14
8.650000e+02 6.641473e-14
8.660000e+02 7.225699e-14
8.670000e+02 7.862633e-14
8.680000e+02 8.552429e-14
8.690000e+02 9.300877e-14
8.700000e+02 9.896339e-14
8.710000e+02 1.099346e-13
8.720000e+02 1.189958e-13
8.730000e+02 1.298392e-13
8.740000e+02 1.410629e-13
8.750000e+02 1.532271e-13
8.760000e+02 1.663267e-13
8.770000e+02 1.806710e-13
8.780000e+02 1.917364e-13
8.790000e+02 2.124715e-13
8.800000e+02 2.299290e-13
8.810000e+02 2.490510e-13
8.820000e+02 2.719167e-13
8.830000e+02 2.941805e-13
8.840000e+02 3.157117e-13
8.850000e+02 3.467095e-13
8.860000e+02 3.758133e-13
8.870000e+02 4.072920e-13
8.880000e+02 4.398688e-13
8.890000e+02 4.764037e-13
8.900000e+02 5.178538e-13
8.910000e+02 5.606952e-13
8.920000e+02 6.072124e-13
8.930000e+02 6.573268e-13
8.940000e+02 7.093977e-13
8.950000e+02 7.699162e-13
8.960000e+02 8.330167e-13
8.970000e+02 9.011258e-13
8.980000e+02 9.710813e-13
8.990000e+02 1.053847e-12
9.000000e+02 1.137902e-12
9.010000e+02 1.231725e-12
9.020000e+02 1.319987e-12
9.030000e+02 1.367835e-12
9.040000e+02 1.529328e-12
9.050000e+02 1.676764e-12
9.060000e+02 1.813137e-12
9.070000e+02 1.958104e-12
9.080000e+02 2.113982e-12
9.090000e+02 2.281901e-12
9.100000e+02 2.462991e-12
9.110000e+02 2.636938e-12
9.120000e+02 2.867587e-12
9.130000e+02 2.960401e-12
9.140000e+02 3.605263e-12
9.150000e+02 4.160188e-12
9.160000e+02 8.390596e-12
9.170000e+02 5.033260e-12
9.180000e+02 4.977413e-12
9.190000e+02 5.448103e-12
9.200000e+02 3.937242e-11
9.210000e+02 5.657118e-12
9.220000e+02 6.071485e-12
9.230000e+02 7.811580e-12
9.240000e+02 8.533145e-12
9.250000e+02 6.703362e-12
9.260000e+02 1.425014e-11
9.270000e+02 1.064596e-11
9.280000e+02 2.499519e-11
9.290000e+02 8.193225e-11
9.300000e+02 3.264688e-11
9.310000e+02 1.396349e-11
9.320000e+02 1.886887e-11
9.330000e+02 1.103921e-11
9.340000e+02 1.334347e-11
9.350000e+02 1.423975e-11
9.360000e+02 1.994589e-11
9.370000e+02 2.182497e-11
9.380000e+02 1.757875e-11
9.390000e+02 2.141799e-11
9.400000e+02 3.094965e-11
9.410000e+02 1.986897e-11
9.420000e+02 3.985353e-10
9.430000e+02 2.830726e-11
9.440000e+02 2.272260e-10
9.450000e+02 2.123368e-10
9.460000e+02 2.875227e-11
9.470000e+02 3.795413e-11
9.480000e+02 6.624098e-11
9.490000e+02 1.022433e-10
9.500000e+02 4.022976e-11
9.510000e+02 4.262327e-11
9.520000e+02 5.288976e-11
9.530000e+02 6.797918e-11
9.540000e+02 6.004938e-11
9.550000e+02 6.435345e-11
9.560000e+02 1.226890e-10
9.570000e+02 8.069943e-11
9.580000e+02 7.635683e-11
9.590000e+02 7.135690e-11
9.600000e+02 8.003812e-11
9.610000e+02 8.006078e-11
9.620000e+02 8.940224e-11
9.630000e+02 1.309173e-10
9.640000e+02 1.433854e-10
9.650000e+02 1.334323e-10
9.660000e+02 1.495219e-10
9.670000e+02 1.747308e-10
9.680000e+02 1.824993e-10
9.690000e+02 1.514719e-10
9.700000e+02 1.469028e-10
9.710000e+02 2.308391e-10
9.720000e+02 2.333212e-10
9.730000e+02 2.443042e-10
9.740000e+02 1.926978e-10
9.750000e+02 2.563753e-10
9.760000e+02 4.031736e-10
9.770000e+02 2.517960e-10
9.780000e+02 2.495223e-10
9.790000e+02 3.606572e-09
9.800000e+02 7.578952e-10
9.810000e+02 3.245861e-10
9.820000e+02 4.439197e-10
9.830000e+02 7.712085e-10
9.840000e+02 5.072591e-10
9.850000e+02 4.949868e-10
9.860000e+02 4.866163e-10
9.870000e+02 5.943313e-10
9.880000e+02 6.050557e-10
9.890000e+02 5.183705e-10
9.900000e+02 7.312833e-10
9.910000e+02 8.098093e-10
9.920000e+02 7.277046e-10
9.930000e+02 2.190245e-09
9.940000e+02 8.276330e-10
9.950000e+02 7.519044e-10
9.960000e+02 1.120570e-09
9.970000e+02 1.308982e-09
9.980000e+02 1.103104e-09
9.990000e+02 1.355453e-09
1.000000e+03 1.206098e-08
1.001000e+03 6.372037e-09
1.002000e+03 2.405639e-09
1.003000e+03 1.786029e-09
1.004000e+03 1.600494e-09
1.005000e+03 1.711471e-09
1.006000e+03 2.312477e-09
1.007000e+03 4.109045e-09
1.008000e+03 2.087068e-09
1.009000e+03 2.566365e-09
1.010000e+03 2.080330e-09
1.011000e+03 2.103057e-09
1.012000e+03 2.829155e-09
1.013000e+03 3.056977e-09
1.014000e+03 2.880116e-09
1.015000e+03 3.193926e-09
1.016000e+03 3.395919e-09
1.017000e+03 3.453333e-09
1.018000e+03 4.550761e-09
1.019000e+03 3.969078e-09
1.020000e+03 4.520992e-09
1.021000e+03 5.065321e-09
1.022000e+03 5.216402e-09
1.023000e+03 5.414441e-09
1.024000e+03 1.021165e-08
1.025000e+03 5.591618e-09
1.026000e+03 7.074857e-09
1.027000e+03 5.578508e-09
1.028000e+03 6.059921e-09
1.029000e+03 7.095780e-09
1.030000e+03 7.686205e-09
1.031000e+03 6.897448e-09
1.032000e+03 1.495987e-08
1.033000e+03 9.769100e-09
1.034000e+03 8.363083e-09
1.035000e+03 9.332189e-09
1.036000e+03 1.072926e-08
1.037000e+03 1.090741e-08
1.038000e+03 2.593820e-08
1.039000e+03 1.369483e-08
1.040000e+03 1.166925e-08
1.041000e+03 1.856572e-08
1.042000e+03 2.402903e-08
1.043000e+03 3.885862e-08
1.044000e+03 1.044158e-07
1.045000e+03 1.849697e-08
1.046000e+03 1.659157e-08
1.047000e+03 1.746476e-08
1.048000e+03 2.597260e-08
1.049000e+03 1.966360e-08
1.050000e+03 2.560385e-08
1.051000e+03 2.925610e-08
1.052000e+03 4.189177e-08
1.053000e+03 4.232212e-08
1.054000e+03 3.011082e-08
1.055000e+03 5.252126e-08
1.056000e+03 6.117279e-08
1.057000e+03 3.263479e-08
1.058000e+03 4.558304e-08
1.059000e+03 4.462868e-08
1.060000e+03 5.044955e-08
1.061000e+03 4.835761e-08
1.062000e+03 5.772497e-08
1.063000e+03 4.885331e-08
1.064000e+03 5.677120e-08
1.065000e+03 5.560573e-08
1.066000e+03 6.936585e-08
1.067000e+03 7.591487e-08
1.068000e+03 1.498110e-07
1.069000e+03 7.810115e-08
1.070000e+03 7.096452e-08
1.071000e+03 7.794640e-08
1.072000e+03 5.021983e-07
1.073000e+03 8.645753e-08
1.074000e+03 7.889081e-08
1.075000e+03 8.378731e-08
1.076000e+03 5.143719e-07
1.077000e+03 1.308403e-07
1.078000e+03 1.383070e-07
1.079000e+03 1.277334e-07
1.080000e+03 1.086198e-07
1.081000e+03 1.613362e-07
1.082000e+03 1.332824e-07
1.083000e+03 1.278565e-07
1.084000e+03 1.319990e-06
1.085000e+03 1.634487e-07
1.086000e+03 3.726792e-07
1.087000e+03 2.220550e-07
1.088000e+03 8.933713e-07
1.089000e+03 1.218375e-06
1.090000e+03 2.291132e-07
1.091000e+03 2.215502e-07
1.092000e+03 1.015848e-06
1.093000e+03 2.057714e-06
1.094000e+03 2.275239e-07
1.095000e+03 2.875409e-06
1.096000e+03 1.926763e-06
1.097000e+03 7.922773e-07
1.098000e+03 1.797818e-06
1.099000e+03 3.217983e-07
1.100000e+03 3.825486e-07
1.101000e+03 4.483400e-07
1.102000e+03 3.917670e-07
1.103000e+03 6.762064e-06
1.104000e+03 1.550605e-06
1.105000e+03 4.285633e-06
1.106000e+03 4.240003e-07
1.107000e+03 5.760756e-07
1.108000e+03 8.584944e-07
1.109000e+03 6.346386e-07
1.110000e+03 1.659982e-06
1.111000e+03 3.593077e-06
1.112000e+03 6.584009e-07
1.113000e+03 8.435522e-06
1.114000e+03 6.431702e-07
1.115000e+03 8.858591e-07
1.116000e+03 9.740100e-07
1.117000e+03 5.290444e-06
1.118000e+03 9.741494e-07
1.119000e+03 8.406739e-07
1.120000e+03 1.203516e-06
1.121000e+03 2.322177e-06
1.122000e+03 2.819475e-05
1.123000e+03 6.405680e-06
1.124000e+03 7.283053e-06
1.125000e+03 3.376165e-06
1.126000e+03 6.299127e-05
1.127000e+03 2.590566e-06
1.128000e+03 1.689861e-05
1.129000e+03 1.737467e-06
1.130000e+03 1.710806e-05
1.131000e+03 4.107284e-05
1.132000e+03 2.163474e-06
1.133000e+03 1.666969e-06
1.134000e+03 3.422214e-06
1.135000e+03 3.001649e-05
1.136000e+03 1.884214e-06
1.137000e+03 1.152224e-05
1.138000e+03 2.952099e-06
1.139000e+03 2.592873e-05
1.140000e+03 1.029975e-05
1.141000e+03 6.319826e-05
1.142000e+03 4.793265e-05
1.143000e+03 2.980945e-06
1.144000e+03 6.920292e-05
1.145000e+03 3.872607e-06
1.146000e+03 4.148440e-05
1.147000e+03 4.603733e-05
1.148000e+03 4.243460e-06
1.149000e+03 1.355918e-05
1.150000e+03 1.125679e-05
1.151000e+03 3.777197e-05
1.152000e+03 8.342830e-06
1.153000e+03 7.718697e-05
1.154000e+03 1.974875e-04
1.155000e+03 2.117383e-05
1.156000e+03 1.018157e-04
1.157000e+03 1.230268e-04
1.158000e+03 5.970549e-06
1.159000e+03 7.429613e-05
1.160000e+03 8.535006e-06
1.161000e+03 8.010492e-05
1.162000e+03 6.952014e-06
1.163000e+03 7.065188e-06
1.164000e+03 7.649940e-06
1.165000e+03 2.028003e-05
1.166000e+03 1.613660e-05
1.167000e+03 1.828731e-05
1.168000e+03 8.913845e-05
1.169000e+03 2.366500e-04
1.170000e+03 1.111765e-05
1.171000e+03 9.255541e-05
1.172000e+03 2.274275e-05
1.173000e+03 9.267109e-05
1.174000e+03 1.526644e-05
1.175000e+03 1.256096e-05
1.176000e+03 1.481378e-05
1.177000e+03 3.388415e-04
1.178000e+03 3.721135e-04
1.179000e+03 2.286397e-04
1.180000e+03 4.453350e-05
1.181000e+03 3.197225e-04
1.182000e+03 1.567401e-04
1.183000e+03 3.848880e-05
1.184000e+03 3.236317e-05
1.185000e+03 3.593750e-05
1.186000e+03 2.467478e-05
1.187000e+03 1.287088e-04
1.188000e+03 3.244610e-05
1.189000e+03 2.926789e-04
1.190000e+03 2.512190e-04
1.191000e+03 1.300861e-04
1.192000e+03 1.967131e-04
1.193000e+03 8.995997e-05
1.194000e+03 2.015925e-04
1.195000e+03 1.727674e-04
1.196000e+03 5.554666e-04
1.197000e+03 7.341750e-03
1.198000e+03 3.768457e-05
1.199000e+03 7.024229e-03
1.200000e+03 3.494729e-05
1.201000e+03 1.488058e-03
1.202000e+03 1.134870e-04
1.203000e+03 1.180519e-03
1.204000e+03 4.165135e-05
1.205000e+03 6.687651e-04
1.206000e+03 5.487229e-04
1.207000e+03 2.571950e-04
1.208000e+03 5.113174e-04
1.209000e+03 2.753007e-03
1.210000e+03 6.192911e-05
1.211000e+03 7.334074e-04
1.212000e+03 7.310655e-05
1.213000e+03 3.873616e-04
1.214000e+03 1.188259e-04
1.215000e+03 7.649329e-05
1.216000e+03 8.952838e-05
1.217000e+03 9.409561e-05
1.218000e+03 3.371043e-04
1.219000e+03 5.849468e-04
1.220000e+03 8.211624e-05
1.221000e+03 1.109072e-03
1.222000e+03 2.877121e-04
1.223000e+03 1.378248e-04
1.224000e+03 3.382782e-03
1.225000e+03 1.209681e-04
1.226000e+03 8.532585e-03
1.227000e+03 5.017293e-03
1.228000e+03 1.193600e-04
1.229000e+03 2.083415e-03
1.230000e+03 9.158095e-04
1.231000e+03 1.299521e-04
1.232000e+03 1.592684e-02
1.233000e+03 2.262761e-02
1.234000e+03 2.351463e-02
1.235000e+03 4.902762e-03
1.236000e+03 1.740174e-04
1.237000e+03 1.784096e-02
1.238000e+03 8.941452e-03
1.239000e+03 5.391170e-04
1.240000e+03 9.294583e-03
1.241000e+03 1.208794e-03
1.242000e+03 4.043320e-03
1.243000e+03 2.078132e-02
1.244000e+03 2.434904e-02
1.245000e+03 2.155699e-02
1.246000e+03 2.524695e-03
1.247000e+03 5.030392e-03
1.248000e+03 2.596380e-02
1.249000e+03 3.635434e-02
1.250000e+03 1.665326e-02
1.251000e+03 2.728119e-02
1.252000e+03 1.057000e-02
1.253000e+03 3.698806e-02
1.254000e+03 1.065274e-02
1.255000e+03 5.262881e-03
1.256000e+03 6.678402e-03
1.257000e+03 1.289264e-02
1.258000e+03 1.752531e-03
1.259000e+03 2.734281e-03
1.260000e+03 2.744615e-02
1.261000e+03 1.070764e-03
1.262000e+03 3.017902e-02
1.263000e+03 1.606023e-02
1.264000e+03 2.406150e-03
1.265000e+03 6.164836e-03
1.266000e+03 2.910110e-02
1.267000e+03 5.922512e-03
