# wavelength_A flux
5.000000e+02 1.294193e-25
5.010000e+02 1.587291e-25
5.020000e+02 1.945159e-25
5.030000e+02 2.381753e-25
5.040000e+02 2.913964e-25
5.050000e+02 4.150432e-25
5.060000e+02 5.065987e-25
5.070000e+02 6.172382e-25
5.080000e+02 7.524393e-25
5.090000e+02 9.158796e-25
5.100000e+02 7.182922e-25
5.110000e+02 1.353838e-24
5.120000e+02 1.642436e-24
5.130000e+02 1.995027e-24
5.140000e+02 2.419064e-24
5.150000e+02 2.930851e-24
5.160000e+02 3.548237e-24
5.170000e+02 4.292875e-24
5.180000e+02 5.190161e-24
5.190000e+02 6.269883e-24
5.200000e+02 7.568654e-24
5.210000e+02 9.129694e-24
5.220000e+02 1.099722e-23
5.230000e+02 1.325532e-23
5.240000e+02 1.595561e-23
5.250000e+02 1.919175e-23
5.260000e+02 2.306774e-23
5.270000e+02 2.770700e-23
5.280000e+02 3.325597e-23
5.290000e+02 3.987075e-23
5.300000e+02 4.781064e-23
5.310000e+02 5.726681e-23
5.320000e+02 6.854625e-23
5.330000e+02 8.199144e-23
5.340000e+02 9.800732e-23
5.350000e+02 1.170721e-22
5.360000e+02 1.397462e-22
5.370000e+02 1.548205e-22
5.380000e+02 1.987355e-22
5.390000e+02 2.367875e-22
5.400000e+02 2.819192e-22
5.410000e+02 3.353395e-22
5.420000e+02 3.988351e-22
5.430000e+02 4.739375e-22
5.440000e+02 5.628086e-22
5.450000e+02 6.679188e-22
5.460000e+02 7.918994e-22
5.470000e+02 9.389127e-22
5.480000e+02 1.112159e-21
5.490000e+02 1.316551e-21
5.500000e+02 1.557541e-21
5.510000e+02 1.841506e-21
5.520000e+02 2.175908e-21
5.530000e+02 2.569466e-21
5.540000e+02 3.032367e-21
5.550000e+02 3.576502e-21
5.560000e+02 4.215746e-21
5.570000e+02 4.966278e-21
5.580000e+02 5.846954e-21
5.590000e+02 6.879735e-21
5.600000e+02 8.090184e-21
5.610000e+02 9.508047e-21
5.620000e+02 1.116790e-20
5.630000e+02 1.310994e-20
5.640000e+02 1.538084e-20
5.650000e+02 1.803476e-20
5.660000e+02 2.113460e-20
5.670000e+02 2.475320e-20
5.680000e+02 2.897504e-20
5.690000e+02 3.389794e-20
5.700000e+02 3.963514e-20
5.710000e+02 4.631766e-20
5.720000e+02 5.409701e-20
5.730000e+02 6.314827e-20
5.740000e+02 7.367369e-20
5.750000e+02 8.590677e-20
5.760000e+02 1.001036e-19
5.770000e+02 1.166292e-19
5.780000e+02 1.357754e-19
5.790000e+02 1.579804e-19
5.800000e+02 1.837194e-19
5.810000e+02 2.135387e-19
5.820000e+02 2.480649e-19
5.830000e+02 2.880070e-19
5.840000e+02 3.336766e-19
5.850000e+02 3.875485e-19
5.860000e+02 4.494555e-19
5.870000e+02 5.208131e-19
5.880000e+02 6.031751e-19
5.890000e+02 6.981989e-19
5.900000e+02 8.077947e-19
5.910000e+02 9.341188e-19
5.920000e+02 1.079659e-18
5.930000e+02 1.247257e-18
5.940000e+02 1.440160e-18
5.950000e+02 1.662083e-18
5.960000e+02 1.917266e-18
5.970000e+02 2.210555e-18
5.980000e+02 2.547477e-18
5.990000e+02 2.934340e-18
6.000000e+02 3.378335e-18
6.010000e+02 3.887656e-18
6.020000e+02 4.471654e-18
6.030000e+02 5.140949e-18
6.040000e+02 5.907649e-18
6.050000e+02 6.785526e-18
6.060000e+02 7.790223e-18
6.070000e+02 8.939572e-18
6.080000e+02 1.025376e-17
6.090000e+02 1.175577e-17
6.100000e+02 1.347166e-17
6.110000e+02 1.543101e-17
6.120000e+02 1.766736e-17
6.130000e+02 2.021874e-17
6.140000e+02 2.312824e-17
6.150000e+02 2.644466e-17
6.160000e+02 3.022327e-17
6.170000e+02 3.452658e-17
6.180000e+02 3.942535e-17
6.190000e+02 4.499955e-17
6.200000e+02 5.133959e-17
6.210000e+02 5.854760e-17
6.220000e+02 6.673892e-17
6.230000e+02 7.604375e-17
6.240000e+02 8.660902e-17
6.250000e+02 9.860042e-17
6.260000e+02 1.122049e-16
6.270000e+02 1.276328e-16
6.280000e+02 1.451215e-16
6.290000e+02 1.649380e-16
6.300000e+02 1.873829e-16
6.310000e+02 2.121000e-16
6.320000e+02 2.415535e-16
6.330000e+02 2.740824e-16
6.340000e+02 3.108767e-16
6.350000e+02 3.524320e-16
6.360000e+02 3.994489e-16
6.370000e+02 4.525192e-16
6.380000e+02 5.124369e-16
6.390000e+02 5.800584e-16
6.400000e+02 6.563444e-16
6.410000e+02 7.423714e-16
6.420000e+02 8.393458e-16
6.430000e+02 9.486186e-16
6.440000e+02 1.071702e-15
6.450000e+02 1.210289e-15
6.460000e+02 1.366274e-15
6.470000e+02 1.541736e-15
6.480000e+02 1.739091e-15
6.490000e+02 1.960994e-15
6.500000e+02 2.210375e-15
6.510000e+02 2.490545e-15
6.520000e+02 2.805167e-15
6.530000e+02 3.158360e-15
6.540000e+02 3.554706e-15
6.550000e+02 3.999323e-15
6.560000e+02 4.497900e-15
6.570000e+02 5.056705e-15
6.580000e+02 5.683056e-15
6.590000e+02 6.384578e-15
6.600000e+02 7.170114e-15
6.610000e+02 8.049419e-15
6.620000e+02 9.033334e-15
6.630000e+02 1.013392e-14
6.640000e+02 1.136458e-14
6.650000e+02 1.274020e-14
6.660000e+02 1.427792e-14
6.670000e+02 1.599500e-14
6.680000e+02 1.791235e-14
6.690000e+02 2.005262e-14
6.700000e+02 2.244089e-14
6.710000e+02 2.510500e-14
6.720000e+02 2.807583e-14
6.730000e+02 3.138755e-14
6.740000e+02 3.507805e-14
6.750000e+02 3.918930e-14
6.760000e+02 4.376773e-14
6.770000e+02 4.886477e-14
6.780000e+02 5.453728e-14
6.790000e+02 6.084817e-14
6.800000e+02 6.786701e-14
6.810000e+02 7.567080e-14
6.820000e+02 8.434442e-14
6.830000e+02 9.398172e-14
6.840000e+02 1.046863e-13
6.850000e+02 1.165727e-13
6.860000e+02 1.297670e-13
6.870000e+02 1.444087e-13
6.880000e+02 1.606506e-13
6.890000e+02 1.786609e-13
6.900000e+02 1.986277e-13
6.910000e+02 2.207589e-13
6.920000e+02 2.452810e-13
6.930000e+02 2.724424e-13
6.940000e+02 3.025177e-13
6.950000e+02 3.358096e-13
6.960000e+02 3.726506e-13
6.970000e+02 4.133978e-13
6.980000e+02 4.584798e-13
6.990000e+02 5.083137e-13
7.000000e+02 5.633943e-13
7.010000e+02 6.242558e-13
7.020000e+02 6.914852e-13
7.030000e+02 7.657268e-13
7.040000e+02 8.476880e-13
7.050000e+02 9.381450e-13
7.060000e+02 1.037361e-12
7.070000e+02 1.148035e-12
7.080000e+02 1.269427e-12
7.090000e+02 1.403246e-12
7.100000e+02 1.550725e-12
7.110000e+02 1.713210e-12
7.120000e+02 1.892178e-12
7.130000e+02 2.089245e-12
7.140000e+02 2.306180e-12
7.150000e+02 2.544920e-12
7.160000e+02 2.807584e-12
7.170000e+02 3.096481e-12
7.180000e+02 3.414123e-12
7.190000e+02 3.763389e-12
7.200000e+02 4.147182e-12
7.210000e+02 4.568854e-12
7.220000e+02 5.032016e-12
7.230000e+02 5.540614e-12
7.240000e+02 6.098954e-12
7.250000e+02 6.711736e-12
7.260000e+02 7.384091e-12
7.270000e+02 8.121612e-12
7.280000e+02 8.930402e-12
7.290000e+02 9.817112e-12
7.300000e+02 1.078900e-11
7.310000e+02 1.185395e-11
7.320000e+02 1.302060e-11
7.330000e+02 1.429865e-11
7.340000e+02 1.569766e-11
7.350000e+02 1.722906e-11
7.360000e+02 1.890488e-11
7.370000e+02 2.073851e-11
7.380000e+02 2.274404e-11
7.390000e+02 2.493712e-11
7.400000e+02 2.733468e-11
7.410000e+02 2.995516e-11
7.420000e+02 3.281852e-11
7.430000e+02 3.594653e-11
7.440000e+02 3.936278e-11
7.450000e+02 4.309291e-11
7.460000e+02 4.716478e-11
7.470000e+02 5.160858e-11
7.480000e+02 5.645711e-11
7.490000e+02 6.174596e-11
7.500000e+02 6.751369e-11
7.510000e+02 7.380217e-11
7.520000e+02 8.065676e-11
7.530000e+02 8.812664e-11
7.540000e+02 9.626509e-11
7.550000e+02 1.051298e-10
7.560000e+02 1.147834e-10
7.570000e+02 1.252916e-10
7.580000e+02 1.367337e-10
7.590000e+02 1.491827e-10
7.600000e+02 1.627274e-10
7.610000e+02 1.774599e-10
7.620000e+02 1.934810e-10
7.630000e+02 2.108993e-10
7.640000e+02 2.298323e-10
7.650000e+02 2.504034e-10
7.660000e+02 2.727613e-10
7.670000e+02 2.970427e-10
7.680000e+02 3.234104e-10
7.690000e+02 3.519418e-10
7.700000e+02 3.831187e-10
7.710000e+02 4.168464e-10
7.720000e+02 4.534404e-10
7.730000e+02 4.931366e-10
7.740000e+02 5.361883e-10
7.750000e+02 5.828690e-10
7.760000e+02 6.334674e-10
7.770000e+02 6.883196e-10
7.780000e+02 7.477500e-10
7.790000e+02 8.121340e-10
7.800000e+02 8.818695e-10
7.810000e+02 9.573852e-10
7.820000e+02 1.039142e-09
7.830000e+02 1.127639e-09
7.840000e+02 1.223409e-09
7.850000e+02 1.327029e-09
7.860000e+02 1.439119e-09
7.870000e+02 1.560360e-09
7.880000e+02 1.691442e-09
7.890000e+02 1.833150e-09
7.900000e+02 1.986313e-09
7.910000e+02 2.151824e-09
7.920000e+02 2.330367e-09
7.930000e+02 2.523723e-09
7.940000e+02 2.732390e-09
7.950000e+02 2.957619e-09
7.960000e+02 3.200756e-09
7.970000e+02 3.463173e-09
7.980000e+02 3.746343e-09
7.990000e+02 4.051844e-09
8.000000e+02 4.381373e-09
8.010000e+02 4.736749e-09
8.020000e+02 5.119923e-09
8.030000e+02 5.532988e-09
8.040000e+02 5.978188e-09
8.050000e+02 6.397769e-09
8.060000e+02 6.973832e-09
8.070000e+02 7.531544e-09
8.080000e+02 8.131119e-09
8.090000e+02 8.776758e-09
8.100000e+02 9.471794e-09
8.110000e+02 1.021989e-08
8.120000e+02 1.102494e-08
8.130000e+02 1.189112e-08
8.140000e+02 1.282289e-08
8.150000e+02 1.382503e-08
8.160000e+02 1.490267e-08
8.170000e+02 1.606125e-08
8.180000e+02 1.730663e-08
8.190000e+02 1.864507e-08
8.200000e+02 2.008326e-08
8.210000e+02 2.162833e-08
8.220000e+02 2.328794e-08
8.230000e+02 2.507025e-08
8.240000e+02 2.698398e-08
8.250000e+02 2.903844e-08
8.260000e+02 3.124359e-08
8.270000e+02 3.361006e-08
8.280000e+02 3.614918e-08
8.290000e+02 3.887306e-08
8.300000e+02 4.179465e-08
8.310000e+02 4.492771e-08
8.320000e+02 4.828696e-08
8.330000e+02 5.188811e-08
8.340000e+02 5.574789e-08
8.350000e+02 5.986350e-08
8.360000e+02 6.431544e-08
8.370000e+02 6.906350e-08
8.380000e+02 7.414850e-08
8.390000e+02 7.959396e-08
8.400000e+02 8.542443e-08
8.410000e+02 9.166608e-08
8.420000e+02 9.834476e-08
8.430000e+02 1.054961e-07
8.440000e+02 1.131465e-07
8.450000e+02 1.213301e-07
8.460000e+02 1.300833e-07
8.470000e+02 1.394443e-07
8.480000e+02 1.494537e-07
8.490000e+02 1.601544e-07
8.500000e+02 1.715924e-07
8.510000e+02 1.838166e-07
8.520000e+02 1.968784e-07
8.530000e+02 2.108337e-07
8.540000e+02 2.257405e-07
8.550000e+02 2.416612e-07
8.560000e+02 2.586623e-07
8.570000e+02 2.768139e-07
8.580000e+02 2.960609e-07
8.590000e+02 3.168724e-07
8.600000e+02 3.389431e-07
8.610000e+02 3.624797e-07
8.620000e+02 3.876151e-07
8.630000e+02 4.144124e-07
8.640000e+02 4.429911e-07
8.650000e+02 4.734655e-07
8.660000e+02 5.059558e-07
8.670000e+02 5.405898e-07
8.680000e+02 5.775033e-07
8.690000e+02 6.168402e-07
8.700000e+02 6.587509e-07
8.710000e+02 7.034042e-07
8.720000e+02 7.509643e-07
8.730000e+02 8.016161e-07
8.740000e+02 8.555517e-07
8.750000e+02 9.129755e-07
8.760000e+02 9.741037e-07
8.770000e+02 1.039165e-06
8.780000e+02 1.108402e-06
8.790000e+02 1.182075e-06
8.800000e+02 1.260449e-06
8.810000e+02 1.343823e-06
8.820000e+02 1.432494e-06
8.830000e+02 1.526785e-06
8.840000e+02 1.627039e-06
8.850000e+02 1.733619e-06
8.860000e+02 1.846906e-06
8.870000e+02 1.967304e-06
8.880000e+02 2.095241e-06
8.890000e+02 2.231170e-06
8.900000e+02 2.375571e-06
8.910000e+02 2.528947e-06
8.920000e+02 2.690996e-06
8.930000e+02 2.864797e-06
8.940000e+02 3.048432e-06
8.950000e+02 3.243372e-06
8.960000e+02 3.450282e-06
8.970000e+02 3.669866e-06
8.980000e+02 3.902868e-06
8.990000e+02 4.150075e-06
9.000000e+02 4.412313e-06
9.010000e+02 4.690461e-06
9.020000e+02 4.985436e-06
9.030000e+02 5.298168e-06
9.040000e+02 5.629843e-06
9.050000e+02 5.981398e-06
9.060000e+02 6.353897e-06
9.070000e+02 6.748895e-06
9.080000e+02 7.167363e-06
9.090000e+02 7.610711e-06
9.100000e+02 8.080375e-06
9.110000e+02 8.577903e-06
9.120000e+02 9.105428e-06
9.130000e+02 9.462959e-06
9.140000e+02 1.305039e-05
9.150000e+02 1.706086e-03
9.160000e+02 1.046863e-02
9.170000e+02 2.105371e-03
9.180000e+02 2.176459e-03
9.190000e+02 2.685572e-02
9.200000e+02 6.759047e-02
9.210000e+02 1.519453e-05
9.220000e+02 6.141595e-02
9.230000e+02 8.355504e-04
9.240000e+02 6.509535e-03
9.250000e+02 2.913420e-02
9.260000e+02 2.981562e-03
9.270000e+02 4.580708e-03
9.280000e+02 2.959633e-01
9.290000e+02 2.818847e-01
9.300000e+02 7.953472e-02
9.310000e+02 1.564191e-03
9.320000e+02 2.391747e-01
9.330000e+02 1.439916e-01
9.340000e+02 6.139654e-02
9.350000e+02 1.026844e-03
9.360000e+02 1.015387e-02
9.370000e+02 4.345011e-04
9.380000e+02 7.102832e-04
9.390000e+02 1.906234e-02
9.400000e+02 4.403722e-01
9.410000e+02 4.484380e-02
9.420000e+02 7.526006e-01
9.430000e+02 3.455323e-02
9.440000e+02 7.945079e-01
9.450000e+02 8.159711e-01
9.460000e+02 3.527439e-01
9.470000e+02 2.156287e-03
9.480000e+02 3.276748e-01
9.490000e+02 3.920957e-02
9.500000e+02 8.062387e-04
9.510000e+02 1.291619e-01
9.520000e+02 3.603469e-01
9.530000e+02 7.682644e-03
9.540000e+02 2.439430e-03
9.550000e+02 9.481966e-02
9.560000e+02 1.192929e+00
9.570000e+02 2.928758e-02
9.580000e+02 1.005471e-03
9.590000e+02 1.414340e+00
9.600000e+02 1.698047e-03
9.610000e+02 5.119870e-01
9.620000e+02 2.154967e-01
9.630000e+02 7.983255e-02
9.640000e+02 4.867017e-04
9.650000e+02 5.730391e-03
9.660000e+02 1.018838e-01
9.670000e+02 2.152240e-02
9.680000e+02 1.293755e-02
9.690000e+02 3.861517e-01
9.700000e+02 2.828355e-01
9.710000e+02 2.153974e-02
9.720000e+02 6.436687e-03
9.730000e+02 7.591519e-03
9.740000e+02 1.793019e-01
9.750000e+02 1.420559e-01
9.760000e+02 1.340194e+00
9.770000e+02 1.218741e+00
9.780000e+02 5.952020e-01
9.790000e+02 3.164800e+00
9.800000e+02 3.420417e+00
9.810000e+02 5.800011e-01
9.820000e+02 1.132960e-01
9.830000e+02 3.572250e+00
9.840000e+02 1.430861e-01
9.850000e+02 3.093841e-01
9.860000e+02 4.006863e-01
9.870000e+02 4.273623e+00
9.880000e+02 1.289225e-02
9.890000e+02 1.775774e+00
9.900000e+02 1.288540e-01
9.910000e+02 8.226825e-02
9.920000e+02 4.416816e-03
9.930000e+02 5.458057e+00
9.940000e+02 1.877844e-03
9.950000e+02 3.790830e-01
9.960000e+02 3.731394e-02
9.970000e+02 1.903391e-01
9.980000e+02 3.765367e+00
9.990000e+02 1.349966e-01
1.000000e+03 7.795527e+00
1.001000e+03 7.419825e+00
1.002000e+03 8.117363e+00
1.003000e+03 2.097692e-01
1.004000e+03 2.248955e-02
1.005000e+03 5.499201e-01
1.006000e+03 8.055291e+00
1.007000e+03 9.556901e+00
1.008000e+03 6.375184e+00
1.009000e+03 3.136739e-01
1.010000e+03 6.803383e+00
1.011000e+03 8.982761e+00
1.012000e+03 7.452391e+00
1.013000e+03 6.851188e+00
1.014000e+03 1.120901e-02
1.015000e+03 3.066921e-02
1.016000e+03 5.511870e-01
1.017000e+03 1.091385e-02
1.018000e+03 3.120193e-01
1.019000e+03 3.067017e-02
1.020000e+03 7.915703e+00
1.021000e+03 2.838016e-01
1.022000e+03 4.633269e-01
1.023000e+03 5.254245e-02
1.024000e+03 7.223108e-01
1.025000e+03 1.124026e-02
1.026000e+03 8.486624e-03
1.027000e+03 3.183015e-01
1.028000e+03 3.078830e-02
1.029000e+03 2.012920e-02
1.030000e+03 2.530152e+00
1.031000e+03 2.720457e+00
1.032000e+03 1.468517e+01
1.033000e+03 2.637730e-01
1.034000e+03 5.230086e+00
1.035000e+03 2.202225e-02
1.036000e+03 3.312111e-02
1.037000e+03 2.282425e+01
1.038000e+03 4.906967e+01
1.039000e+03 2.632251e+01
1.040000e+03 3.145297e+01
1.041000e+03 6.184149e+01
1.042000e+03 5.267166e+01
1.043000e+03 4.270166e+01
1.044000e+03 7.627175e+01
1.045000e+03 2.733509e-02
1.046000e+03 3.968722e+01
1.047000e+03 9.927933e+00
1.048000e+03 3.576336e-01
1.049000e+03 1.358767e+01
1.050000e+03 5.095448e+00
1.051000e+03 2.687057e+00
1.052000e+03 6.543673e+01
1.053000e+03 9.151714e+01
1.054000e+03 5.847168e-02
1.055000e+03 9.586805e+01
1.056000e+03 1.029414e+02
1.057000e+03 2.441057e+01
1.058000e+03 3.329961e+00
1.059000e+03 7.286453e-01
1.060000e+03 5.417099e-01
1.061000e+03 3.678046e+01
1.062000e+03 1.711789e+00
1.063000e+03 8.674368e+00
1.064000e+03 4.832458e-02
1.065000e+03 9.678650e-02
1.066000e+03 4.461284e+01
1.067000e+03 1.260078e+00
1.068000e+03 1.614932e+02
1.069000e+03 3.916039e-01
1.070000e+03 2.328461e+01
1.071000e+03 1.414851e+02
1.072000e+03 1.617884e+02
1.073000e+03 1.805878e-01
1.074000e+03 2.564026e+01
1.075000e+03 1.541080e+01
1.076000e+03 1.717152e+02
1.077000e+03 7.029877e-01
1.078000e+03 3.783722e+00
1.079000e+03 1.554742e+01
1.080000e+03 3.735669e+01
1.081000e+03 1.021669e+02
1.082000e+03 7.611032e+01
1.083000e+03 4.615074e+01
1.084000e+03 2.608179e+02
1.085000e+03 1.386900e+01
1.086000e+03 2.639923e+02
1.087000e+03 2.987061e+00
1.088000e+03 2.984305e+02
1.089000e+03 3.054232e+02
1.090000e+03 1.096739e+01
1.091000e+03 1.360547e+01
1.092000e+03 3.078540e+02
1.093000e+03 3.246996e+02
1.094000e+03 1.130998e+02
1.095000e+03 3.619929e+02
1.096000e+03 3.615392e+01
1.097000e+03 2.172026e+02
1.098000e+03 3.737562e+02
1.099000e+03 4.171194e+01
1.100000e+03 1.285860e+00
1.101000e+03 3.001255e+00
1.102000e+03 2.127654e+01
1.103000e+03 4.272998e+02
1.104000e+03 4.705878e+02
1.105000e+03 4.587103e+02
1.106000e+03 9.605998e+01
1.107000e+03 1.571564e+00
1.108000e+03 3.176652e+02
1.109000e+03 1.237161e+01
1.110000e+03 5.190852e+02
1.111000e+03 4.649461e+02
1.112000e+03 2.139205e+02
1.113000e+03 4.629900e+02
1.114000e+03 1.432911e+02
1.115000e+03 1.779031e+01
1.116000e+03 1.075954e+01
1.117000e+03 5.156102e+02
1.118000e+03 1.932954e+01
1.119000e+03 2.895337e+02
1.120000e+03 1.180811e+01
1.121000e+03 5.326666e+02
1.122000e+03 1.871937e+02
1.123000e+03 7.354979e+02
1.124000e+03 8.120779e+02
1.125000e+03 5.845302e+02
1.126000e+03 9.485632e+02
1.127000e+03 7.265630e+02
1.128000e+03 5.666583e+02
1.129000e+03 4.591747e+02
1.130000e+03 7.848387e+02
1.131000e+03 7.521735e+02
1.132000e+03 1.955356e+01
1.133000e+03 6.752319e+01
1.134000e+03 4.578428e+02
1.135000e+03 1.941686e+02
1.136000e+03 1.504212e+02
1.137000e+03 7.113745e+02
1.138000e+03 4.127337e+02
1.139000e+03 8.205509e+02
1.140000e+03 6.844518e+02
1.141000e+03 7.966282e+02
1.142000e+03 8.411503e+02
1.143000e+03 5.754562e+02
1.144000e+03 8.407056e+02
1.145000e+03 9.904297e+00
1.146000e+03 8.898362e+02
1.147000e+03 8.706755e+02
1.148000e+03 5.208112e+01
1.149000e+03 8.010827e+02
1.150000e+03 6.900398e+02
1.151000e+03 9.044880e+02
1.152000e+03 8.588872e+02
1.153000e+03 8.574962e+02
1.154000e+03 8.984969e+02
1.155000e+03 7.539172e+02
1.156000e+03 7.700880e+02
1.157000e+03 8.552584e+02
1.158000e+03 5.877354e+02
1.159000e+03 8.836267e+02
1.160000e+03 5.741829e+02
1.161000e+03 8.465466e+02
1.162000e+03 1.633856e+02
1.163000e+03 3.529714e+02
1.164000e+03 6.407776e+00
1.165000e+03 5.998514e+02
1.166000e+03 3.802301e+02
1.167000e+03 2.867531e+02
1.168000e+03 9.585474e+02
1.169000e+03 9.749594e+02
1.170000e+03 2.902074e+02
1.171000e+03 5.846014e+02
1.172000e+03 4.340290e+02
1.173000e+03 4.617704e+02
1.174000e+03 4.870184e+01
1.175000e+03 5.442383e+00
1.176000e+03 2.914825e+00
1.177000e+03 1.171707e+03
1.178000e+03 1.137607e+03
1.179000e+03 1.093276e+03
1.180000e+03 8.890088e+02
1.181000e+03 1.049588e+03
1.182000e+03 1.016875e+03
1.183000e+03 8.981463e+02
1.184000e+03 8.428828e+02
1.185000e+03 8.888562e+02
1.186000e+03 1.892907e+02
1.187000e+03 9.016788e+02
1.188000e+03 7.023603e+02
1.189000e+03 8.562030e+02
1.190000e+03 8.911021e+02
1.191000e+03 8.287166e+02
1.192000e+03 7.975435e+02
1.193000e+03 4.791919e+02
1.194000e+03 7.477774e+02
1.195000e+03 7.494969e+02
1.196000e+03 3.734925e+03
1.197000e+03 3.902208e+03
1.198000e+03 5.818010e+02
1.199000e+03 3.661715e+03
1.200000e+03 1.151005e+03
1.201000e+03 3.288246e+03
1.202000e+03 2.381527e+03
1.203000e+03 2.797528e+03
1.204000e+03 9.299291e+02
1.205000e+03 2.213858e+03
1.206000e+03 1.945320e+03
1.207000e+03 4.629234e+02
1.208000e+03 1.198012e+03
1.209000e+03 9.619322e+02
1.210000e+03 1.070898e+01
1.211000e+03 4.344557e+02
1.212000e+03 2.339892e+02
1.213000e+03 1.118444e+02
1.214000e+03 3.822288e+01
1.215000e+03 1.060511e+01
1.216000e+03 7.468426e+00
1.217000e+03 2.666949e+01
1.218000e+03 9.251237e+01
1.219000e+03 2.278105e+02
1.220000e+03 3.715577e+02
1.221000e+03 7.806896e+02
1.222000e+03 1.177967e+03
1.223000e+03 1.594389e+03
1.224000e+03 2.091466e+03
1.225000e+03 6.538367e+02
1.226000e+03 3.458294e+03
1.227000e+03 4.144509e+03
1.228000e+03 2.591128e+03
1.229000e+03 5.201172e+03
1.230000e+03 4.822257e+03
1.231000e+03 2.188443e+03
1.232000e+03 7.277338e+03
1.233000e+03 7.934353e+03
1.234000e+03 6.722444e+03
1.235000e+03 8.850239e+03
1.236000e+03 4.325763e+03
1.237000e+03 9.997083e+03
1.238000e+03 1.031050e+04
1.239000e+03 9.819305e+03
1.240000e+03 5.381807e+03
1.241000e+03 9.939107e+03
1.242000e+03 1.186161e+04
1.243000e+03 1.269975e+04
1.244000e+03 1.323048e+04
1.245000e+03 1.348632e+04
1.246000e+03 1.319441e+04
1.247000e+03 1.397240e+04
1.248000e+03 1.229188e+04
1.249000e+03 1.540780e+04
1.250000e+03 1.218946e+04
1.251000e+03 1.617910e+04
1.252000e+03 1.567784e+04
1.253000e+03 1.689775e+04
1.254000e+03 1.666946e+04
1.255000e+03 9.444310e+03
1.256000e+03 1.567328e+04
1.257000e+03 1.451612e+04
1.258000e+03 1.542888e+04
1.259000e+03 1.667784e+04
1.260000e+03 1.917749e+04
1.261000e+03 1.592721e+03
1.262000e+03 1.997231e+04
1.263000e+03 1.968824e+04
1.264000e+03 1.771374e+04
1.265000e+03 2.375566e+02
1.266000e+03 2.215204e+04
1.267000e+03 2.101344e+04
