# wavelength_A flux
5.000000e+02 1.079280e-41
5.010000e+02 1.427643e-41
5.020000e+02 1.886288e-41
5.030000e+02 2.489687e-41
5.040000e+02 3.282261e-41
5.050000e+02 4.325388e-41
5.060000e+02 5.689552e-41
5.070000e+02 7.475787e-41
5.080000e+02 9.812032e-41
5.090000e+02 1.286434e-40
5.100000e+02 1.683814e-40
5.110000e+02 2.204158e-40
5.120000e+02 2.880495e-40
5.130000e+02 3.760469e-40
5.140000e+02 4.904012e-40
5.150000e+02 6.388618e-40
5.160000e+02 8.313974e-40
5.170000e+02 1.080838e-39
5.180000e+02 1.403669e-39
5.190000e+02 1.821057e-39
5.200000e+02 2.360151e-39
5.210000e+02 3.055736e-39
5.220000e+02 3.952322e-39
5.230000e+02 5.106908e-39
5.240000e+02 6.592183e-39
5.250000e+02 8.501008e-39
5.260000e+02 1.095176e-38
5.270000e+02 1.409524e-38
5.280000e+02 1.812333e-38
5.290000e+02 2.328003e-38
5.300000e+02 2.987522e-38
5.310000e+02 3.830214e-38
5.320000e+02 4.905936e-38
5.330000e+02 6.277833e-38
5.340000e+02 8.025815e-38
5.350000e+02 1.025091e-37
5.360000e+02 1.308071e-37
5.370000e+02 1.667373e-37
5.380000e+02 2.124061e-37
5.390000e+02 2.702949e-37
5.400000e+02 3.436479e-37
5.410000e+02 4.365123e-37
5.420000e+02 5.539737e-37
5.430000e+02 7.024138e-37
5.440000e+02 8.898375e-37
5.450000e+02 1.126274e-36
5.460000e+02 1.424281e-36
5.470000e+02 1.799563e-36
5.480000e+02 2.271751e-36
5.490000e+02 2.865356e-36
5.500000e+02 3.610961e-36
5.510000e+02 4.546689e-36
5.520000e+02 5.720027e-36
5.530000e+02 7.190073e-36
5.540000e+02 9.030315e-36
5.550000e+02 1.133206e-35
5.560000e+02 1.420866e-35
5.570000e+02 1.780072e-35
5.580000e+02 2.228253e-35
5.590000e+02 2.786990e-35
5.600000e+02 3.482991e-35
5.610000e+02 4.349281e-35
5.620000e+02 5.426656e-35
5.630000e+02 6.765485e-35
5.640000e+02 8.427896e-35
5.650000e+02 1.049047e-34
5.660000e+02 1.304752e-34
5.670000e+02 1.621511e-34
5.680000e+02 2.013599e-34
5.690000e+02 2.498554e-34
5.700000e+02 3.097912e-34
5.710000e+02 3.838094e-34
5.720000e+02 4.751495e-34
5.730000e+02 5.877798e-34
5.740000e+02 7.265585e-34
5.750000e+02 8.974284e-34
5.760000e+02 1.107654e-33
5.770000e+02 1.366107e-33
5.780000e+02 1.683620e-33
5.790000e+02 2.073401e-33
5.800000e+02 2.551550e-33
5.810000e+02 3.137678e-33
5.820000e+02 3.855650e-33
5.830000e+02 4.734493e-33
5.840000e+02 5.809479e-33
5.850000e+02 7.123469e-33
5.860000e+02 8.728448e-33
5.870000e+02 1.068749e-32
5.880000e+02 1.307701e-32
5.890000e+02 1.598961e-32
5.900000e+02 1.953731e-32
5.910000e+02 2.385564e-32
5.920000e+02 2.910839e-32
5.930000e+02 3.549340e-32
5.940000e+02 4.324948e-32
5.950000e+02 5.266469e-32
5.960000e+02 6.408627e-32
5.970000e+02 7.793253e-32
5.980000e+02 9.470706e-32
5.990000e+02 1.150157e-31
6.000000e+02 1.395870e-31
6.010000e+02 1.692959e-31
6.020000e+02 2.051936e-31
6.030000e+02 2.485411e-31
6.040000e+02 3.008507e-31
6.050000e+02 3.639349e-31
6.060000e+02 4.399644e-31
6.070000e+02 5.315377e-31
6.080000e+02 6.417628e-31
6.090000e+02 7.743555e-31
6.100000e+02 9.337551e-31
6.110000e+02 1.125262e-30
6.120000e+02 1.355201e-30
6.130000e+02 1.631115e-30
6.140000e+02 1.961994e-30
6.150000e+02 2.358544e-30
6.160000e+02 2.833511e-30
6.170000e+02 3.402060e-30
6.180000e+02 4.082220e-30
6.190000e+02 4.895413e-30
6.200000e+02 5.867081e-30
6.210000e+02 7.027421e-30
6.220000e+02 8.412252e-30
6.230000e+02 1.006404e-29
6.240000e+02 1.203308e-29
6.250000e+02 1.437897e-29
6.260000e+02 1.717220e-29
6.270000e+02 2.049617e-29
6.280000e+02 2.444946e-29
6.290000e+02 2.914853e-29
6.300000e+02 3.473091e-29
6.310000e+02 4.135891e-29
6.320000e+02 4.922397e-29
6.330000e+02 5.855173e-29
6.340000e+02 6.960809e-29
6.350000e+02 8.270613e-29
6.360000e+02 9.821433e-29
6.370000e+02 1.165661e-28
6.380000e+02 1.382710e-28
6.390000e+02 1.639278e-28
6.400000e+02 1.942396e-28
6.410000e+02 2.300317e-28
6.420000e+02 2.722724e-28
6.430000e+02 3.220969e-28
6.440000e+02 3.808355e-28
6.450000e+02 4.500467e-28
6.460000e+02 5.315548e-28
6.470000e+02 6.274943e-28
6.480000e+02 7.403617e-28
6.490000e+02 8.730751e-28
6.500000e+02 1.029044e-27
6.510000e+02 1.212248e-27
6.520000e+02 1.427335e-27
6.530000e+02 1.679724e-27
6.540000e+02 1.975734e-27
6.550000e+02 2.322731e-27
6.560000e+02 2.729291e-27
6.570000e+02 3.205403e-27
6.580000e+02 3.762688e-27
6.590000e+02 4.414661e-27
6.600000e+02 5.177037e-27
6.610000e+02 6.068074e-27
6.620000e+02 7.108979e-27
6.630000e+02 8.324365e-27
6.640000e+02 9.742797e-27
6.650000e+02 1.139740e-26
6.660000e+02 1.332657e-26
6.670000e+02 1.557480e-26
6.680000e+02 1.819362e-26
6.690000e+02 2.124266e-26
6.700000e+02 2.479095e-26
6.710000e+02 2.891828e-26
6.720000e+02 3.371693e-26
6.730000e+02 3.929349e-26
6.740000e+02 4.577108e-26
6.750000e+02 5.329183e-26
6.760000e+02 6.201972e-26
6.770000e+02 7.214391e-26
6.780000e+02 8.388244e-26
6.790000e+02 9.748659e-26
6.800000e+02 1.132458e-25
6.810000e+02 1.314932e-25
6.820000e+02 1.526124e-25
6.830000e+02 1.770444e-25
6.840000e+02 2.052964e-25
6.850000e+02 2.379512e-25
6.860000e+02 2.756787e-25
6.870000e+02 3.192477e-25
6.880000e+02 3.695408e-25
6.890000e+02 4.275709e-25
6.900000e+02 4.944992e-25
6.910000e+02 5.716574e-25
6.920000e+02 6.605709e-25
6.930000e+02 7.629873e-25
6.940000e+02 8.809075e-25
6.950000e+02 1.016621e-24
6.960000e+02 1.172748e-24
6.970000e+02 1.352284e-24
6.980000e+02 1.558652e-24
6.990000e+02 1.795765e-24
7.000000e+02 2.068092e-24
7.010000e+02 2.380733e-24
7.020000e+02 2.739510e-24
7.030000e+02 3.151065e-24
7.040000e+02 3.622970e-24
7.050000e+02 4.163857e-24
7.060000e+02 4.783561e-24
7.070000e+02 5.493283e-24
7.080000e+02 6.305777e-24
7.090000e+02 7.235557e-24
7.100000e+02 8.299133e-24
7.110000e+02 9.515281e-24
7.120000e+02 1.090534e-23
7.130000e+02 1.249358e-23
7.140000e+02 1.430753e-23
7.150000e+02 1.637847e-23
7.160000e+02 1.874191e-23
7.170000e+02 2.143813e-23
7.180000e+02 2.451281e-23
7.190000e+02 2.801775e-23
7.200000e+02 3.201164e-23
7.210000e+02 3.656099e-23
7.220000e+02 4.174110e-23
7.230000e+02 4.763722e-23
7.240000e+02 5.434585e-23
7.250000e+02 6.197611e-23
7.260000e+02 7.065143e-23
7.270000e+02 8.051132e-23
7.280000e+02 9.171344e-23
7.290000e+02 1.044359e-22
7.300000e+02 1.188797e-22
7.310000e+02 1.352720e-22
7.320000e+02 1.538688e-22
7.330000e+02 1.749591e-22
7.340000e+02 1.988688e-22
7.350000e+02 2.259650e-22
7.360000e+02 2.566617e-22
7.370000e+02 2.914250e-22
7.380000e+02 3.307798e-22
7.390000e+02 3.753171e-22
7.400000e+02 4.257019e-22
7.410000e+02 4.826819e-22
7.420000e+02 5.470985e-22
7.430000e+02 6.198972e-22
7.440000e+02 7.021405e-22
7.450000e+02 7.950221e-22
7.460000e+02 8.998825e-22
7.470000e+02 1.018227e-21
7.480000e+02 1.151744e-21
7.490000e+02 1.302328e-21
7.500000e+02 1.472105e-21
7.510000e+02 1.663457e-21
7.520000e+02 1.879054e-21
7.530000e+02 2.121890e-21
7.540000e+02 2.395313e-21
7.550000e+02 2.703078e-21
7.560000e+02 3.049385e-21
7.570000e+02 3.438933e-21
7.580000e+02 3.876981e-21
7.590000e+02 4.369409e-21
7.600000e+02 4.922789e-21
7.610000e+02 5.544468e-21
7.620000e+02 6.242655e-21
7.630000e+02 7.026514e-21
7.640000e+02 7.906284e-21
7.650000e+02 8.893386e-21
7.660000e+02 1.000057e-20
7.670000e+02 1.124206e-20
7.680000e+02 1.263371e-20
7.690000e+02 1.419321e-20
7.700000e+02 1.594025e-20
7.710000e+02 1.789680e-20
7.720000e+02 2.008730e-20
7.730000e+02 2.253899e-20
7.740000e+02 2.528217e-20
7.750000e+02 2.835059e-20
7.760000e+02 3.178176e-20
7.770000e+02 3.561742e-20
7.780000e+02 3.990398e-20
7.790000e+02 4.469301e-20
7.800000e+02 5.004184e-20
7.810000e+02 5.601414e-20
7.820000e+02 6.268061e-20
7.830000e+02 7.011977e-20
7.840000e+02 7.841876e-20
7.850000e+02 8.767428e-20
7.860000e+02 9.799357e-20
7.870000e+02 1.094956e-19
7.880000e+02 1.223122e-19
7.890000e+02 1.365897e-19
7.900000e+02 1.524898e-19
7.910000e+02 1.701921e-19
7.920000e+02 1.898953e-19
7.930000e+02 2.118193e-19
7.940000e+02 2.362075e-19
7.950000e+02 2.633295e-19
7.960000e+02 2.934832e-19
7.970000e+02 3.269982e-19
7.980000e+02 3.642390e-19
7.990000e+02 4.056083e-19
8.000000e+02 4.515513e-19
8.010000e+02 5.025596e-19
8.020000e+02 5.591763e-19
8.030000e+02 6.220009e-19
8.040000e+02 6.916956e-19
8.050000e+02 7.689905e-19
8.060000e+02 8.546917e-19
8.070000e+02 9.496878e-19
8.080000e+02 1.054959e-18
8.090000e+02 1.171586e-18
8.100000e+02 1.300760e-18
8.110000e+02 1.443792e-18
8.120000e+02 1.602128e-18
8.130000e+02 1.777360e-18
8.140000e+02 1.971240e-18
8.150000e+02 2.185698e-18
8.160000e+02 2.422855e-18
8.170000e+02 2.685047e-18
8.180000e+02 2.974844e-18
8.190000e+02 3.295068e-18
8.200000e+02 3.648826e-18
8.210000e+02 4.039529e-18
8.220000e+02 4.470928e-18
8.230000e+02 4.947141e-18
8.240000e+02 5.472691e-18
8.250000e+02 6.052547e-18
8.260000e+02 6.692160e-18
8.270000e+02 7.397513e-18
8.280000e+02 8.175172e-18
8.290000e+02 9.032338e-18
8.300000e+02 9.976907e-18
8.310000e+02 1.101754e-17
8.320000e+02 1.216372e-17
8.330000e+02 1.342586e-17
8.340000e+02 1.481535e-17
8.350000e+02 1.634466e-17
8.360000e+02 1.802747e-17
8.370000e+02 1.987874e-17
8.380000e+02 2.191486e-17
8.390000e+02 2.415374e-17
8.400000e+02 2.661499e-17
8.410000e+02 2.932007e-17
8.420000e+02 3.229243e-17
8.430000e+02 3.555773e-17
8.440000e+02 3.914399e-17
8.450000e+02 4.308184e-17
8.460000e+02 4.740477e-17
8.470000e+02 5.214933e-17
8.480000e+02 5.735545e-17
8.490000e+02 6.306673e-17
8.500000e+02 6.933075e-17
8.510000e+02 7.619945e-17
8.520000e+02 8.372949e-17
8.530000e+02 9.198270e-17
8.540000e+02 1.010265e-16
8.550000e+02 1.109344e-16
8.560000e+02 1.217865e-16
8.570000e+02 1.336701e-16
8.580000e+02 1.466806e-16
8.590000e+02 1.609214e-16
8.600000e+02 1.765057e-16
8.610000e+02 1.935563e-16
8.620000e+02 2.122072e-16
8.630000e+02 2.326041e-16
8.640000e+02 2.549056e-16
8.650000e+02 2.792844e-16
8.660000e+02 3.059281e-16
8.670000e+02 3.350409e-16
8.680000e+02 3.668450e-16
8.690000e+02 4.015816e-16
8.700000e+02 4.395130e-16
8.710000e+02 4.809244e-16
8.720000e+02 5.261256e-16
8.730000e+02 5.754528e-16
8.740000e+02 6.292716e-16
8.750000e+02 6.879787e-16
8.760000e+02 7.520047e-16
8.770000e+02 8.218170e-16
8.780000e+02 8.979230e-16
8.790000e+02 9.808728e-16
8.800000e+02 1.071264e-15
8.810000e+02 1.169742e-15
8.820000e+02 1.277011e-15
8.830000e+02 1.393831e-15
8.840000e+02 1.521026e-15
8.850000e+02 1.659491e-15
8.860000e+02 1.810193e-15
8.870000e+02 1.974181e-15
8.880000e+02 2.152590e-15
8.890000e+02 2.346651e-15
8.900000e+02 2.557695e-15
8.910000e+02 2.787162e-15
8.920000e+02 3.036612e-15
8.930000e+02 3.307732e-15
8.940000e+02 3.602348e-15
8.950000e+02 3.922431e-15
8.960000e+02 4.270117e-15
8.970000e+02 4.647713e-15
8.980000e+02 5.057713e-15
8.990000e+02 5.502812e-15
9.000000e+02 5.985922e-15
9.010000e+02 6.510190e-15
9.020000e+02 7.079014e-15
9.030000e+02 7.696063e-15
9.040000e+02 8.365300e-15
9.050000e+02 9.091001e-15
9.060000e+02 9.877784e-15
9.070000e+02 1.073063e-14
9.080000e+02 1.165491e-14
9.090000e+02 1.265643e-14
9.100000e+02 1.374144e-14
9.110000e+02 1.491668e-14
9.120000e+02 1.618942e-14
9.130000e+02 1.756749e-14
9.140000e+02 2.076003e-14
9.150000e+02 3.622525e-12
9.160000e+02 2.441745e-11
9.170000e+02 1.842602e-13
9.180000e+02 4.773674e-12
9.190000e+02 7.430069e-11
9.200000e+02 2.139571e-10
9.210000e+02 3.354844e-14
9.220000e+02 7.217235e-11
9.230000e+02 2.622569e-13
9.240000e+02 2.129130e-13
9.250000e+02 5.521443e-12
9.260000e+02 7.445438e-12
9.270000e+02 2.820665e-13
9.280000e+02 1.390698e-09
9.290000e+02 1.378758e-09
9.300000e+02 3.045894e-10
9.310000e+02 6.241022e-13
9.320000e+02 1.146787e-09
9.330000e+02 5.891165e-11
9.340000e+02 9.450440e-12
9.350000e+02 2.078009e-12
9.360000e+02 1.297496e-12
9.370000e+02 3.059082e-13
9.380000e+02 1.734560e-12
9.390000e+02 5.994450e-12
9.400000e+02 9.743692e-10
9.410000e+02 1.018589e-10
9.420000e+02 5.338940e-09
9.430000e+02 9.528933e-12
9.440000e+02 6.038905e-09
9.450000e+02 5.316537e-09
9.460000e+02 2.189132e-10
9.470000e+02 2.689342e-13
9.480000e+02 1.150342e-09
9.490000e+02 1.678240e-10
9.500000e+02 4.048725e-12
9.510000e+02 2.463466e-10
9.520000e+02 7.093075e-10
9.530000e+02 2.292886e-12
9.540000e+02 4.358853e-13
9.550000e+02 2.043121e-11
9.560000e+02 4.436306e-09
9.570000e+02 1.126815e-11
9.580000e+02 5.781833e-13
9.590000e+02 7.069567e-10
9.600000e+02 9.043662e-12
9.610000e+02 4.505840e-10
9.620000e+02 1.256377e-10
9.630000e+02 8.290035e-12
9.640000e+02 3.474526e-12
9.650000e+02 1.058931e-12
9.660000e+02 2.304468e-11
9.670000e+02 3.542278e-12
9.680000e+02 2.718048e-12
9.690000e+02 1.077235e-10
9.700000e+02 5.372320e-10
9.710000e+02 7.242300e-12
9.720000e+02 2.479267e-12
9.730000e+02 4.641436e-11
9.740000e+02 3.260014e-10
9.750000e+02 6.735905e-11
9.760000e+02 7.430772e-09
9.770000e+02 2.417714e-09
9.780000e+02 9.623626e-10
9.790000e+02 4.200024e-08
9.800000e+02 2.527421e-08
9.810000e+02 3.625651e-10
9.820000e+02 5.718359e-11
9.830000e+02 2.444402e-08
9.840000e+02 1.133676e-09
9.850000e+02 1.335831e-10
9.860000e+02 2.349607e-10
9.870000e+02 1.483723e-08
9.880000e+02 5.373479e-12
9.890000e+02 3.232137e-09
9.900000e+02 1.558120e-08
9.910000e+02 8.937275e-11
9.920000e+02 6.518086e-12
9.930000e+02 7.093707e-08
9.940000e+02 1.227890e-11
9.950000e+02 1.497834e-09
9.960000e+02 1.696199e-11
9.970000e+02 8.410953e-09
9.980000e+02 1.757941e-08
9.990000e+02 1.276719e-10
1.000000e+03 1.770514e-07
1.001000e+03 1.307923e-07
1.002000e+03 7.864523e-08
1.003000e+03 1.152607e-10
1.004000e+03 1.486455e-11
1.005000e+03 6.049561e-10
1.006000e+03 5.917967e-08
1.007000e+03 1.229431e-07
1.008000e+03 3.344936e-08
1.009000e+03 1.796852e-10
1.010000e+03 2.316182e-08
1.011000e+03 1.730286e-08
1.012000e+03 5.138402e-08
1.013000e+03 5.460348e-08
1.014000e+03 2.857181e-11
1.015000e+03 3.141487e-11
1.016000e+03 1.082455e-09
1.017000e+03 3.477041e-11
1.018000e+03 1.846256e-10
1.019000e+03 3.976197e-11
1.020000e+03 6.468802e-08
1.021000e+03 7.332872e-10
1.022000e+03 9.561063e-10
1.023000e+03 6.037837e-11
1.024000e+03 1.274405e-08
1.025000e+03 5.836143e-11
1.026000e+03 8.734022e-11
1.027000e+03 3.147840e-09
1.028000e+03 4.451728e-10
1.029000e+03 7.537260e-11
1.030000e+03 2.879631e-09
1.031000e+03 1.606004e-08
1.032000e+03 3.233941e-07
1.033000e+03 3.633502e-09
1.034000e+03 1.421550e-08
1.035000e+03 3.737242e-10
1.036000e+03 1.173532e-10
1.037000e+03 1.567322e-07
1.038000e+03 1.330485e-06
1.039000e+03 2.534205e-07
1.040000e+03 7.135344e-08
1.041000e+03 7.606962e-07
1.042000e+03 9.234284e-07
1.043000e+03 1.382233e-06
1.044000e+03 4.829250e-06
1.045000e+03 3.215314e-10
1.046000e+03 1.002903e-07
1.047000e+03 7.668746e-08
1.048000e+03 6.944276e-10
1.049000e+03 4.621593e-08
1.050000e+03 6.716675e-09
1.051000e+03 3.792593e-09
1.052000e+03 1.536177e-06
1.053000e+03 1.809643e-06
1.054000e+03 3.562235e-10
1.055000e+03 2.303915e-06
1.056000e+03 2.931275e-06
1.057000e+03 2.793168e-07
1.058000e+03 3.248573e-09
1.059000e+03 6.714572e-09
1.060000e+03 1.163698e-09
1.061000e+03 7.999834e-07
1.062000e+03 1.933486e-09
1.063000e+03 4.202082e-07
1.064000e+03 9.531504e-10
1.065000e+03 6.888285e-10
1.066000e+03 1.284927e-06
1.067000e+03 4.936928e-09
1.068000e+03 7.977421e-06
1.069000e+03 1.258328e-09
1.070000e+03 4.254252e-08
1.071000e+03 1.392832e-06
1.072000e+03 1.758758e-05
1.073000e+03 1.102990e-09
1.074000e+03 3.597978e-07
1.075000e+03 1.832541e-07
1.076000e+03 1.872608e-05
1.077000e+03 4.204111e-09
1.078000e+03 6.402843e-09
1.079000e+03 3.373263e-08
1.080000e+03 2.924920e-07
1.081000e+03 3.523094e-06
1.082000e+03 1.385964e-06
1.083000e+03 5.629172e-07
1.084000e+03 4.635898e-05
1.085000e+03 8.229108e-08
1.086000e+03 1.770327e-05
1.087000e+03 1.501940e-08
1.088000e+03 4.155932e-05
1.089000e+03 5.124915e-05
1.090000e+03 6.496072e-08
1.091000e+03 1.297303e-07
1.092000e+03 4.403930e-05
1.093000e+03 7.051401e-05
1.094000e+03 8.640957e-07
1.095000e+03 8.924463e-05
1.096000e+03 4.401588e-06
1.097000e+03 2.560437e-05
1.098000e+03 6.892039e-05
1.099000e+03 2.525048e-07
1.100000e+03 5.506536e-09
1.101000e+03 1.098816e-08
1.102000e+03 2.264784e-07
1.103000e+03 1.302520e-04
1.104000e+03 7.952684e-05
1.105000e+03 1.244604e-04
1.106000e+03 1.549627e-06
1.107000e+03 1.066292e-08
1.108000e+03 2.394971e-05
1.109000e+03 1.337175e-07
1.110000e+03 8.624610e-05
1.111000e+03 9.954468e-05
1.112000e+03 7.599035e-06
1.113000e+03 1.194321e-04
1.114000e+03 3.111217e-06
1.115000e+03 1.280371e-07
1.116000e+03 2.783962e-08
1.117000e+03 1.438447e-04
1.118000e+03 2.514198e-07
1.119000e+03 5.460659e-06
1.120000e+03 6.405025e-08
1.121000e+03 7.047264e-05
1.122000e+03 4.320622e-04
1.123000e+03 2.149917e-04
1.124000e+03 2.681055e-04
1.125000e+03 1.061350e-04
1.126000e+03 6.997930e-04
1.127000e+03 8.247630e-05
1.128000e+03 3.180589e-04
1.129000e+03 2.895392e-05
1.130000e+03 3.262075e-04
1.131000e+03 3.206148e-04
1.132000e+03 1.231665e-07
1.133000e+03 2.608052e-06
1.134000e+03 6.995830e-05
1.135000e+03 3.478892e-04
1.136000e+03 4.717440e-06
1.137000e+03 2.035196e-04
1.138000e+03 4.278370e-05
1.139000e+03 3.181010e-04
1.140000e+03 2.217996e-04
1.141000e+03 3.574683e-04
1.142000e+03 3.476099e-04
1.143000e+03 2.931009e-05
1.144000e+03 3.647899e-04
1.145000e+03 1.034350e-07
1.146000e+03 3.565788e-04
1.147000e+03 3.528232e-04
1.148000e+03 9.434298e-07
1.149000e+03 2.100351e-04
1.150000e+03 1.796701e-04
1.151000e+03 3.341504e-04
1.152000e+03 1.574710e-04
1.153000e+03 3.562101e-04
1.154000e+03 3.876769e-04
1.155000e+03 2.314867e-04
1.156000e+03 2.772064e-04
1.157000e+03 3.400509e-04
1.158000e+03 4.530360e-05
1.159000e+03 3.373818e-04
1.160000e+03 9.209056e-05
1.161000e+03 3.129975e-04
1.162000e+03 5.274196e-06
1.163000e+03 3.308136e-05
1.164000e+03 9.446157e-07
1.165000e+03 1.396291e-04
1.166000e+03 7.693027e-05
1.167000e+03 5.744274e-05
1.168000e+03 3.640610e-04
1.169000e+03 4.042880e-04
1.170000e+03 4.118187e-05
1.171000e+03 1.751415e-04
1.172000e+03 1.077575e-04
1.173000e+03 1.231501e-04
1.174000e+03 6.931805e-07
1.175000e+03 6.559821e-07
1.176000e+03 3.078749e-07
1.177000e+03 5.314564e-04
1.178000e+03 5.053011e-04
1.179000e+03 4.676250e-04
1.180000e+03 3.050527e-04
1.181000e+03 4.332212e-04
1.182000e+03 4.025605e-04
1.183000e+03 2.587100e-04
1.184000e+03 2.248653e-04
1.185000e+03 2.373813e-04
1.186000e+03 3.792038e-06
1.187000e+03 3.325467e-04
1.188000e+03 1.875180e-04
1.189000e+03 3.411118e-04
1.190000e+03 3.307753e-04
1.191000e+03 2.973707e-04
1.192000e+03 2.819536e-04
1.193000e+03 2.565345e-04
1.194000e+03 2.726236e-04
1.195000e+03 2.592600e-04
1.196000e+03 4.626797e-03
1.197000e+03 6.000451e-03
1.198000e+03 1.447950e-05
1.199000e+03 4.818912e-03
1.200000e+03 8.339202e-05
1.201000e+03 3.395302e-03
1.202000e+03 1.285735e-03
1.203000e+03 2.367778e-03
1.204000e+03 1.202736e-04
1.205000e+03 1.475304e-03
1.206000e+03 1.135901e-03
1.207000e+03 1.530862e-04
1.208000e+03 5.604099e-04
1.209000e+03 4.091233e-04
1.210000e+03 1.809603e-06
1.211000e+03 1.450724e-04
1.212000e+03 6.510802e-05
1.213000e+03 3.101938e-05
1.214000e+03 9.643127e-06
1.215000e+03 1.958401e-06
1.216000e+03 1.683460e-06
1.217000e+03 6.439078e-06
1.218000e+03 2.651600e-05
1.219000e+03 7.175942e-05
1.220000e+03 7.780473e-05
1.221000e+03 3.218764e-04
1.222000e+03 5.217320e-04
1.223000e+03 5.923851e-04
1.224000e+03 1.241929e-03
1.225000e+03 3.629969e-05
1.226000e+03 2.918534e-03
1.227000e+03 4.091586e-03
1.228000e+03 5.687308e-04
1.229000e+03 6.219723e-03
1.230000e+03 5.124746e-03
1.231000e+03 2.130857e-04
1.232000e+03 1.281600e-02
1.233000e+03 1.555121e-02
1.234000e+03 1.748729e-02
1.235000e+03 1.849495e-02
1.236000e+03 1.236828e-03
1.237000e+03 2.644688e-02
1.238000e+03 2.782036e-02
1.239000e+03 1.026873e-02
1.240000e+03 1.007408e-02
1.241000e+03 1.690518e-02
1.242000e+03 3.268469e-02
1.243000e+03 4.623735e-02
1.244000e+03 5.057245e-02
1.245000e+03 5.262184e-02
1.246000e+03 3.244982e-02
1.247000e+03 4.565230e-02
1.248000e+03 5.125451e-02
1.249000e+03 7.047208e-02
1.250000e+03 4.910993e-02
1.251000e+03 7.507294e-02
1.252000e+03 6.373239e-02
1.253000e+03 8.131645e-02
1.254000e+03 6.685922e-02
1.255000e+03 1.317523e-02
1.256000e+03 4.801155e-02
1.257000e+03 3.870934e-02
1.258000e+03 3.052725e-02
1.259000e+03 4.348307e-02
1.260000e+03 9.024136e-02
1.261000e+03 1.050636e-03
1.262000e+03 9.399001e-02
1.263000e+03 8.419263e-02
1.264000e+03 3.758739e-02
1.265000e+03 6.504063e-02
1.266000e+03 1.153392e-01
1.267000e+03 7.463852e-02
