# wavelength_A flux
5.000000e+02 2.568844e-14
5.010000e+02 3.000085e-14
5.020000e+02 3.501476e-14
5.030000e+02 4.084060e-14
5.040000e+02 4.760549e-14
5.050000e+02 4.830093e-14
5.060000e+02 5.628355e-14
5.070000e+02 6.554416e-14
5.080000e+02 7.628070e-14
5.090000e+02 8.872070e-14
5.100000e+02 1.031257e-13
5.110000e+02 1.197958e-13
5.120000e+02 1.390756e-13
5.130000e+02 1.613602e-13
5.140000e+02 1.871025e-13
5.150000e+02 2.168327e-13
5.160000e+02 2.511108e-13
5.170000e+02 2.907265e-13
5.180000e+02 3.362176e-13
5.190000e+02 3.887009e-13
5.200000e+02 4.491157e-13
5.210000e+02 5.186257e-13
5.220000e+02 5.989291e-13
5.230000e+02 6.903919e-13
5.240000e+02 7.958633e-13
5.250000e+02 9.168877e-13
5.260000e+02 1.055766e-12
5.270000e+02 1.215001e-12
5.280000e+02 1.397475e-12
5.290000e+02 1.608881e-12
5.300000e+02 1.845694e-12
5.310000e+02 2.119388e-12
5.320000e+02 2.432343e-12
5.330000e+02 2.790005e-12
5.340000e+02 3.198542e-12
5.350000e+02 3.664963e-12
5.360000e+02 4.197327e-12
5.370000e+02 5.150191e-12
5.380000e+02 5.496638e-12
5.390000e+02 6.283880e-12
5.400000e+02 7.181173e-12
5.410000e+02 8.207330e-12
5.420000e+02 9.364750e-12
5.430000e+02 1.068480e-11
5.440000e+02 1.218561e-11
5.450000e+02 1.389022e-11
5.460000e+02 1.584272e-11
5.470000e+02 1.802099e-11
5.480000e+02 2.051120e-11
5.490000e+02 2.333378e-11
5.500000e+02 2.653184e-11
5.510000e+02 3.015348e-11
5.520000e+02 3.425282e-11
5.530000e+02 3.889066e-11
5.540000e+02 4.413524e-11
5.550000e+02 5.006313e-11
5.560000e+02 5.676020e-11
5.570000e+02 6.432273e-11
5.580000e+02 7.285859e-11
5.590000e+02 8.248858e-11
5.600000e+02 9.334796e-11
5.610000e+02 1.055881e-10
5.620000e+02 1.193782e-10
5.630000e+02 1.349076e-10
5.640000e+02 1.523878e-10
5.650000e+02 1.720552e-10
5.660000e+02 1.941729e-10
5.670000e+02 2.190361e-10
5.680000e+02 2.469727e-10
5.690000e+02 2.783492e-10
5.700000e+02 3.135744e-10
5.710000e+02 3.531007e-10
5.720000e+02 3.974370e-10
5.730000e+02 4.471463e-10
5.740000e+02 5.028559e-10
5.750000e+02 5.652137e-10
5.760000e+02 6.353185e-10
5.770000e+02 7.133026e-10
5.780000e+02 8.008090e-10
5.790000e+02 8.986734e-10
5.800000e+02 1.008078e-09
5.810000e+02 1.130335e-09
5.820000e+02 1.266908e-09
5.830000e+02 1.419477e-09
5.840000e+02 1.592175e-09
5.850000e+02 1.780067e-09
5.860000e+02 1.991144e-09
5.870000e+02 2.227055e-09
5.880000e+02 2.489990e-09
5.890000e+02 2.782973e-09
5.900000e+02 3.108992e-09
5.910000e+02 3.471954e-09
5.920000e+02 3.875772e-09
5.930000e+02 4.324869e-09
5.940000e+02 4.824130e-09
5.950000e+02 5.378949e-09
5.960000e+02 5.995267e-09
5.970000e+02 6.679649e-09
5.980000e+02 7.439324e-09
5.990000e+02 8.282258e-09
6.000000e+02 9.217230e-09
6.010000e+02 1.025400e-08
6.020000e+02 1.140292e-08
6.030000e+02 1.267599e-08
6.040000e+02 1.408599e-08
6.050000e+02 1.564707e-08
6.060000e+02 1.737500e-08
6.070000e+02 1.928633e-08
6.080000e+02 2.140039e-08
6.090000e+02 2.373763e-08
6.100000e+02 2.632072e-08
6.110000e+02 2.917447e-08
6.120000e+02 3.232618e-08
6.130000e+02 3.580574e-08
6.140000e+02 3.964592e-08
6.150000e+02 4.388260e-08
6.160000e+02 4.855518e-08
6.170000e+02 5.370669e-08
6.180000e+02 5.938432e-08
6.190000e+02 6.563972e-08
6.200000e+02 7.252926e-08
6.210000e+02 8.011480e-08
6.220000e+02 8.846382e-08
6.230000e+02 9.765014e-08
6.240000e+02 1.077544e-07
6.250000e+02 1.188646e-07
6.260000e+02 1.310770e-07
6.270000e+02 1.444967e-07
6.280000e+02 1.592379e-07
6.290000e+02 1.754259e-07
6.300000e+02 1.931969e-07
6.310000e+02 2.133623e-07
6.320000e+02 2.340954e-07
6.330000e+02 2.575692e-07
6.340000e+02 2.832893e-07
6.350000e+02 3.115126e-07
6.360000e+02 3.423905e-07
6.370000e+02 3.762327e-07
6.380000e+02 4.132950e-07
6.390000e+02 4.538672e-07
6.400000e+02 4.982683e-07
6.410000e+02 5.468449e-07
6.420000e+02 5.999736e-07
6.430000e+02 6.580633e-07
6.440000e+02 7.215585e-07
6.450000e+02 7.909432e-07
6.460000e+02 8.667361e-07
6.470000e+02 9.495116e-07
6.480000e+02 1.039879e-06
6.490000e+02 1.138512e-06
6.500000e+02 1.246137e-06
6.510000e+02 1.363528e-06
6.520000e+02 1.491546e-06
6.530000e+02 1.631109e-06
6.540000e+02 1.783218e-06
6.550000e+02 1.948946e-06
6.560000e+02 2.129469e-06
6.570000e+02 2.326190e-06
6.580000e+02 2.540056e-06
6.590000e+02 2.772968e-06
6.600000e+02 3.026390e-06
6.610000e+02 3.302042e-06
6.620000e+02 3.601800e-06
6.630000e+02 3.927683e-06
6.640000e+02 4.281866e-06
6.650000e+02 4.666720e-06
6.660000e+02 5.084746e-06
6.670000e+02 5.538723e-06
6.680000e+02 6.031597e-06
6.690000e+02 6.566559e-06
6.700000e+02 7.147050e-06
6.710000e+02 7.776779e-06
6.720000e+02 8.459742e-06
6.730000e+02 9.200249e-06
6.740000e+02 1.000294e-05
6.750000e+02 1.087280e-05
6.760000e+02 1.181523e-05
6.770000e+02 1.283601e-05
6.780000e+02 1.394136e-05
6.790000e+02 1.513801e-05
6.800000e+02 1.643315e-05
6.810000e+02 1.783454e-05
6.820000e+02 1.935053e-05
6.830000e+02 2.099006e-05
6.840000e+02 2.276278e-05
6.850000e+02 2.467904e-05
6.860000e+02 2.674992e-05
6.870000e+02 2.898738e-05
6.880000e+02 3.140422e-05
6.890000e+02 3.401419e-05
6.900000e+02 3.683205e-05
6.910000e+02 3.987358e-05
6.920000e+02 4.315582e-05
6.930000e+02 4.669694e-05
6.940000e+02 5.051646e-05
6.950000e+02 5.463529e-05
6.960000e+02 5.907585e-05
6.970000e+02 6.386696e-05
6.980000e+02 6.901988e-05
6.990000e+02 7.457662e-05
7.000000e+02 8.056183e-05
7.010000e+02 8.700708e-05
7.020000e+02 9.394613e-05
7.030000e+02 1.014151e-04
7.040000e+02 1.094527e-04
7.050000e+02 1.181002e-04
7.060000e+02 1.274018e-04
7.070000e+02 1.374047e-04
7.080000e+02 1.481595e-04
7.090000e+02 1.597203e-04
7.100000e+02 1.721440e-04
7.110000e+02 1.854930e-04
7.120000e+02 1.998326e-04
7.130000e+02 2.152330e-04
7.140000e+02 2.317692e-04
7.150000e+02 2.495210e-04
7.160000e+02 2.685738e-04
7.170000e+02 2.890210e-04
7.180000e+02 3.109670e-04
7.190000e+02 3.344776e-04
7.200000e+02 3.597057e-04
7.210000e+02 3.867539e-04
7.220000e+02 4.157476e-04
7.230000e+02 4.468197e-04
7.240000e+02 4.801128e-04
7.250000e+02 5.157780e-04
7.260000e+02 5.539766e-04
7.270000e+02 5.948801e-04
7.280000e+02 6.386711e-04
7.290000e+02 6.855439e-04
7.300000e+02 7.357051e-04
7.310000e+02 7.893748e-04
7.320000e+02 8.467867e-04
7.330000e+02 9.081896e-04
7.340000e+02 9.738476e-04
7.350000e+02 1.044042e-03
7.360000e+02 1.119075e-03
7.370000e+02 1.199252e-03
7.380000e+02 1.284923e-03
7.390000e+02 1.376440e-03
7.400000e+02 1.474187e-03
7.410000e+02 1.578559e-03
7.420000e+02 1.689996e-03
7.430000e+02 1.808941e-03
7.440000e+02 1.935884e-03
7.450000e+02 2.071335e-03
7.460000e+02 2.215837e-03
7.470000e+02 2.369965e-03
7.480000e+02 2.534330e-03
7.490000e+02 2.709578e-03
7.500000e+02 2.896396e-03
7.510000e+02 3.095511e-03
7.520000e+02 3.307692e-03
7.530000e+02 3.533756e-03
7.540000e+02 3.774567e-03
7.550000e+02 4.031041e-03
7.560000e+02 4.304144e-03
7.570000e+02 4.594949e-03
7.580000e+02 4.904409e-03
7.590000e+02 5.233847e-03
7.600000e+02 5.584310e-03
7.610000e+02 5.957195e-03
7.620000e+02 6.353841e-03
7.630000e+02 6.775686e-03
7.640000e+02 7.224245e-03
7.650000e+02 7.701134e-03
7.660000e+02 8.208035e-03
7.670000e+02 8.746763e-03
7.680000e+02 9.319343e-03
7.690000e+02 9.927399e-03
7.700000e+02 1.057337e-02
7.710000e+02 1.125946e-02
7.720000e+02 1.198799e-02
7.730000e+02 1.276146e-02
7.740000e+02 1.358250e-02
7.750000e+02 1.445389e-02
7.760000e+02 1.537947e-02
7.770000e+02 1.635962e-02
7.780000e+02 1.740030e-02
7.790000e+02 1.850408e-02
7.800000e+02 1.967458e-02
7.810000e+02 2.091561e-02
7.820000e+02 2.223123e-02
7.830000e+02 2.362569e-02
7.840000e+02 2.510346e-02
7.850000e+02 2.666929e-02
7.860000e+02 2.832815e-02
7.870000e+02 3.008504e-02
7.880000e+02 3.194596e-02
7.890000e+02 3.391648e-02
7.900000e+02 3.600275e-02
7.910000e+02 3.821121e-02
7.920000e+02 4.054865e-02
7.930000e+02 4.302222e-02
7.940000e+02 4.563944e-02
7.950000e+02 4.840822e-02
7.960000e+02 5.133689e-02
7.970000e+02 5.443419e-02
7.980000e+02 5.770934e-02
7.990000e+02 6.117202e-02
8.000000e+02 6.483241e-02
8.010000e+02 6.870124e-02
8.020000e+02 7.278968e-02
8.030000e+02 7.710964e-02
8.040000e+02 8.167350e-02
8.050000e+02 8.649431e-02
8.060000e+02 9.158580e-02
8.070000e+02 9.696236e-02
8.080000e+02 1.026391e-01
8.090000e+02 1.086319e-01
8.100000e+02 1.149575e-01
8.110000e+02 1.216333e-01
8.120000e+02 1.286777e-01
8.130000e+02 1.361101e-01
8.140000e+02 1.439505e-01
8.150000e+02 1.522207e-01
8.160000e+02 1.609417e-01
8.170000e+02 1.701381e-01
8.180000e+02 1.798340e-01
8.190000e+02 1.900549e-01
8.200000e+02 2.008280e-01
8.210000e+02 2.121813e-01
8.220000e+02 2.241445e-01
8.230000e+02 2.367486e-01
8.240000e+02 2.500259e-01
8.250000e+02 2.640107e-01
8.260000e+02 2.787386e-01
8.270000e+02 2.942469e-01
8.280000e+02 3.105747e-01
8.290000e+02 3.277631e-01
8.300000e+02 3.458548e-01
8.310000e+02 3.648948e-01
8.320000e+02 3.849302e-01
8.330000e+02 4.060101e-01
8.340000e+02 4.281860e-01
8.350000e+02 4.516332e-01
8.360000e+02 4.760528e-01
8.370000e+02 5.018412e-01
8.380000e+02 5.289656e-01
8.390000e+02 5.574811e-01
8.400000e+02 5.874557e-01
8.410000e+02 6.189597e-01
8.420000e+02 6.521074e-01
8.430000e+02 6.868544e-01
8.440000e+02 7.234028e-01
8.450000e+02 7.617962e-01
8.460000e+02 8.021227e-01
8.470000e+02 8.444741e-01
8.480000e+02 8.889465e-01
8.490000e+02 9.356403e-01
8.500000e+02 9.846602e-01
8.510000e+02 1.036116e+00
8.520000e+02 1.090122e+00
8.530000e+02 1.146796e+00
8.540000e+02 1.206252e+00
8.550000e+02 1.268643e+00
8.560000e+02 1.334094e+00
8.570000e+02 1.402745e+00
8.580000e+02 1.474750e+00
8.590000e+02 1.550248e+00
8.600000e+02 1.629414e+00
8.610000e+02 1.712412e+00
8.620000e+02 1.799415e+00
8.630000e+02 1.890609e+00
8.640000e+02 1.986179e+00
8.650000e+02 2.086329e+00
8.660000e+02 2.191260e+00
8.670000e+02 2.301191e+00
8.680000e+02 2.416347e+00
8.690000e+02 2.536961e+00
8.700000e+02 2.663295e+00
8.710000e+02 2.795549e+00
8.720000e+02 2.934042e+00
8.730000e+02 3.079032e+00
8.740000e+02 3.230806e+00
8.750000e+02 3.389663e+00
8.760000e+02 3.555914e+00
8.770000e+02 3.729891e+00
8.780000e+02 3.911912e+00
8.790000e+02 4.102347e+00
8.800000e+02 4.301556e+00
8.810000e+02 4.509920e+00
8.820000e+02 4.727835e+00
8.830000e+02 4.955714e+00
8.840000e+02 5.193985e+00
8.850000e+02 5.443095e+00
8.860000e+02 5.703509e+00
8.870000e+02 5.975707e+00
8.880000e+02 6.260195e+00
8.890000e+02 6.557491e+00
8.900000e+02 6.868142e+00
8.910000e+02 7.192710e+00
8.920000e+02 7.554005e+00
8.930000e+02 7.885970e+00
8.940000e+02 8.255905e+00
8.950000e+02 8.642250e+00
8.960000e+02 9.045683e+00
8.970000e+02 9.466922e+00
8.980000e+02 9.906702e+00
8.990000e+02 1.036579e+01
9.000000e+02 1.084499e+01
9.010000e+02 1.134513e+01
9.020000e+02 1.186705e+01
9.030000e+02 1.241168e+01
9.040000e+02 1.297991e+01
9.050000e+02 1.357272e+01
9.060000e+02 1.419111e+01
9.070000e+02 1.483628e+01
9.080000e+02 1.550882e+01
9.090000e+02 1.621033e+01
9.100000e+02 1.694180e+01
9.110000e+02 1.770434e+01
9.120000e+02 1.849868e+01
9.130000e+02 1.960784e+01
9.140000e+02 1.825016e+01
9.150000e+02 6.200415e+01
9.160000e+02 2.743233e+02
9.170000e+02 1.125835e+02
9.180000e+02 1.927981e+02
9.190000e+02 7.377928e+02
9.200000e+02 1.057620e+03
9.210000e+02 2.775767e+01
9.220000e+02 9.842919e+02
9.230000e+02 1.427310e+02
9.240000e+02 2.461788e+02
9.250000e+02 5.673366e+02
9.260000e+02 5.832399e+02
9.270000e+02 1.679005e+02
9.280000e+02 1.646648e+03
9.290000e+02 1.479082e+03
9.300000e+02 1.603534e+03
9.310000e+02 1.522614e+02
9.320000e+02 1.897926e+03
9.330000e+02 1.214674e+03
9.340000e+02 8.180731e+02
9.350000e+02 1.838999e+01
9.360000e+02 2.173707e+02
9.370000e+02 1.564608e+01
9.380000e+02 2.721186e+02
9.390000e+02 3.369256e+02
9.400000e+02 2.354204e+03
9.410000e+02 2.796428e+02
9.420000e+02 2.712042e+03
9.430000e+02 4.811827e+02
9.440000e+02 2.221301e+03
9.450000e+02 2.980635e+03
9.460000e+02 2.208712e+03
9.470000e+02 8.793640e+01
9.480000e+02 2.925826e+03
9.490000e+02 2.873402e+03
9.500000e+02 4.109662e+01
9.510000e+02 2.061018e+03
9.520000e+02 2.570637e+03
9.530000e+02 1.350200e+02
9.540000e+02 9.647179e+01
9.550000e+02 1.235848e+03
9.560000e+02 4.130641e+03
9.570000e+02 3.433610e+02
9.580000e+02 4.671179e+01
9.590000e+02 4.593873e+03
9.600000e+02 4.073022e+01
9.610000e+02 2.898769e+03
9.620000e+02 1.735062e+03
9.630000e+02 1.463721e+03
9.640000e+02 9.837988e+01
9.650000e+02 1.732715e+02
9.660000e+02 1.428365e+03
9.670000e+02 4.560903e+02
9.680000e+02 2.382676e+02
9.690000e+02 2.936794e+03
9.700000e+02 2.520873e+03
9.710000e+02 4.480154e+02
9.720000e+02 6.720806e+02
9.730000e+02 4.005422e+03
9.740000e+02 3.516757e+03
9.750000e+02 1.942065e+03
9.760000e+02 6.805929e+03
9.770000e+02 5.956918e+03
9.780000e+02 3.485946e+03
9.790000e+02 9.068738e+03
9.800000e+02 9.348402e+03
9.810000e+02 4.175328e+03
9.820000e+02 1.289697e+03
9.830000e+02 9.647593e+03
9.840000e+02 8.039529e+02
9.850000e+02 3.064068e+03
9.860000e+02 3.157909e+03
9.870000e+02 1.096861e+04
9.880000e+02 2.955566e+02
9.890000e+02 5.865490e+03
9.900000e+02 1.466558e+02
9.910000e+02 7.483254e+02
9.920000e+02 1.462029e+02
9.930000e+02 1.275460e+04
9.940000e+02 2.108584e+02
9.950000e+02 6.834866e+02
9.960000e+02 5.842842e+02
9.970000e+02 5.055421e+02
9.980000e+02 1.128735e+04
9.990000e+02 1.141223e+03
1.000000e+03 1.673367e+04
1.001000e+03 1.821968e+04
1.002000e+03 1.784545e+04
1.003000e+03 2.355682e+03
1.004000e+03 5.341523e+02
1.005000e+03 3.841482e+03
1.006000e+03 1.913174e+04
1.007000e+03 2.108003e+04
1.008000e+03 1.781535e+04
1.009000e+03 3.464623e+03
1.010000e+03 1.894321e+04
1.011000e+03 2.249832e+04
1.012000e+03 1.983979e+04
1.013000e+03 1.904543e+04
1.014000e+03 2.974609e+02
1.015000e+03 5.688164e+02
1.016000e+03 3.727453e+03
1.017000e+03 3.251309e+02
1.018000e+03 3.658752e+03
1.019000e+03 6.291504e+02
1.020000e+03 2.981201e+04
1.021000e+03 1.907543e+03
1.022000e+03 3.823314e+03
1.023000e+03 7.997129e+02
1.024000e+03 2.757511e+04
1.025000e+03 3.914208e+02
1.026000e+03 1.155465e+03
1.027000e+03 1.352177e+04
1.028000e+03 5.181758e+02
1.029000e+03 5.074512e+02
1.030000e+03 1.700434e+04
1.031000e+03 1.030491e+04
1.032000e+03 3.296598e+04
1.033000e+03 1.285955e+03
1.034000e+03 1.971418e+04
1.035000e+03 7.158164e+02
1.036000e+03 6.847598e+02
1.037000e+03 3.604653e+04
1.038000e+03 5.087274e+04
1.039000e+03 4.087996e+04
1.040000e+03 4.396749e+04
1.041000e+03 5.730320e+04
1.042000e+03 5.500802e+04
1.043000e+03 4.890567e+04
1.044000e+03 6.371481e+04
1.045000e+03 5.128375e+04
1.046000e+03 5.824533e+04
1.047000e+03 2.544647e+04
1.048000e+03 2.848664e+03
1.049000e+03 3.671618e+04
1.050000e+03 2.419473e+04
1.051000e+03 1.522746e+04
1.052000e+03 6.690180e+04
1.053000e+03 7.768741e+04
1.054000e+03 1.129109e+03
1.055000e+03 8.442781e+04
1.056000e+03 8.659428e+04
1.057000e+03 4.638984e+04
1.058000e+03 2.341071e+04
1.059000e+03 7.729000e+03
1.060000e+03 4.198945e+03
1.061000e+03 5.644667e+04
1.062000e+03 1.400854e+04
1.063000e+03 1.655105e+04
1.064000e+03 2.235578e+03
1.065000e+03 1.703633e+03
1.066000e+03 6.613712e+04
1.067000e+03 6.641448e+03
1.068000e+03 1.222645e+05
1.069000e+03 3.064763e+03
1.070000e+03 6.649138e+04
1.071000e+03 1.274139e+05
1.072000e+03 1.290168e+05
1.073000e+03 2.512672e+03
1.074000e+03 5.136540e+04
1.075000e+03 3.782422e+04
1.076000e+03 1.450243e+05
1.077000e+03 5.507695e+03
1.078000e+03 2.516035e+04
1.079000e+03 5.870230e+04
1.080000e+03 8.053034e+04
1.081000e+03 1.167533e+05
1.082000e+03 1.107575e+05
1.083000e+03 8.948123e+04
1.084000e+03 1.855742e+05
1.085000e+03 4.372886e+04
1.086000e+03 1.934467e+05
1.087000e+03 1.388603e+04
1.088000e+03 2.064425e+05
1.089000e+03 2.121550e+05
1.090000e+03 3.887905e+04
1.091000e+03 3.980997e+04
1.092000e+03 2.220095e+05
1.093000e+03 2.275565e+05
1.094000e+03 1.610666e+05
1.095000e+03 2.446618e+05
1.096000e+03 9.770801e+04
1.097000e+03 1.920814e+05
1.098000e+03 2.618522e+05
1.099000e+03 1.124613e+05
1.100000e+03 9.985371e+03
1.101000e+03 1.781823e+04
1.102000e+03 6.057433e+04
1.103000e+03 5.807462e+05
1.104000e+03 4.581792e+05
1.105000e+03 2.943852e+05
1.106000e+03 2.303958e+05
1.107000e+03 9.462062e+03
1.108000e+03 4.986778e+05
1.109000e+03 4.086600e+04
1.110000e+03 5.290043e+05
1.111000e+03 4.654208e+05
1.112000e+03 3.883240e+05
1.113000e+03 7.530083e+05
1.114000e+03 1.723434e+05
1.115000e+03 7.696147e+04
1.116000e+03 5.468619e+04
1.117000e+03 2.257787e+05
1.118000e+03 5.845716e+04
1.119000e+03 5.231574e+05
1.120000e+03 5.518900e+04
1.121000e+03 7.437966e+05
1.122000e+03 2.194762e+04
1.123000e+03 6.228642e+05
1.124000e+03 8.739758e+05
1.125000e+03 6.604127e+05
1.126000e+03 1.112351e+06
1.127000e+03 9.531050e+05
1.128000e+03 5.707838e+05
1.129000e+03 6.478930e+05
1.130000e+03 1.019764e+06
1.131000e+03 1.101791e+06
1.132000e+03 4.653475e+04
1.133000e+03 1.296342e+05
1.134000e+03 6.583810e+05
1.135000e+03 5.404880e+04
1.136000e+03 3.042809e+05
1.137000e+03 1.167730e+06
1.138000e+03 6.502932e+05
1.139000e+03 1.315939e+06
1.140000e+03 5.489483e+04
1.141000e+03 1.270513e+06
1.142000e+03 1.440114e+06
1.143000e+03 1.077639e+06
1.144000e+03 1.486819e+06
1.145000e+03 4.210675e+04
1.146000e+03 1.581250e+06
1.147000e+03 1.492326e+06
1.148000e+03 1.441709e+05
1.149000e+03 1.412449e+06
1.150000e+03 1.073146e+06
1.151000e+03 1.713714e+06
1.152000e+03 1.626675e+06
1.153000e+03 1.319003e+06
1.154000e+03 1.778779e+06
1.155000e+03 1.359007e+06
1.156000e+03 1.727555e+06
1.157000e+03 1.834900e+06
1.158000e+03 3.342014e+05
1.159000e+03 1.818356e+06
1.160000e+03 1.013230e+06
1.161000e+03 1.927752e+06
1.162000e+03 3.424521e+05
1.163000e+03 7.113475e+05
1.164000e+03 3.281450e+04
1.165000e+03 1.996554e+06
1.166000e+03 1.723665e+06
1.167000e+03 1.686722e+06
1.168000e+03 2.295816e+06
1.169000e+03 2.316176e+06
1.170000e+03 1.829928e+06
1.171000e+03 2.154196e+06
1.172000e+03 1.276892e+06
1.173000e+03 2.477969e+06
1.174000e+03 1.622107e+05
1.175000e+03 4.559938e+04
1.176000e+03 6.221694e+04
1.177000e+03 2.732422e+06
1.178000e+03 2.771568e+06
1.179000e+03 2.700696e+06
1.180000e+03 1.795969e+06
1.181000e+03 2.914616e+06
1.182000e+03 2.771616e+06
1.183000e+03 2.330839e+06
1.184000e+03 2.155919e+06
1.185000e+03 2.625746e+06
1.186000e+03 6.166309e+05
1.187000e+03 2.787045e+06
1.188000e+03 1.670879e+06
1.189000e+03 1.414812e+05
1.190000e+03 2.785407e+06
1.191000e+03 2.795340e+06
1.192000e+03 3.255586e+06
1.193000e+03 1.640693e+05
1.194000e+03 1.772490e+05
1.195000e+03 3.109528e+06
1.196000e+03 3.273370e+06
1.197000e+03 4.730709e+06
1.198000e+03 1.281671e+06
1.199000e+03 4.700202e+06
1.200000e+03 1.799049e+06
1.201000e+03 4.552022e+06
1.202000e+03 3.032874e+06
1.203000e+03 4.977995e+06
1.204000e+03 1.479193e+06
1.205000e+03 4.377797e+06
1.206000e+03 4.579992e+06
1.207000e+03 7.178380e+05
1.208000e+03 3.595472e+06
1.209000e+03 3.102218e+06
1.210000e+03 1.303343e+05
1.211000e+03 1.815509e+06
1.212000e+03 1.021672e+06
1.213000e+03 5.983696e+05
1.214000e+03 2.276200e+05
1.215000e+03 1.229880e+05
1.216000e+03 1.814320e+05
1.217000e+03 1.712714e+05
1.218000e+03 4.928917e+05
1.219000e+03 1.083972e+06
1.220000e+03 1.123966e+06
1.221000e+03 2.788937e+06
1.222000e+03 3.432288e+06
1.223000e+03 4.212727e+06
1.224000e+03 5.212106e+06
1.225000e+03 1.351968e+06
1.226000e+03 7.171118e+06
1.227000e+03 7.586153e+06
1.228000e+03 3.841423e+06
1.229000e+03 7.645138e+06
1.230000e+03 6.970918e+06
1.231000e+03 3.419538e+06
1.232000e+03 1.043554e+07
1.233000e+03 1.107322e+07
1.234000e+03 8.240612e+06
1.235000e+03 1.136488e+07
1.236000e+03 4.932292e+06
1.237000e+03 1.236764e+07
1.238000e+03 1.182274e+07
1.239000e+03 1.121903e+07
1.240000e+03 7.842500e+06
1.241000e+03 1.062465e+07
1.242000e+03 1.255274e+07
1.243000e+03 1.432770e+07
1.244000e+03 1.423451e+07
1.245000e+03 1.424338e+07
1.246000e+03 1.409471e+07
1.247000e+03 1.464171e+07
1.248000e+03 1.266024e+07
1.249000e+03 1.621192e+07
1.250000e+03 1.274283e+07
1.251000e+03 1.740331e+07
1.252000e+03 1.620700e+07
1.253000e+03 1.800326e+07
1.254000e+03 1.711925e+07
1.255000e+03 1.840937e+07
1.256000e+03 1.720017e+07
1.257000e+03 1.678341e+07
1.258000e+03 1.465210e+07
1.259000e+03 1.798410e+07
1.260000e+03 2.011356e+07
1.261000e+03 6.092040e+05
1.262000e+03 1.833629e+07
1.263000e+03 2.056992e+07
1.264000e+03 1.739946e+07
1.265000e+03 9.181920e+05
1.266000e+03 2.190547e+07
1.267000e+03 1.900122e+07
