# wavelength_A flux
5.000000e+02 1.361437e-13
5.010000e+02 1.584959e-13
5.020000e+02 1.844021e-13
5.030000e+02 2.144089e-13
5.040000e+02 2.491435e-13
5.050000e+02 2.469872e-13
5.060000e+02 2.869289e-13
5.070000e+02 3.331242e-13
5.080000e+02 3.865198e-13
5.090000e+02 4.482005e-13
5.100000e+02 5.194098e-13
5.110000e+02 6.015697e-13
5.120000e+02 6.963087e-13
5.130000e+02 8.054883e-13
5.140000e+02 9.312358e-13
5.150000e+02 1.076041e-12
5.160000e+02 1.242498e-12
5.170000e+02 1.434386e-12
5.180000e+02 1.653948e-12
5.190000e+02 1.906602e-12
5.200000e+02 2.196601e-12
5.210000e+02 2.529306e-12
5.220000e+02 2.912857e-12
5.230000e+02 3.347852e-12
5.240000e+02 3.848388e-12
5.250000e+02 4.421053e-12
5.260000e+02 5.076396e-12
5.270000e+02 5.825691e-12
5.280000e+02 6.681943e-12
5.290000e+02 7.673207e-12
5.300000e+02 8.776238e-12
5.310000e+02 1.004989e-11
5.320000e+02 1.150225e-11
5.330000e+02 1.315754e-11
5.340000e+02 1.504313e-11
5.350000e+02 1.719006e-11
5.360000e+02 1.963401e-11
5.370000e+02 2.429314e-11
5.380000e+02 2.557443e-11
5.390000e+02 2.915847e-11
5.400000e+02 3.323345e-11
5.410000e+02 3.788482e-11
5.420000e+02 4.311038e-11
5.430000e+02 4.905726e-11
5.440000e+02 5.580146e-11
5.450000e+02 6.344140e-11
5.460000e+02 7.218010e-11
5.470000e+02 8.188165e-11
5.480000e+02 9.295598e-11
5.490000e+02 1.054761e-10
5.500000e+02 1.196254e-10
5.510000e+02 1.356077e-10
5.520000e+02 1.536521e-10
5.530000e+02 1.740150e-10
5.540000e+02 1.969838e-10
5.550000e+02 2.228797e-10
5.560000e+02 2.520623e-10
5.570000e+02 2.849339e-10
5.580000e+02 3.219438e-10
5.590000e+02 3.635940e-10
5.600000e+02 4.104453e-10
5.610000e+02 4.631236e-10
5.620000e+02 5.223270e-10
5.630000e+02 5.888344e-10
5.640000e+02 6.635139e-10
5.650000e+02 7.473338e-10
5.660000e+02 8.413685e-10
5.670000e+02 9.468207e-10
5.680000e+02 1.065024e-09
5.690000e+02 1.197464e-09
5.700000e+02 1.345796e-09
5.710000e+02 1.511842e-09
5.720000e+02 1.697655e-09
5.730000e+02 1.905494e-09
5.740000e+02 2.137873e-09
5.750000e+02 2.397334e-09
5.760000e+02 2.688524e-09
5.770000e+02 3.011402e-09
5.780000e+02 3.373019e-09
5.790000e+02 3.776507e-09
5.800000e+02 4.226534e-09
5.810000e+02 4.728281e-09
5.820000e+02 5.287515e-09
5.830000e+02 5.910882e-09
5.840000e+02 6.616868e-09
5.850000e+02 7.379373e-09
5.860000e+02 8.235325e-09
5.870000e+02 9.190340e-09
5.880000e+02 1.025242e-08
5.890000e+02 1.143325e-08
5.900000e+02 1.274429e-08
5.910000e+02 1.420068e-08
5.920000e+02 1.581741e-08
5.930000e+02 1.761147e-08
5.940000e+02 1.960154e-08
5.950000e+02 2.180823e-08
5.960000e+02 2.425418e-08
5.970000e+02 2.696435e-08
5.980000e+02 2.996616e-08
5.990000e+02 3.328978e-08
6.000000e+02 3.696835e-08
6.010000e+02 4.103855e-08
6.020000e+02 4.553971e-08
6.030000e+02 5.051644e-08
6.040000e+02 5.601676e-08
6.050000e+02 6.209358e-08
6.060000e+02 6.880590e-08
6.070000e+02 7.621453e-08
6.080000e+02 8.439208e-08
6.090000e+02 9.341405e-08
6.100000e+02 1.033642e-07
6.110000e+02 1.143342e-07
6.120000e+02 1.264245e-07
6.130000e+02 1.397448e-07
6.140000e+02 1.544155e-07
6.150000e+02 1.705677e-07
6.160000e+02 1.883454e-07
6.170000e+02 2.079053e-07
6.180000e+02 2.294191e-07
6.190000e+02 2.530742e-07
6.200000e+02 2.790747e-07
6.210000e+02 3.076443e-07
6.220000e+02 3.390263e-07
6.230000e+02 3.734865e-07
6.240000e+02 4.113144e-07
6.250000e+02 4.528261e-07
6.260000e+02 4.983654e-07
6.270000e+02 5.483075e-07
6.280000e+02 6.030601e-07
6.290000e+02 6.630681e-07
6.300000e+02 7.288154e-07
6.310000e+02 8.039146e-07
6.320000e+02 8.796786e-07
6.330000e+02 9.660210e-07
6.340000e+02 1.060439e-06
6.350000e+02 1.163871e-06
6.360000e+02 1.276765e-06
6.370000e+02 1.400287e-06
6.380000e+02 1.535303e-06
6.390000e+02 1.682824e-06
6.400000e+02 1.843960e-06
6.410000e+02 2.019916e-06
6.420000e+02 2.211998e-06
6.430000e+02 2.421619e-06
6.440000e+02 2.650318e-06
6.450000e+02 2.899764e-06
6.460000e+02 3.171735e-06
6.470000e+02 3.468216e-06
6.480000e+02 3.791282e-06
6.490000e+02 4.143249e-06
6.500000e+02 4.526595e-06
6.510000e+02 4.943955e-06
6.520000e+02 5.398266e-06
6.530000e+02 5.892644e-06
6.540000e+02 6.430478e-06
6.550000e+02 7.015404e-06
6.560000e+02 7.651392e-06
6.570000e+02 8.343256e-06
6.580000e+02 9.093935e-06
6.590000e+02 9.910065e-06
6.600000e+02 1.079647e-05
6.610000e+02 1.175891e-05
6.620000e+02 1.280365e-05
6.630000e+02 1.393742e-05
6.640000e+02 1.516747e-05
6.650000e+02 1.650167e-05
6.660000e+02 1.794832e-05
6.670000e+02 1.951662e-05
6.680000e+02 2.121632e-05
6.690000e+02 2.305793e-05
6.700000e+02 2.505279e-05
6.710000e+02 2.721310e-05
6.720000e+02 2.955197e-05
6.730000e+02 3.208352e-05
6.740000e+02 3.482292e-05
6.750000e+02 3.778648e-05
6.760000e+02 4.099174e-05
6.770000e+02 4.445754e-05
6.780000e+02 4.820412e-05
6.790000e+02 5.225322e-05
6.800000e+02 5.662817e-05
6.810000e+02 6.135404e-05
6.820000e+02 6.645772e-05
6.830000e+02 7.196802e-05
6.840000e+02 7.791599e-05
6.850000e+02 8.433480e-05
6.860000e+02 9.125998e-05
6.870000e+02 9.872976e-05
6.880000e+02 1.067850e-04
6.890000e+02 1.154695e-04
6.900000e+02 1.248304e-04
6.910000e+02 1.349176e-04
6.920000e+02 1.457852e-04
6.930000e+02 1.574908e-04
6.940000e+02 1.700960e-04
6.950000e+02 1.836669e-04
6.960000e+02 1.982740e-04
6.970000e+02 2.140139e-04
6.980000e+02 2.309044e-04
6.990000e+02 2.490946e-04
7.000000e+02 2.686561e-04
7.010000e+02 2.896872e-04
7.020000e+02 3.122935e-04
7.030000e+02 3.365873e-04
7.040000e+02 3.626889e-04
7.050000e+02 3.907267e-04
7.060000e+02 4.208374e-04
7.070000e+02 4.531674e-04
7.080000e+02 4.878726e-04
7.090000e+02 5.251199e-04
7.100000e+02 5.650852e-04
7.110000e+02 6.079593e-04
7.120000e+02 6.539433e-04
7.130000e+02 7.032525e-04
7.140000e+02 7.561159e-04
7.150000e+02 8.127777e-04
7.160000e+02 8.734979e-04
7.170000e+02 9.385635e-04
7.180000e+02 1.008301e-03
7.190000e+02 1.082870e-03
7.200000e+02 1.162778e-03
7.210000e+02 1.248321e-03
7.220000e+02 1.339877e-03
7.230000e+02 1.437847e-03
7.240000e+02 1.542661e-03
7.250000e+02 1.654773e-03
7.260000e+02 1.774668e-03
7.270000e+02 1.902860e-03
7.280000e+02 2.039896e-03
7.290000e+02 2.186356e-03
7.300000e+02 2.342858e-03
7.310000e+02 2.510057e-03
7.320000e+02 2.688648e-03
7.330000e+02 2.879371e-03
7.340000e+02 3.083010e-03
7.350000e+02 3.300398e-03
7.360000e+02 3.532430e-03
7.370000e+02 3.780004e-03
7.380000e+02 4.044153e-03
7.390000e+02 4.325919e-03
7.400000e+02 4.626429e-03
7.410000e+02 4.946838e-03
7.420000e+02 5.288438e-03
7.430000e+02 5.652528e-03
7.440000e+02 6.040541e-03
7.450000e+02 6.453963e-03
7.460000e+02 6.894375e-03
7.470000e+02 7.363454e-03
7.480000e+02 7.862971e-03
7.490000e+02 8.394807e-03
7.500000e+02 8.960946e-03
7.510000e+02 9.563494e-03
7.520000e+02 1.020467e-02
7.530000e+02 1.088684e-02
7.540000e+02 1.161249e-02
7.550000e+02 1.238424e-02
7.560000e+02 1.320488e-02
7.570000e+02 1.407749e-02
7.580000e+02 1.500479e-02
7.590000e+02 1.599059e-02
7.600000e+02 1.703780e-02
7.610000e+02 1.815048e-02
7.620000e+02 1.933244e-02
7.630000e+02 2.058776e-02
7.640000e+02 2.192073e-02
7.650000e+02 2.333594e-02
7.660000e+02 2.483816e-02
7.670000e+02 2.643251e-02
7.680000e+02 2.812482e-02
7.690000e+02 2.991943e-02
7.700000e+02 3.182329e-02
7.710000e+02 3.384274e-02
7.720000e+02 3.598419e-02
7.730000e+02 3.825469e-02
7.740000e+02 4.066160e-02
7.750000e+02 4.321267e-02
7.760000e+02 4.591872e-02
7.770000e+02 4.878055e-02
7.780000e+02 5.181502e-02
7.790000e+02 5.502920e-02
7.800000e+02 5.843314e-02
7.810000e+02 6.203741e-02
7.820000e+02 6.585328e-02
7.830000e+02 6.989245e-02
7.840000e+02 7.416736e-02
7.850000e+02 7.869101e-02
7.860000e+02 8.347717e-02
7.870000e+02 8.853932e-02
7.880000e+02 9.389442e-02
7.890000e+02 9.955758e-02
7.900000e+02 1.055456e-01
7.910000e+02 1.118761e-01
7.920000e+02 1.185676e-01
7.930000e+02 1.256398e-01
7.940000e+02 1.331130e-01
7.950000e+02 1.410088e-01
7.960000e+02 1.493499e-01
7.970000e+02 1.581600e-01
7.980000e+02 1.674641e-01
7.990000e+02 1.772884e-01
8.000000e+02 1.876605e-01
8.010000e+02 1.986092e-01
8.020000e+02 2.101649e-01
8.030000e+02 2.223595e-01
8.040000e+02 2.352264e-01
8.050000e+02 2.488007e-01
8.060000e+02 2.631191e-01
8.070000e+02 2.782203e-01
8.080000e+02 2.941447e-01
8.090000e+02 3.109348e-01
8.100000e+02 3.286352e-01
8.110000e+02 3.472925e-01
8.120000e+02 3.669556e-01
8.130000e+02 3.876759e-01
8.140000e+02 4.095070e-01
8.150000e+02 4.325065e-01
8.160000e+02 4.567297e-01
8.170000e+02 4.822421e-01
8.180000e+02 5.091073e-01
8.190000e+02 5.373929e-01
8.200000e+02 5.671701e-01
8.210000e+02 5.985131e-01
8.220000e+02 6.314997e-01
8.230000e+02 6.662116e-01
8.240000e+02 7.027335e-01
8.250000e+02 7.411550e-01
8.260000e+02 7.815694e-01
8.270000e+02 8.240744e-01
8.280000e+02 8.687721e-01
8.290000e+02 9.157692e-01
8.300000e+02 9.651775e-01
8.310000e+02 1.017114e+00
8.320000e+02 1.071700e+00
8.330000e+02 1.129065e+00
8.340000e+02 1.189340e+00
8.350000e+02 1.253107e+00
8.360000e+02 1.319223e+00
8.370000e+02 1.389062e+00
8.380000e+02 1.462442e+00
8.390000e+02 1.539495e+00
8.400000e+02 1.620397e+00
8.410000e+02 1.705327e+00
8.420000e+02 1.794623e+00
8.430000e+02 1.888041e+00
8.440000e+02 1.986228e+00
8.450000e+02 2.089253e+00
8.460000e+02 2.197340e+00
8.470000e+02 2.310724e+00
8.480000e+02 2.429651e+00
8.490000e+02 2.554374e+00
8.500000e+02 2.685161e+00
8.510000e+02 2.822290e+00
8.520000e+02 2.966055e+00
8.530000e+02 3.116746e+00
8.540000e+02 3.274649e+00
8.550000e+02 3.440168e+00
8.560000e+02 3.613608e+00
8.570000e+02 3.795324e+00
8.580000e+02 3.985719e+00
8.590000e+02 4.185094e+00
8.600000e+02 4.393939e+00
8.610000e+02 4.612649e+00
8.620000e+02 4.841655e+00
8.630000e+02 5.081427e+00
8.640000e+02 5.332424e+00
8.650000e+02 5.595159e+00
8.660000e+02 5.870131e+00
8.670000e+02 6.157892e+00
8.680000e+02 6.458995e+00
8.690000e+02 6.774023e+00
8.700000e+02 7.103646e+00
8.710000e+02 7.448303e+00
8.720000e+02 7.808844e+00
8.730000e+02 8.185884e+00
8.740000e+02 8.580138e+00
8.750000e+02 8.992344e+00
8.760000e+02 9.423269e+00
8.770000e+02 9.873735e+00
8.780000e+02 1.034451e+01
8.790000e+02 1.083653e+01
8.800000e+02 1.135066e+01
8.810000e+02 1.188784e+01
8.820000e+02 1.244904e+01
8.830000e+02 1.303528e+01
8.840000e+02 1.364759e+01
8.850000e+02 1.428708e+01
8.860000e+02 1.495488e+01
8.870000e+02 1.565216e+01
8.880000e+02 1.638015e+01
8.890000e+02 1.714012e+01
8.900000e+02 1.793338e+01
8.910000e+02 1.876131e+01
8.920000e+02 1.969924e+01
8.930000e+02 2.052693e+01
8.940000e+02 2.146763e+01
8.950000e+02 2.244903e+01
8.960000e+02 2.347277e+01
8.970000e+02 2.454058e+01
8.980000e+02 2.565425e+01
8.990000e+02 2.681561e+01
9.000000e+02 2.802658e+01
9.010000e+02 2.928915e+01
9.020000e+02 3.060540e+01
9.030000e+02 3.197749e+01
9.040000e+02 3.340754e+01
9.050000e+02 3.489795e+01
9.060000e+02 3.645108e+01
9.070000e+02 3.806991e+01
9.080000e+02 3.975552e+01
9.090000e+02 4.151205e+01
9.100000e+02 4.334176e+01
9.110000e+02 4.524715e+01
9.120000e+02 4.722955e+01
9.130000e+02 5.016584e+01
9.140000e+02 4.565911e+01
9.150000e+02 9.222752e+01
9.160000e+02 4.285553e+02
9.170000e+02 1.636494e+02
9.180000e+02 2.888858e+02
9.190000e+02 1.397244e+03
9.200000e+02 2.389309e+03
9.210000e+02 7.044898e+01
9.220000e+02 2.057635e+03
9.230000e+02 2.077555e+02
9.240000e+02 3.734958e+02
9.250000e+02 9.458486e+02
9.260000e+02 9.653328e+02
9.270000e+02 2.445661e+02
9.280000e+02 4.398221e+03
9.290000e+02 4.117557e+03
9.300000e+02 3.896106e+03
9.310000e+02 2.183904e+02
9.320000e+02 5.080076e+03
9.330000e+02 2.320621e+03
9.340000e+02 1.364197e+03
9.350000e+02 4.885987e+01
9.360000e+02 3.130322e+02
9.370000e+02 3.715498e+01
9.380000e+02 5.129115e+02
9.390000e+02 4.835406e+02
9.400000e+02 5.572251e+03
9.410000e+02 8.324466e+02
9.420000e+02 7.532900e+03
9.430000e+02 7.069426e+02
9.440000e+02 6.471953e+03
9.450000e+02 8.212299e+03
9.460000e+02 4.564736e+03
9.470000e+02 1.338286e+02
9.480000e+02 7.889478e+03
9.490000e+02 6.644914e+03
9.500000e+02 1.218253e+02
9.510000e+02 3.846614e+03
9.520000e+02 5.125923e+03
9.530000e+02 1.974142e+02
9.540000e+02 1.512258e+02
9.550000e+02 1.928241e+03
9.560000e+02 1.137692e+04
9.570000e+02 6.766140e+02
9.580000e+02 8.172827e+01
9.590000e+02 1.195664e+04
9.600000e+02 9.581274e+01
9.610000e+02 5.273111e+03
9.620000e+02 2.712901e+03
9.630000e+02 2.293393e+03
9.640000e+02 2.213391e+02
9.650000e+02 2.641699e+02
9.660000e+02 2.156109e+03
9.670000e+02 6.555869e+02
9.680000e+02 3.490977e+02
9.690000e+02 4.945395e+03
9.700000e+02 4.017660e+03
9.710000e+02 6.422808e+02
9.720000e+02 1.007272e+03
9.730000e+02 8.153378e+03
9.740000e+02 6.012949e+03
9.750000e+02 2.926349e+03
9.760000e+02 1.501384e+04
9.770000e+02 1.178930e+04
9.780000e+02 5.614580e+03
9.790000e+02 2.422021e+04
9.800000e+02 2.491153e+04
9.810000e+02 6.907426e+03
9.820000e+02 1.831383e+03
9.830000e+02 2.367122e+04
9.840000e+02 2.317032e+03
9.850000e+02 4.663278e+03
9.860000e+02 4.842352e+03
9.870000e+02 2.663813e+04
9.880000e+02 4.576055e+02
9.890000e+02 1.151656e+04
9.900000e+02 3.376986e+02
9.910000e+02 1.093856e+03
9.920000e+02 2.627917e+02
9.930000e+02 3.420258e+04
9.940000e+02 4.618818e+02
9.950000e+02 2.187521e+03
9.960000e+02 8.662148e+02
9.970000e+02 1.741166e+03
9.980000e+02 2.215461e+04
9.990000e+02 1.867733e+03
1.000000e+03 4.446395e+04
1.001000e+03 4.821328e+04
1.002000e+03 4.417909e+04
1.003000e+03 3.382752e+03
1.004000e+03 8.242734e+02
1.005000e+03 5.593246e+03
1.006000e+03 4.478825e+04
1.007000e+03 5.316379e+04
1.008000e+03 3.741450e+04
1.009000e+03 5.028717e+03
1.010000e+03 3.972612e+04
1.011000e+03 5.227670e+04
1.012000e+03 4.097934e+04
1.013000e+03 3.748401e+04
1.014000e+03 5.437852e+02
1.015000e+03 9.078516e+02
1.016000e+03 5.282777e+03
1.017000e+03 5.981563e+02
1.018000e+03 5.195781e+03
1.019000e+03 1.009359e+03
1.020000e+03 7.276920e+04
1.021000e+03 3.099879e+03
1.022000e+03 5.634914e+03
1.023000e+03 1.252953e+03
1.024000e+03 6.853377e+04
1.025000e+03 7.508193e+02
1.026000e+03 2.555707e+03
1.027000e+03 2.354788e+04
1.028000e+03 1.137711e+03
1.029000e+03 9.208906e+02
1.030000e+03 2.735475e+04
1.031000e+03 1.481440e+04
1.032000e+03 6.880432e+04
1.033000e+03 3.383027e+03
1.034000e+03 3.109260e+04
1.035000e+03 1.514797e+03
1.036000e+03 1.213465e+03
1.037000e+03 6.771257e+04
1.038000e+03 1.224236e+05
1.039000e+03 8.050561e+04
1.040000e+03 8.814072e+04
1.041000e+03 1.450267e+05
1.042000e+03 1.279019e+05
1.043000e+03 1.144088e+05
1.044000e+03 1.639440e+05
1.045000e+03 1.049745e+05
1.046000e+03 1.295153e+05
1.047000e+03 3.898602e+04
1.048000e+03 4.194414e+03
1.049000e+03 6.132570e+04
1.050000e+03 3.690470e+04
1.051000e+03 2.189184e+04
1.052000e+03 1.415490e+05
1.053000e+03 1.872584e+05
1.054000e+03 2.056250e+03
1.055000e+03 2.083950e+05
1.056000e+03 2.134030e+05
1.057000e+03 7.656991e+04
1.058000e+03 3.445026e+04
1.059000e+03 1.077452e+04
1.060000e+03 6.172891e+03
1.061000e+03 9.450627e+04
1.062000e+03 1.980547e+04
1.063000e+03 4.417916e+04
1.064000e+03 4.657875e+03
1.065000e+03 3.031969e+03
1.066000e+03 1.159041e+05
1.067000e+03 9.445865e+03
1.068000e+03 3.071298e+05
1.069000e+03 4.824558e+03
1.070000e+03 1.106002e+05
1.071000e+03 3.041422e+05
1.072000e+03 2.996778e+05
1.073000e+03 4.278062e+03
1.074000e+03 7.646279e+04
1.075000e+03 5.379706e+04
1.076000e+03 3.380311e+05
1.077000e+03 1.031956e+04
1.078000e+03 3.554256e+04
1.079000e+03 8.896336e+04
1.080000e+03 1.316662e+05
1.081000e+03 2.096063e+05
1.082000e+03 1.936721e+05
1.083000e+03 1.439985e+05
1.084000e+03 4.584886e+05
1.085000e+03 6.510550e+04
1.086000e+03 4.659589e+05
1.087000e+03 1.955900e+04
1.088000e+03 5.185261e+05
1.089000e+03 5.288604e+05
1.090000e+03 5.422421e+04
1.091000e+03 5.521944e+04
1.092000e+03 5.325122e+05
1.093000e+03 5.444451e+05
1.094000e+03 2.933753e+05
1.095000e+03 6.054554e+05
1.096000e+03 2.276557e+05
1.097000e+03 3.637444e+05
1.098000e+03 6.400877e+05
1.099000e+03 1.743269e+05
1.100000e+03 1.516358e+04
1.101000e+03 2.564732e+04
1.102000e+03 8.109427e+04
1.103000e+03 1.111488e+06
1.104000e+03 1.045732e+06
1.105000e+03 7.117937e+05
1.106000e+03 3.146416e+05
1.107000e+03 1.461725e+04
1.108000e+03 7.789767e+05
1.109000e+03 5.410400e+04
1.110000e+03 1.196774e+06
1.111000e+03 9.760433e+05
1.112000e+03 5.614574e+05
1.113000e+03 1.460420e+06
1.114000e+03 3.073488e+05
1.115000e+03 1.020167e+05
1.116000e+03 7.306171e+04
1.117000e+03 5.454894e+05
1.118000e+03 7.703106e+04
1.119000e+03 7.870396e+05
1.120000e+03 7.390212e+04
1.121000e+03 1.254484e+06
1.122000e+03 4.422500e+04
1.123000e+03 1.245152e+06
1.124000e+03 1.529754e+06
1.125000e+03 1.089227e+06
1.126000e+03 2.277322e+06
1.127000e+03 1.726160e+06
1.128000e+03 1.193532e+06
1.129000e+03 9.852184e+05
1.130000e+03 1.841670e+06
1.131000e+03 2.144555e+06
1.132000e+03 8.468444e+04
1.133000e+03 1.684322e+05
1.134000e+03 9.758808e+05
1.135000e+03 1.479877e+05
1.136000e+03 4.094428e+05
1.137000e+03 2.118264e+06
1.138000e+03 9.490418e+05
1.139000e+03 2.528864e+06
1.140000e+03 1.658427e+05
1.141000e+03 2.306500e+06
1.142000e+03 2.886377e+06
1.143000e+03 1.814598e+06
1.144000e+03 2.973686e+06
1.145000e+03 6.067825e+04
1.146000e+03 3.226500e+06
1.147000e+03 2.842305e+06
1.148000e+03 1.901934e+05
1.149000e+03 2.539479e+06
1.150000e+03 1.673190e+06
1.151000e+03 3.480012e+06
1.152000e+03 3.084908e+06
1.153000e+03 2.687881e+06
1.154000e+03 3.600528e+06
1.155000e+03 2.245094e+06
1.156000e+03 3.595322e+06
1.157000e+03 3.727440e+06
1.158000e+03 8.247619e+05
1.159000e+03 3.469991e+06
1.160000e+03 1.485773e+06
1.161000e+03 3.697758e+06
1.162000e+03 4.910865e+05
1.163000e+03 9.881512e+05
1.164000e+03 6.558675e+04
1.165000e+03 3.752404e+06
1.166000e+03 2.920992e+06
1.167000e+03 2.794239e+06
1.168000e+03 4.608418e+06
1.169000e+03 4.669659e+06
1.170000e+03 3.096945e+06
1.171000e+03 3.905099e+06
1.172000e+03 1.870858e+06
1.173000e+03 4.874844e+06
1.174000e+03 2.209008e+05
1.175000e+03 8.888500e+04
1.176000e+03 1.214690e+05
1.177000e+03 5.502714e+06
1.178000e+03 5.589023e+06
1.179000e+03 5.193710e+06
1.180000e+03 2.920700e+06
1.181000e+03 5.860645e+06
1.182000e+03 5.203770e+06
1.183000e+03 3.922962e+06
1.184000e+03 3.470299e+06
1.185000e+03 4.616023e+06
1.186000e+03 8.306696e+05
1.187000e+03 4.952103e+06
1.188000e+03 2.464438e+06
1.189000e+03 3.960380e+05
1.190000e+03 5.728609e+06
1.191000e+03 4.788747e+06
1.192000e+03 6.155209e+06
1.193000e+03 3.219670e+05
1.194000e+03 4.975195e+05
1.195000e+03 5.904987e+06
1.196000e+03 5.985191e+06
1.197000e+03 8.892069e+06
1.198000e+03 1.722430e+06
1.199000e+03 8.870084e+06
1.200000e+03 2.519657e+06
1.201000e+03 8.550690e+06
1.202000e+03 4.666371e+06
1.203000e+03 8.745858e+06
1.204000e+03 1.979519e+06
1.205000e+03 7.549671e+06
1.206000e+03 8.238509e+06
1.207000e+03 1.667553e+06
1.208000e+03 6.485517e+06
1.209000e+03 5.914648e+06
1.210000e+03 2.488805e+05
1.211000e+03 3.579213e+06
1.212000e+03 1.971582e+06
1.213000e+03 1.331787e+06
1.214000e+03 5.090148e+05
1.215000e+03 2.340450e+05
1.216000e+03 3.438533e+05
1.217000e+03 3.659262e+05
1.218000e+03 1.109844e+06
1.219000e+03 2.319178e+06
1.220000e+03 1.804927e+06
1.221000e+03 5.435067e+06
1.222000e+03 6.124473e+06
1.223000e+03 7.373234e+06
1.224000e+03 9.686626e+06
1.225000e+03 1.803401e+06
1.226000e+03 1.310401e+07
1.227000e+03 1.351012e+07
1.228000e+03 5.329821e+06
1.229000e+03 1.244304e+07
1.230000e+03 1.061685e+07
1.231000e+03 4.609531e+06
1.232000e+03 1.881756e+07
1.233000e+03 2.007442e+07
1.234000e+03 1.552550e+07
1.235000e+03 1.986575e+07
1.236000e+03 6.630624e+06
1.237000e+03 2.200232e+07
1.238000e+03 1.983559e+07
1.239000e+03 1.816043e+07
1.240000e+03 1.482601e+07
1.241000e+03 1.647862e+07
1.242000e+03 2.076460e+07
1.243000e+03 2.542366e+07
1.244000e+03 2.618811e+07
1.245000e+03 2.469901e+07
1.246000e+03 2.343491e+07
1.247000e+03 2.458717e+07
1.248000e+03 2.337711e+07
1.249000e+03 2.957915e+07
1.250000e+03 2.219752e+07
1.251000e+03 3.117045e+07
1.252000e+03 2.771924e+07
1.253000e+03 3.211478e+07
1.254000e+03 2.912756e+07
1.255000e+03 3.310594e+07
1.256000e+03 2.912192e+07
1.257000e+03 2.980792e+07
1.258000e+03 2.226666e+07
1.259000e+03 2.979706e+07
1.260000e+03 3.563767e+07
1.261000e+03 1.130884e+06
1.262000e+03 3.447333e+07
1.263000e+03 3.580273e+07
1.264000e+03 2.706309e+07
1.265000e+03 1.760668e+06
1.266000e+03 3.787287e+07
1.267000e+03 3.015640e+07
