# wavelength_A flux
5.000000e+02 7.055101e+00
5.010000e+02 7.699809e+00
5.020000e+02 8.400362e+00
5.030000e+02 9.161307e+00
5.040000e+02 9.987536e+00
5.050000e+02 1.098868e+01
5.060000e+02 1.196954e+01
5.070000e+02 1.303334e+01
5.080000e+02 1.418668e+01
5.090000e+02 1.543784e+01
5.100000e+02 1.679122e+01
5.110000e+02 1.825799e+01
5.120000e+02 1.984604e+01
5.130000e+02 2.156482e+01
5.140000e+02 2.342448e+01
5.150000e+02 2.543578e+01
5.160000e+02 2.761074e+01
5.170000e+02 2.996050e+01
5.180000e+02 3.250111e+01
5.190000e+02 3.524483e+01
5.200000e+02 3.820766e+01
5.210000e+02 4.140596e+01
5.220000e+02 4.485513e+01
5.230000e+02 4.858085e+01
5.240000e+02 5.259625e+01
5.250000e+02 5.692614e+01
5.260000e+02 6.159244e+01
5.270000e+02 6.662019e+01
5.280000e+02 7.203573e+01
5.290000e+02 7.785838e+01
5.300000e+02 8.414465e+01
5.310000e+02 9.089868e+01
5.320000e+02 9.816643e+01
5.330000e+02 1.059828e+02
5.340000e+02 1.143868e+02
5.350000e+02 1.234200e+02
5.360000e+02 1.331262e+02
5.370000e+02 1.428810e+02
5.380000e+02 1.547485e+02
5.390000e+02 1.667716e+02
5.400000e+02 1.796760e+02
5.410000e+02 1.935160e+02
5.420000e+02 2.083728e+02
5.430000e+02 2.243009e+02
5.440000e+02 2.413747e+02
5.450000e+02 2.596763e+02
5.460000e+02 2.792692e+02
5.470000e+02 3.002927e+02
5.480000e+02 3.227893e+02
5.490000e+02 3.468731e+02
5.500000e+02 3.726511e+02
5.510000e+02 4.002350e+02
5.520000e+02 4.297426e+02
5.530000e+02 4.612996e+02
5.540000e+02 4.950401e+02
5.550000e+02 5.311052e+02
5.560000e+02 5.696451e+02
5.570000e+02 6.108188e+02
5.580000e+02 6.547943e+02
5.590000e+02 7.017512e+02
5.600000e+02 7.518784e+02
5.610000e+02 8.053743e+02
5.620000e+02 8.624547e+02
5.630000e+02 9.233421e+02
5.640000e+02 9.882745e+02
5.650000e+02 1.057503e+03
5.660000e+02 1.131294e+03
5.670000e+02 1.209928e+03
5.680000e+02 1.293703e+03
5.690000e+02 1.382933e+03
5.700000e+02 1.477948e+03
5.710000e+02 1.579083e+03
5.720000e+02 1.686744e+03
5.730000e+02 1.801306e+03
5.740000e+02 1.923179e+03
5.750000e+02 2.052813e+03
5.760000e+02 2.190557e+03
5.770000e+02 2.337176e+03
5.780000e+02 2.492912e+03
5.790000e+02 2.658396e+03
5.800000e+02 2.834197e+03
5.810000e+02 3.020908e+03
5.820000e+02 3.219174e+03
5.830000e+02 3.429648e+03
5.840000e+02 3.652758e+03
5.850000e+02 3.890048e+03
5.860000e+02 4.141619e+03
5.870000e+02 4.408402e+03
5.880000e+02 4.691288e+03
5.890000e+02 4.991173e+03
5.900000e+02 5.309099e+03
5.910000e+02 5.645990e+03
5.920000e+02 6.002933e+03
5.930000e+02 6.381033e+03
5.940000e+02 6.781463e+03
5.950000e+02 7.205303e+03
5.960000e+02 7.654193e+03
5.970000e+02 8.129228e+03
5.980000e+02 8.631892e+03
5.990000e+02 9.163680e+03
6.000000e+02 9.726165e+03
6.010000e+02 1.032060e+04
6.020000e+02 1.094974e+04
6.030000e+02 1.161451e+04
6.040000e+02 1.231710e+04
6.050000e+02 1.305947e+04
6.060000e+02 1.384370e+04
6.070000e+02 1.467206e+04
6.080000e+02 1.554681e+04
6.090000e+02 1.647036e+04
6.100000e+02 1.744525e+04
6.110000e+02 1.847414e+04
6.120000e+02 1.955980e+04
6.130000e+02 2.070514e+04
6.140000e+02 2.191319e+04
6.150000e+02 2.318718e+04
6.160000e+02 2.453042e+04
6.170000e+02 2.594634e+04
6.180000e+02 2.743874e+04
6.190000e+02 2.901137e+04
6.200000e+02 3.066825e+04
6.210000e+02 3.241355e+04
6.220000e+02 3.425165e+04
6.230000e+02 3.618714e+04
6.240000e+02 3.822477e+04
6.250000e+02 4.036958e+04
6.260000e+02 4.262668e+04
6.270000e+02 4.500174e+04
6.280000e+02 4.749957e+04
6.290000e+02 5.012765e+04
6.300000e+02 5.289146e+04
6.310000e+02 5.579711e+04
6.320000e+02 5.885251e+04
6.330000e+02 6.206359e+04
6.340000e+02 6.543817e+04
6.350000e+02 6.898387e+04
6.360000e+02 7.270329e+04
6.370000e+02 7.662128e+04
6.380000e+02 8.073009e+04
6.390000e+02 8.504433e+04
6.400000e+02 8.957350e+04
6.410000e+02 9.432751e+04
6.420000e+02 9.931666e+04
6.430000e+02 1.045517e+05
6.440000e+02 1.100439e+05
6.450000e+02 1.158046e+05
6.460000e+02 1.218465e+05
6.470000e+02 1.281820e+05
6.480000e+02 1.348243e+05
6.490000e+02 1.417868e+05
6.500000e+02 1.490844e+05
6.510000e+02 1.567316e+05
6.520000e+02 1.647440e+05
6.530000e+02 1.731376e+05
6.540000e+02 1.819260e+05
6.550000e+02 1.911327e+05
6.560000e+02 2.007729e+05
6.570000e+02 2.108650e+05
6.580000e+02 2.214297e+05
6.590000e+02 2.324863e+05
6.600000e+02 2.440561e+05
6.610000e+02 2.561614e+05
6.620000e+02 2.688248e+05
6.630000e+02 2.820692e+05
6.640000e+02 2.959209e+05
6.650000e+02 3.104047e+05
6.660000e+02 3.255472e+05
6.670000e+02 3.413759e+05
6.680000e+02 3.579195e+05
6.690000e+02 3.752077e+05
6.700000e+02 3.932714e+05
6.710000e+02 4.121407e+05
6.720000e+02 4.323832e+05
6.730000e+02 4.524348e+05
6.740000e+02 4.739323e+05
6.750000e+02 4.963777e+05
6.760000e+02 5.198095e+05
6.770000e+02 5.442674e+05
6.780000e+02 5.697826e+05
6.790000e+02 5.964161e+05
6.800000e+02 6.242042e+05
6.810000e+02 6.531949e+05
6.820000e+02 6.834339e+05
6.830000e+02 7.149707e+05
6.840000e+02 7.478557e+05
6.850000e+02 7.821433e+05
6.860000e+02 8.178874e+05
6.870000e+02 8.551459e+05
6.880000e+02 8.939748e+05
6.890000e+02 9.344380e+05
6.900000e+02 9.765997e+05
6.910000e+02 1.020520e+06
6.920000e+02 1.066270e+06
6.930000e+02 1.113919e+06
6.940000e+02 1.163538e+06
6.950000e+02 1.215204e+06
6.960000e+02 1.268992e+06
6.970000e+02 1.324982e+06
6.980000e+02 1.383258e+06
6.990000e+02 1.443906e+06
7.000000e+02 1.507014e+06
7.010000e+02 1.572642e+06
7.020000e+02 1.640943e+06
7.030000e+02 1.711988e+06
7.040000e+02 1.785876e+06
7.050000e+02 1.862711e+06
7.060000e+02 1.942601e+06
7.070000e+02 2.025651e+06
7.080000e+02 2.111988e+06
7.090000e+02 2.201726e+06
7.100000e+02 2.294983e+06
7.110000e+02 2.391889e+06
7.120000e+02 2.492574e+06
7.130000e+02 2.597172e+06
7.140000e+02 2.705822e+06
7.150000e+02 2.818668e+06
7.160000e+02 2.935856e+06
7.170000e+02 3.057542e+06
7.180000e+02 3.183884e+06
7.190000e+02 3.315033e+06
7.200000e+02 3.451170e+06
7.210000e+02 3.592464e+06
7.220000e+02 3.739091e+06
7.230000e+02 3.891159e+06
7.240000e+02 4.049014e+06
7.250000e+02 4.212772e+06
7.260000e+02 4.382624e+06
7.270000e+02 4.558789e+06
7.280000e+02 4.741480e+06
7.290000e+02 4.930915e+06
7.300000e+02 5.127700e+06
7.310000e+02 5.330933e+06
7.320000e+02 5.542104e+06
7.330000e+02 5.760742e+06
7.340000e+02 5.987420e+06
7.350000e+02 6.222246e+06
7.360000e+02 6.465619e+06
7.370000e+02 6.717767e+06
7.380000e+02 6.978964e+06
7.390000e+02 7.249506e+06
7.400000e+02 7.529696e+06
7.410000e+02 7.819836e+06
7.420000e+02 8.120271e+06
7.430000e+02 8.431128e+06
7.440000e+02 8.753112e+06
7.450000e+02 9.086399e+06
7.460000e+02 9.431349e+06
7.470000e+02 9.788362e+06
7.480000e+02 1.015773e+07
7.490000e+02 1.053994e+07
7.500000e+02 1.093536e+07
7.510000e+02 1.134426e+07
7.520000e+02 1.176735e+07
7.530000e+02 1.220492e+07
7.540000e+02 1.265742e+07
7.550000e+02 1.312533e+07
7.560000e+02 1.360911e+07
7.570000e+02 1.410934e+07
7.580000e+02 1.462620e+07
7.590000e+02 1.516060e+07
7.600000e+02 1.571287e+07
7.610000e+02 1.628361e+07
7.620000e+02 1.687335e+07
7.630000e+02 1.748231e+07
7.640000e+02 1.811180e+07
7.650000e+02 1.876207e+07
7.660000e+02 1.943372e+07
7.670000e+02 2.012741e+07
7.680000e+02 2.084382e+07
7.690000e+02 2.158352e+07
7.700000e+02 2.234729e+07
7.710000e+02 2.313582e+07
7.720000e+02 2.394982e+07
7.730000e+02 2.479004e+07
7.740000e+02 2.565724e+07
7.750000e+02 2.655221e+07
7.760000e+02 2.747661e+07
7.770000e+02 2.842866e+07
7.780000e+02 2.941175e+07
7.790000e+02 3.042601e+07
7.800000e+02 3.147225e+07
7.810000e+02 3.255139e+07
7.820000e+02 3.366382e+07
7.830000e+02 3.481161e+07
7.840000e+02 3.599508e+07
7.850000e+02 3.721536e+07
7.860000e+02 3.847346e+07
7.870000e+02 3.977038e+07
7.880000e+02 4.110725e+07
7.890000e+02 4.248517e+07
7.900000e+02 4.390527e+07
7.910000e+02 4.536871e+07
7.920000e+02 4.687590e+07
7.930000e+02 4.842959e+07
7.940000e+02 5.003030e+07
7.950000e+02 5.167927e+07
7.960000e+02 5.337783e+07
7.970000e+02 5.512732e+07
7.980000e+02 5.692912e+07
7.990000e+02 5.878463e+07
8.000000e+02 6.069528e+07
8.010000e+02 6.266262e+07
8.020000e+02 6.468794e+07
8.030000e+02 6.677302e+07
8.040000e+02 6.891931e+07
8.050000e+02 7.112820e+07
8.060000e+02 7.340187e+07
8.070000e+02 7.574200e+07
8.080000e+02 7.814982e+07
8.090000e+02 8.062735e+07
8.100000e+02 8.317639e+07
8.110000e+02 8.579882e+07
8.120000e+02 8.849646e+07
8.130000e+02 9.127130e+07
8.140000e+02 9.412533e+07
8.150000e+02 9.706071e+07
8.160000e+02 1.000790e+08
8.170000e+02 1.031829e+08
8.180000e+02 1.063743e+08
8.190000e+02 1.096554e+08
8.200000e+02 1.130293e+08
8.210000e+02 1.164967e+08
8.220000e+02 1.200609e+08
8.230000e+02 1.237243e+08
8.240000e+02 1.274889e+08
8.250000e+02 1.313577e+08
8.260000e+02 1.353327e+08
8.270000e+02 1.394175e+08
8.280000e+02 1.436142e+08
8.290000e+02 1.479256e+08
8.300000e+02 1.523545e+08
8.310000e+02 1.569038e+08
8.320000e+02 1.615764e+08
8.330000e+02 1.663752e+08
8.340000e+02 1.713032e+08
8.350000e+02 1.763656e+08
8.360000e+02 1.815601e+08
8.370000e+02 1.868945e+08
8.380000e+02 1.923725e+08
8.390000e+02 1.979940e+08
8.400000e+02 2.037653e+08
8.410000e+02 2.096892e+08
8.420000e+02 2.157683e+08
8.430000e+02 2.220046e+08
8.440000e+02 2.284075e+08
8.450000e+02 2.349776e+08
8.460000e+02 2.417189e+08
8.470000e+02 2.486346e+08
8.480000e+02 2.557302e+08
8.490000e+02 2.630088e+08
8.500000e+02 2.704750e+08
8.510000e+02 2.781331e+08
8.520000e+02 2.859875e+08
8.530000e+02 2.940423e+08
8.540000e+02 3.023018e+08
8.550000e+02 3.107715e+08
8.560000e+02 3.194556e+08
8.570000e+02 3.283592e+08
8.580000e+02 3.374872e+08
8.590000e+02 3.468442e+08
8.600000e+02 3.564358e+08
8.610000e+02 3.662669e+08
8.620000e+02 3.763430e+08
8.630000e+02 3.866689e+08
8.640000e+02 3.972511e+08
8.650000e+02 4.080952e+08
8.660000e+02 4.192056e+08
8.670000e+02 4.305894e+08
8.680000e+02 4.422522e+08
8.690000e+02 4.542000e+08
8.700000e+02 4.664390e+08
8.710000e+02 4.789755e+08
8.720000e+02 4.918157e+08
8.730000e+02 5.049664e+08
8.740000e+02 5.184340e+08
8.750000e+02 5.322253e+08
8.760000e+02 5.463473e+08
8.770000e+02 5.608070e+08
8.780000e+02 5.756114e+08
8.790000e+02 5.907677e+08
8.800000e+02 6.062837e+08
8.810000e+02 6.221665e+08
8.820000e+02 6.384238e+08
8.830000e+02 6.550636e+08
8.840000e+02 6.720940e+08
8.850000e+02 6.895224e+08
8.860000e+02 7.073581e+08
8.870000e+02 7.256079e+08
8.880000e+02 7.442673e+08
8.890000e+02 7.633729e+08
8.900000e+02 7.829195e+08
8.910000e+02 8.029160e+08
8.920000e+02 8.242241e+08
8.930000e+02 8.442956e+08
8.940000e+02 8.656975e+08
8.950000e+02 8.875891e+08
8.960000e+02 9.099728e+08
8.970000e+02 9.328662e+08
8.980000e+02 9.562769e+08
8.990000e+02 9.802150e+08
9.000000e+02 1.004692e+09
9.010000e+02 1.029717e+09
9.020000e+02 1.055301e+09
9.030000e+02 1.081455e+09
9.040000e+02 1.108192e+09
9.050000e+02 1.135508e+09
9.060000e+02 1.163438e+09
9.070000e+02 1.192008e+09
9.080000e+02 1.221164e+09
9.090000e+02 1.250981e+09
9.100000e+02 1.281450e+09
9.110000e+02 1.312585e+09
9.120000e+02 1.344396e+09
9.130000e+02 1.379226e+09
9.140000e+02 1.410207e+09
9.150000e+02 1.746958e+09
9.160000e+02 2.531825e+09
9.170000e+02 2.708748e+09
9.180000e+02 2.360866e+09
9.190000e+02 4.470211e+09
9.200000e+02 7.091653e+09
9.210000e+02 1.712078e+09
9.220000e+02 1.011981e+10
9.230000e+02 2.836293e+09
9.240000e+02 9.784303e+09
9.250000e+02 1.331268e+10
9.260000e+02 3.843785e+09
9.270000e+02 1.078698e+10
9.280000e+02 1.800049e+10
9.290000e+02 1.632010e+10
9.300000e+02 1.109979e+10
9.310000e+02 4.590140e+09
9.320000e+02 1.706830e+10
9.330000e+02 2.272926e+10
9.340000e+02 2.485120e+10
9.350000e+02 1.077341e+10
9.360000e+02 2.227885e+10
9.370000e+02 6.683834e+09
9.380000e+02 4.342327e+09
9.390000e+02 1.895242e+10
9.400000e+02 2.627733e+10
9.410000e+02 1.735939e+10
9.420000e+02 3.115296e+10
9.430000e+02 3.217164e+10
9.440000e+02 1.852898e+10
9.450000e+02 3.317719e+10
9.460000e+02 3.300345e+10
9.470000e+02 2.311368e+10
9.480000e+02 2.542345e+10
9.490000e+02 1.565474e+10
9.500000e+02 5.892278e+09
9.510000e+02 2.347836e+10
9.520000e+02 3.279313e+10
9.530000e+02 3.645163e+10
9.540000e+02 3.184116e+10
9.550000e+02 4.022774e+10
9.560000e+02 3.415013e+10
9.570000e+02 3.482749e+10
9.580000e+02 4.298296e+10
9.590000e+02 4.402951e+10
9.600000e+02 1.124349e+10
9.610000e+02 4.537167e+10
9.620000e+02 4.591308e+10
9.630000e+02 4.713028e+10
9.640000e+02 4.418769e+09
9.650000e+02 4.454912e+10
9.660000e+02 4.901761e+10
9.670000e+02 4.902553e+10
9.680000e+02 4.881663e+10
9.690000e+02 4.835930e+10
9.700000e+02 4.571464e+10
9.710000e+02 3.777081e+10
9.720000e+02 1.757711e+10
9.730000e+02 1.589377e+10
9.740000e+02 3.861632e+10
9.750000e+02 4.929519e+10
9.760000e+02 5.430237e+10
9.770000e+02 5.706528e+10
9.780000e+02 5.887616e+10
9.790000e+02 6.050073e+10
9.800000e+02 6.180466e+10
9.810000e+02 6.301212e+10
9.820000e+02 6.342966e+10
9.830000e+02 6.522434e+10
9.840000e+02 2.731458e+10
9.850000e+02 6.747405e+10
9.860000e+02 6.855716e+10
9.870000e+02 6.948733e+10
9.880000e+02 6.941395e+10
9.890000e+02 4.921960e+10
9.900000e+02 9.022609e+09
9.910000e+02 7.352531e+10
9.920000e+02 6.496559e+10
9.930000e+02 7.207453e+10
9.940000e+02 1.279580e+10
9.950000e+02 2.051666e+10
9.960000e+02 1.521103e+10
9.970000e+02 1.734426e+10
9.980000e+02 8.237203e+10
9.990000e+02 8.113789e+10
1.000000e+03 8.490627e+10
1.001000e+03 8.635573e+10
1.002000e+03 8.755999e+10
1.003000e+03 7.366896e+10
1.004000e+03 9.026646e+10
1.005000e+03 7.638200e+10
1.006000e+03 9.295723e+10
1.007000e+03 9.339643e+10
1.008000e+03 9.552123e+10
1.009000e+03 9.172408e+10
1.010000e+03 9.844724e+10
1.011000e+03 9.985709e+10
1.012000e+03 1.011652e+11
1.013000e+03 1.026224e+11
1.014000e+03 1.040593e+11
1.015000e+03 1.034353e+11
1.016000e+03 1.064698e+11
1.017000e+03 1.079815e+11
1.018000e+03 1.089669e+11
1.019000e+03 1.099725e+11
1.020000e+03 1.103686e+11
1.021000e+03 7.828418e+10
1.022000e+03 1.045499e+11
1.023000e+03 1.023111e+11
1.024000e+03 8.395264e+10
1.025000e+03 4.733979e+10
1.026000e+03 2.444560e+10
1.027000e+03 7.438068e+10
1.028000e+03 3.931614e+10
1.029000e+03 1.173750e+11
1.030000e+03 1.216448e+11
1.031000e+03 1.294273e+11
1.032000e+03 1.300917e+11
1.033000e+03 8.165464e+10
1.034000e+03 1.386699e+11
1.035000e+03 3.341305e+10
1.036000e+03 1.371975e+11
1.037000e+03 1.863832e+10
1.038000e+03 1.477964e+11
1.039000e+03 1.467293e+11
1.040000e+03 1.522076e+11
1.041000e+03 1.532095e+11
1.042000e+03 1.452598e+11
1.043000e+03 1.558001e+11
1.044000e+03 1.586181e+11
1.045000e+03 1.627899e+11
1.046000e+03 1.654952e+11
1.047000e+03 1.670748e+11
1.048000e+03 1.647290e+11
1.049000e+03 1.667830e+11
1.050000e+03 1.749541e+11
1.051000e+03 1.773690e+11
1.052000e+03 1.797615e+11
1.053000e+03 1.730251e+11
1.054000e+03 1.838960e+11
1.055000e+03 1.846439e+11
1.056000e+03 1.896842e+11
1.057000e+03 1.918232e+11
1.058000e+03 1.943658e+11
1.059000e+03 1.971717e+11
1.060000e+03 1.999855e+11
1.061000e+03 2.026618e+11
1.062000e+03 2.053336e+11
1.063000e+03 8.712021e+10
1.064000e+03 4.387606e+10
1.065000e+03 2.194283e+11
1.066000e+03 1.828838e+11
1.067000e+03 1.962273e+11
1.068000e+03 2.285365e+11
1.069000e+03 2.289656e+11
1.070000e+03 2.199006e+11
1.071000e+03 2.378761e+11
1.072000e+03 2.408302e+11
1.073000e+03 2.440767e+11
1.074000e+03 2.470939e+11
1.075000e+03 2.499033e+11
1.076000e+03 2.534005e+11
1.077000e+03 2.550628e+11
1.078000e+03 2.591562e+11
1.079000e+03 2.607046e+11
1.080000e+03 2.657554e+11
1.081000e+03 2.700205e+11
1.082000e+03 2.733935e+11
1.083000e+03 2.738824e+11
1.084000e+03 2.121900e+11
1.085000e+03 2.070339e+11
1.086000e+03 2.875316e+11
1.087000e+03 2.906089e+11
1.088000e+03 2.938123e+11
1.089000e+03 2.977712e+11
1.090000e+03 3.000777e+11
1.091000e+03 3.051119e+11
1.092000e+03 3.094924e+11
1.093000e+03 3.130804e+11
1.094000e+03 3.171801e+11
1.095000e+03 3.200779e+11
1.096000e+03 3.245034e+11
1.097000e+03 3.240209e+11
1.098000e+03 3.116358e+11
1.099000e+03 3.352314e+11
1.100000e+03 3.321262e+11
1.101000e+03 3.210021e+11
1.102000e+03 5.666434e+11
1.103000e+03 1.085422e+12
1.104000e+03 6.698873e+11
1.105000e+03 3.355573e+11
1.106000e+03 1.782305e+12
1.107000e+03 1.777022e+12
1.108000e+03 1.812112e+12
1.109000e+03 1.065674e+12
1.110000e+03 4.372279e+11
1.111000e+03 6.218065e+11
1.112000e+03 1.639465e+12
1.113000e+03 1.922358e+12
1.114000e+03 2.621553e+11
1.115000e+03 1.911218e+12
1.116000e+03 1.961131e+12
1.117000e+03 3.107764e+11
1.118000e+03 1.525260e+12
1.119000e+03 2.009548e+12
1.120000e+03 2.037475e+12
1.121000e+03 1.688416e+12
1.122000e+03 7.938651e+10
1.123000e+03 4.295578e+11
1.124000e+03 2.096099e+12
1.125000e+03 9.454459e+11
1.126000e+03 2.150230e+12
1.127000e+03 2.087645e+12
1.128000e+03 1.180430e+12
1.129000e+03 2.153185e+12
1.130000e+03 1.656853e+12
1.131000e+03 2.272009e+12
1.132000e+03 2.163978e+11
1.133000e+03 1.916777e+12
1.134000e+03 2.281016e+12
1.135000e+03 1.062090e+11
1.136000e+03 2.288140e+12
1.137000e+03 2.409425e+12
1.138000e+03 2.440499e+12
1.139000e+03 2.389713e+12
1.140000e+03 1.427870e+11
1.141000e+03 2.508112e+12
1.142000e+03 2.261762e+12
1.143000e+03 2.540165e+12
1.144000e+03 2.575538e+12
1.145000e+03 2.349470e+12
1.146000e+03 2.605982e+12
1.147000e+03 2.628010e+12
1.148000e+03 2.657858e+12
1.149000e+03 2.697382e+12
1.150000e+03 2.613571e+12
1.151000e+03 2.735580e+12
1.152000e+03 2.713807e+12
1.153000e+03 8.579792e+11
1.154000e+03 3.211117e+11
1.155000e+03 2.170906e+12
1.156000e+03 9.435771e+11
1.157000e+03 2.883554e+12
1.158000e+03 1.716905e+11
1.159000e+03 2.362368e+12
1.160000e+03 2.686862e+12
1.161000e+03 3.003891e+12
1.162000e+03 7.590180e+11
1.163000e+03 2.877554e+12
1.164000e+03 3.028436e+11
1.165000e+03 3.107637e+12
1.166000e+03 3.061610e+12
1.167000e+03 2.882103e+12
1.168000e+03 3.185778e+12
1.169000e+03 3.108900e+12
1.170000e+03 3.250251e+12
1.171000e+03 3.277274e+12
1.172000e+03 3.105261e+12
1.173000e+03 3.291886e+12
1.174000e+03 3.181242e+12
1.175000e+03 3.188893e+11
1.176000e+03 2.366350e+11
1.177000e+03 3.349170e+12
1.178000e+03 2.970998e+12
1.179000e+03 3.459784e+12
1.180000e+03 2.711834e+12
1.181000e+03 3.461458e+12
1.182000e+03 3.556947e+12
1.183000e+03 3.576260e+12
1.184000e+03 3.600446e+12
1.185000e+03 3.345002e+12
1.186000e+03 3.633401e+12
1.187000e+03 3.651127e+12
1.188000e+03 3.419425e+12
1.189000e+03 2.517940e+11
1.190000e+03 8.330554e+11
1.191000e+03 3.601885e+12
1.192000e+03 3.644845e+12
1.193000e+03 2.040710e+11
1.194000e+03 2.879780e+11
1.195000e+03 2.299790e+12
1.196000e+03 3.618039e+12
1.197000e+03 3.833771e+12
1.198000e+03 3.855634e+12
1.199000e+03 3.797509e+12
1.200000e+03 3.595151e+12
1.201000e+03 3.632303e+12
1.202000e+03 3.572750e+12
1.203000e+03 3.613557e+12
1.204000e+03 3.402188e+12
1.205000e+03 3.270059e+12
1.206000e+03 2.559607e+12
1.207000e+03 1.624204e+12
1.208000e+03 2.563688e+12
1.209000e+03 2.083421e+12
1.210000e+03 3.903322e+11
1.211000e+03 1.535643e+12
1.212000e+03 1.120661e+12
1.213000e+03 8.000692e+11
1.214000e+03 5.020887e+11
1.215000e+03 3.105701e+11
1.216000e+03 2.759929e+11
1.217000e+03 4.362556e+11
1.218000e+03 7.263017e+11
1.219000e+03 1.111183e+12
1.220000e+03 1.544957e+12
1.221000e+03 1.990932e+12
1.222000e+03 2.433074e+12
1.223000e+03 2.854654e+12
1.224000e+03 3.250612e+12
1.225000e+03 3.604258e+12
1.226000e+03 3.914824e+12
1.227000e+03 4.235721e+12
1.228000e+03 4.586355e+12
1.229000e+03 4.797063e+12
1.230000e+03 5.083451e+12
1.231000e+03 5.355779e+12
1.232000e+03 5.590229e+12
1.233000e+03 5.804931e+12
1.234000e+03 4.944266e+12
1.235000e+03 6.156683e+12
1.236000e+03 6.378216e+12
1.237000e+03 6.530336e+12
1.238000e+03 6.711619e+12
1.239000e+03 6.873641e+12
1.240000e+03 6.586452e+12
1.241000e+03 9.323547e+12
1.242000e+03 6.630731e+12
1.243000e+03 8.192950e+12
1.244000e+03 4.647881e+12
1.245000e+03 6.206056e+12
1.246000e+03 1.141415e+13
1.247000e+03 1.179052e+13
1.248000e+03 4.928071e+12
1.249000e+03 5.669157e+12
1.250000e+03 1.300899e+13
1.251000e+03 1.323443e+13
1.252000e+03 1.310111e+13
1.253000e+03 1.415807e+13
1.254000e+03 1.444509e+13
1.255000e+03 1.451805e+13
1.256000e+03 1.452516e+13
1.257000e+03 1.542785e+13
1.258000e+03 1.561292e+13
1.259000e+03 1.560703e+13
1.260000e+03 1.468882e+13
1.261000e+03 4.994362e+11
1.262000e+03 3.328265e+12
1.263000e+03 1.699705e+13
1.264000e+03 1.655359e+13
1.265000e+03 4.700677e+11
1.266000e+03 1.798080e+13
1.267000e+03 1.864355e+13
