#  Table A1V.tab  Wed 12:50:22 06-Nov-96
#      WAVELENGTH            FLUX
#       angstrom            flam
#!Units:  angstrom erg/cm2/s/A
            1000.    9.606644E-18
            1001.    9.850229E-18
            1002.    1.009340E-17
            1003.    1.033600E-17
            1004.    1.057816E-17
            1005.    1.081987E-17
            1006.    1.102806E-17
            1007.    1.123591E-17
            1008.    1.144334E-17
            1009.    1.165031E-17
            1010.    1.185691E-17
            1011.    1.206310E-17
            1012.    1.226887E-17
            1013.    1.247426E-17
            1014.    1.267918E-17
            1015.    1.288378E-17
            1016.    1.270304E-17
            1017.    1.252269E-17
            1018.    1.234272E-17
            1019.    1.216303E-17
            1020.    1.198377E-17
            1021.    1.180479E-17
            1022.    1.162619E-17
            1023.    1.144795E-17
            1024.    1.127007E-17
            1025.    1.109253E-17
            1026.    1.170674E-17
            1027.    1.231980E-17
            1028.    1.293162E-17
            1029.    1.354226E-17
            1030.    1.415176E-17
            1031.    1.476001E-17
            1032.    1.536712E-17
            1033.    1.597306E-17
            1034.    1.657782E-17
            1035.    1.718140E-17
            1036.    1.752126E-17
            1037.    1.786052E-17
            1038.    1.819907E-17
            1039.    1.853704E-17
            1040.    1.887430E-17
            1041.    1.921094E-17
            1042.    1.954691E-17
            1043.    1.988227E-17
            1044.    2.021694E-17
            1045.    2.055105E-17
            1046.    2.088053E-17
            1047.    2.120948E-17
            1048.    2.153778E-17
            1049.    2.186536E-17
            1050.    2.219240E-17
            1051.    2.251886E-17
            1052.    2.284466E-17
            1053.    2.316975E-17
            1054.    2.349434E-17
            1055.    2.381822E-17
            1056.    2.408136E-17
            1057.    2.434399E-17
            1058.    2.460608E-17
            1059.    2.486765E-17
            1060.    2.512875E-17
            1061.    2.538941E-17
            1062.    2.564944E-17
            1063.    2.590910E-17
            1064.    2.616820E-17
            1065.    2.642691E-17
            1066.    2.693491E-17
            1067.    2.744188E-17
            1068.    2.794794E-17
            1069.    2.845316E-17
            1070.    2.895737E-17
            1071.    2.946057E-17
            1072.    2.996293E-17
            1073.    3.046424E-17
            1074.    3.096463E-17
            1075.    3.146417E-17
            1076.    3.190605E-17
            1077.    3.234711E-17
            1078.    3.278746E-17
            1079.    3.322674E-17
            1080.    3.366543E-17
            1081.    3.410330E-17
            1082.    3.454030E-17
            1083.    3.497655E-17
            1084.    3.541183E-17
            1085.    3.584647E-17
            1086.    3.618612E-17
            1087.    3.652516E-17
            1088.    3.686347E-17
            1089.    3.720124E-17
            1090.    3.753840E-17
            1091.    3.787496E-17
            1092.    3.821092E-17
            1093.    3.854620E-17
            1094.    3.888082E-17
            1095.    3.921494E-17
            1096.    4.661470E-17
            1097.    5.400109E-17
            1098.    6.137386E-17
            1099.    6.873348E-17
            1100.    7.607928E-17
            1101.    8.341220E-17
            1102.    9.073140E-17
            1103.    9.803765E-17
            1104.    1.053306E-16
            1105.    1.126102E-16
            1106.    1.202245E-16
            1107.    1.278252E-16
            1108.    1.354121E-16
            1109.    1.429853E-16
            1110.    1.505452E-16
            1111.    1.580909E-16
            1112.    1.656231E-16
            1113.    1.731423E-16
            1114.    1.806474E-16
            1115.    1.881394E-16
            1116.    1.934422E-16
            1117.    1.987356E-16
            1118.    2.040190E-16
            1119.    2.092936E-16
            1120.    2.145580E-16
            1121.    2.198134E-16
            1122.    2.250595E-16
            1123.    2.302966E-16
            1124.    2.355240E-16
            1125.    2.407418E-16
            1126.    2.446044E-16
            1127.    2.484608E-16
            1128.    2.523100E-16
            1129.    2.561521E-16
            1130.    2.599869E-16
            1131.    2.638161E-16
            1132.    2.676382E-16
            1133.    2.714533E-16
            1134.    2.752616E-16
            1135.    2.790638E-16
            1136.    2.823833E-16
            1137.    2.856975E-16
            1138.    2.890057E-16
            1139.    2.923088E-16
            1140.    2.956039E-16
            1141.    2.988952E-16
            1142.    3.021809E-16
            1143.    3.054597E-16
            1144.    3.087334E-16
            1145.    3.120010E-16
            1146.    3.130815E-16
            1147.    3.141596E-16
            1148.    3.152355E-16
            1149.    3.163097E-16
            1150.    3.173815E-16
            1151.    3.184519E-16
            1152.    3.195200E-16
            1153.    3.205872E-16
            1154.    3.216524E-16
            1155.    3.227157E-16
            1156.    3.293724E-16
            1157.    3.360191E-16
            1158.    3.426552E-16
            1159.    3.492789E-16
            1160.    3.558899E-16
            1161.    3.624920E-16
            1162.    3.690809E-16
            1163.    3.756592E-16
            1164.    3.822262E-16
            1165.    3.887812E-16
            1166.    3.920577E-16
            1167.    3.953268E-16
            1168.    3.985911E-16
            1169.    4.018509E-16
            1170.    4.051039E-16
            1171.    4.083526E-16
            1172.    4.115950E-16
            1173.    4.148305E-16
            1174.    4.180626E-16
            1175.    4.212893E-16
            1176.    4.196232E-16
            1177.    4.179612E-16
            1178.    4.163014E-16
            1179.    4.146447E-16
            1180.    4.129908E-16
            1181.    4.113397E-16
            1182.    4.096927E-16
            1183.    4.080466E-16
            1184.    4.064045E-16
            1185.    4.047641E-16
            1186.    3.889063E-16
            1187.    3.730765E-16
            1188.    3.572719E-16
            1189.    3.414937E-16
            1190.    3.257429E-16
            1191.    3.100176E-16
            1192.    2.943190E-16
            1193.    2.786470E-16
            1194.    2.630017E-16
            1195.    2.473826E-16
            1196.    2.474085E-16
            1197.    2.474349E-16
            1198.    2.474599E-16
            1199.    2.474864E-16
            1200.    2.475125E-16
            1201.    2.475387E-16
            1202.    2.475643E-16
            1203.    2.475901E-16
            1204.    2.476159E-16
            1205.    2.476421E-16
            1206.    2.284440E-16
            1207.    2.092780E-16
            1208.    1.901435E-16
            1209.    1.710404E-16
            1210.    1.519697E-16
            1211.    1.329300E-16
            1212.    1.139216E-16
            1213.    9.494472E-17
            1214.    7.599912E-17
            1215.    5.708473E-17
            1216.    7.893192E-17
            1217.    1.007431E-16
            1218.    1.225184E-16
            1219.    1.442581E-16
            1220.    1.659624E-16
            1221.    1.876308E-16
            1222.    2.092638E-16
            1223.    2.308618E-16
            1224.    2.524248E-16
            1225.    2.739513E-16
            1226.    3.036562E-16
            1227.    3.333110E-16
            1228.    3.629191E-16
            1229.    3.924785E-16
            1230.    4.219903E-16
            1231.    4.514543E-16
            1232.    4.808693E-16
            1233.    5.102368E-16
            1234.    5.395557E-16
            1235.    5.688298E-16
            1236.    6.297825E-16
            1237.    6.906387E-16
            1238.    7.513942E-16
            1239.    8.120505E-16
            1240.    8.726134E-16
            1241.    9.330755E-16
            1242.    9.934397E-16
            1243.    1.053709E-15
            1244.    1.113879E-15
            1245.    1.173955E-15
            1246.    1.331846E-15
            1247.    1.489496E-15
            1248.    1.646882E-15
            1249.    1.804023E-15
            1250.    1.960915E-15
            1251.    2.117544E-15
            1252.    2.273936E-15
            1253.    2.430071E-15
            1254.    2.585956E-15
            1255.    2.741603E-15
            1256.    2.913874E-15
            1257.    3.085860E-15
            1258.    3.257590E-15
            1259.    3.429034E-15
            1260.    3.600209E-15
            1261.    3.771114E-15
            1262.    3.941752E-15
            1263.    4.112118E-15
            1264.    4.282217E-15
            1265.    4.452043E-15
            1266.    6.092542E-15
            1267.    7.730462E-15
            1268.    9.365802E-15
            1269.    1.099853E-14
            1270.    1.262874E-14
            1271.    1.425633E-14
            1272.    1.588140E-14
            1273.    1.750391E-14
            1274.    1.912389E-14
            1275.    2.074130E-14
            1276.    2.394913E-14
            1277.    2.715199E-14
            1278.    3.034979E-14
            1279.    3.354264E-14
            1280.    3.673054E-14
            1281.    3.991331E-14
            1282.    4.309120E-14
            1283.    4.626410E-14
            1284.    4.943214E-14
            1285.    5.259515E-14
            1286.    5.462241E-14
            1287.    5.664635E-14
            1288.    5.866715E-14
            1289.    6.068475E-14
            1290.    6.269930E-14
            1291.    6.471072E-14
            1292.    6.671890E-14
            1293.    6.872409E-14
            1294.    7.072628E-14
            1295.    7.272543E-14
            1296.    6.979128E-14
            1297.    6.686164E-14
            1298.    6.393655E-14
            1299.    6.101603E-14
            1300.    5.810002E-14
            1301.    5.518848E-14
            1302.    5.228147E-14
            1303.    4.937877E-14
            1304.    4.648076E-14
            1305.    4.358702E-14
            1306.    5.035219E-14
            1307.    5.710696E-14
            1308.    6.385137E-14
            1309.    7.058544E-14
            1310.    7.730921E-14
            1311.    8.402268E-14
            1312.    9.072615E-14
            1313.    9.741933E-14
            1314.    1.041022E-13
            1315.    1.107750E-13
            1316.    1.134481E-13
            1317.    1.161173E-13
            1318.    1.187828E-13
            1319.    1.214440E-13
            1320.    1.241008E-13
            1321.    1.267542E-13
            1322.    1.294034E-13
            1323.    1.320484E-13
            1324.    1.346892E-13
            1325.    1.373263E-13
            1326.    1.365596E-13
            1327.    1.357939E-13
            1328.    1.350293E-13
            1329.    1.342660E-13
            1330.    1.335038E-13
            1331.    1.327427E-13
            1332.    1.319831E-13
            1333.    1.312238E-13
            1334.    1.304664E-13
            1335.    1.297099E-13
            1336.    1.359331E-13
            1337.    1.421471E-13
            1338.    1.483519E-13
            1339.    1.545471E-13
            1340.    1.607334E-13
            1341.    1.669100E-13
            1342.    1.730780E-13
            1343.    1.792366E-13
            1344.    1.853860E-13
            1345.    1.915259E-13
            1346.    1.906408E-13
            1347.    1.897565E-13
            1348.    1.888734E-13
            1349.    1.879914E-13
            1350.    1.871113E-13
            1351.    1.862321E-13
            1352.    1.853549E-13
            1353.    1.844779E-13
            1354.    1.836028E-13
            1355.    1.827293E-13
            1356.    1.817456E-13
            1357.    1.807636E-13
            1358.    1.797827E-13
            1359.    1.788041E-13
            1360.    1.778263E-13
            1361.    1.768496E-13
            1362.    1.758750E-13
            1363.    1.749021E-13
            1364.    1.739303E-13
            1365.    1.729597E-13
            1366.    1.760482E-13
            1367.    1.791329E-13
            1368.    1.822135E-13
            1369.    1.852885E-13
            1370.    1.883598E-13
            1371.    1.914269E-13
            1372.    1.944890E-13
            1373.    1.975461E-13
            1374.    2.006000E-13
            1375.    2.036482E-13
            1376.    2.022227E-13
            1377.    2.007997E-13
            1378.    1.993783E-13
            1379.    1.979586E-13
            1380.    1.965417E-13
            1381.    1.951259E-13
            1382.    1.937132E-13
            1383.    1.923019E-13
            1384.    1.908930E-13
            1385.    1.894858E-13
            1386.    1.922705E-13
            1387.    1.950508E-13
            1388.    1.978279E-13
            1389.    2.006002E-13
            1390.    2.033690E-13
            1391.    2.061337E-13
            1392.    2.088941E-13
            1393.    2.116512E-13
            1394.    2.144034E-13
            1395.    2.171525E-13
            1396.    2.180081E-13
            1397.    2.188632E-13
            1398.    2.197163E-13
            1399.    2.205681E-13
            1400.    2.214192E-13
            1401.    2.222689E-13
            1402.    2.231170E-13
            1403.    2.239643E-13
            1404.    2.248103E-13
            1405.    2.256561E-13
            1406.    2.237732E-13
            1407.    2.218928E-13
            1408.    2.200158E-13
            1409.    2.181403E-13
            1410.    2.162685E-13
            1411.    2.143997E-13
            1412.    2.125323E-13
            1413.    2.106680E-13
            1414.    2.088073E-13
            1415.    2.069481E-13
            1416.    2.105172E-13
            1417.    2.140822E-13
            1418.    2.176413E-13
            1419.    2.211954E-13
            1420.    2.247443E-13
            1421.    2.282889E-13
            1422.    2.318281E-13
            1423.    2.353631E-13
            1424.    2.388926E-13
            1425.    2.424164E-13
            1426.    2.396934E-13
            1427.    2.369746E-13
            1428.    2.342588E-13
            1429.    2.315469E-13
            1430.    2.288392E-13
            1431.    2.261346E-13
            1432.    2.234342E-13
            1433.    2.207376E-13
            1434.    2.180455E-13
            1435.    2.153558E-13
            1436.    2.217550E-13
            1437.    2.281454E-13
            1438.    2.345267E-13
            1439.    2.408991E-13
            1440.    2.472629E-13
            1441.    2.536178E-13
            1442.    2.599631E-13
            1443.    2.705858E-13
            1444.    2.811940E-13
            1445.    2.917881E-13
            1446.    3.023668E-13
            1447.    3.129321E-13
            1448.    3.130245E-13
            1449.    3.131180E-13
            1450.    3.132107E-13
            1451.    3.133035E-13
            1452.    3.133963E-13
            1453.    3.134883E-13
            1454.    3.135814E-13
            1455.    3.136737E-13
            1456.    3.090315E-13
            1457.    3.043952E-13
            1458.    2.997660E-13
            1459.    2.951429E-13
            1460.    2.905258E-13
            1461.    2.859159E-13
            1462.    2.813112E-13
            1463.    2.767140E-13
            1464.    2.721214E-13
            1465.    2.675365E-13
            1466.    2.674158E-13
            1467.    2.672953E-13
            1468.    2.671753E-13
            1469.    2.670550E-13
            1470.    2.669352E-13
            1471.    2.668154E-13
            1472.    2.666959E-13
            1473.    2.665766E-13
            1474.    2.664563E-13
            1475.    2.663382E-13
            1476.    2.698954E-13
            1477.    2.734489E-13
            1478.    2.769971E-13
            1479.    2.805410E-13
            1480.    2.840803E-13
            1481.    2.876140E-13
            1482.    2.911436E-13
            1483.    2.946689E-13
            1484.    2.981887E-13
            1485.    3.017034E-13
            1486.    3.053339E-13
            1487.    3.089605E-13
            1488.    3.125813E-13
            1489.    3.161983E-13
            1490.    3.198090E-13
            1491.    3.234154E-13
            1492.    3.270179E-13
            1493.    3.306147E-13
            1494.    3.342059E-13
            1495.    3.377935E-13
            1496.    3.394947E-13
            1497.    3.411930E-13
            1498.    3.428892E-13
            1499.    3.445841E-13
            1500.    3.462757E-13
            1501.    3.479650E-13
            1502.    3.496530E-13
            1503.    3.513374E-13
            1504.    3.530204E-13
            1505.    3.547016E-13
            1506.    3.474929E-13
            1507.    3.402931E-13
            1508.    3.331037E-13
            1509.    3.259239E-13
            1510.    3.187528E-13
            1511.    3.115921E-13
            1512.    3.044396E-13
            1513.    3.093282E-13
            1514.    3.142098E-13
            1515.    3.190854E-13
            1516.    3.239547E-13
            1517.    3.288169E-13
            1518.    3.253662E-13
            1519.    3.219191E-13
            1520.    3.184775E-13
            1521.    3.150400E-13
            1522.    3.116076E-13
            1523.    3.081786E-13
            1524.    3.047549E-13
            1525.    3.013352E-13
            1526.    2.979003E-13
            1527.    2.944687E-13
            1528.    2.910426E-13
            1529.    2.876205E-13
            1530.    2.842023E-13
            1531.    2.807896E-13
            1532.    2.773804E-13
            1533.    2.739767E-13
            1534.    2.705773E-13
            1535.    2.671814E-13
            1536.    2.804854E-13
            1537.    2.937725E-13
            1538.    3.070427E-13
            1539.    3.202943E-13
            1540.    3.335300E-13
            1541.    3.467467E-13
            1542.    3.599478E-13
            1543.    3.731324E-13
            1544.    3.862981E-13
            1545.    3.994482E-13
            1546.    3.939430E-13
            1547.    3.884464E-13
            1548.    3.829556E-13
            1549.    3.774736E-13
            1550.    3.719978E-13
            1551.    3.665286E-13
            1552.    3.610672E-13
            1553.    3.556120E-13
            1554.    3.501632E-13
            1555.    3.447227E-13
            1556.    3.408053E-13
            1557.    3.368938E-13
            1558.    3.329859E-13
            1559.    3.290841E-13
            1560.    3.251870E-13
            1561.    3.212949E-13
            1562.    3.174075E-13
            1563.    3.135263E-13
            1564.    3.096487E-13
            1565.    3.057756E-13
            1566.    3.145453E-13
            1567.    3.233024E-13
            1568.    3.320484E-13
            1569.    3.407842E-13
            1570.    3.495085E-13
            1571.    3.582217E-13
            1572.    3.669227E-13
            1573.    3.756138E-13
            1574.    3.842945E-13
            1575.    3.929630E-13
            1576.    3.962579E-13
            1577.    3.995505E-13
            1578.    4.028358E-13
            1579.    4.061182E-13
            1580.    4.093976E-13
            1581.    4.126719E-13
            1582.    4.159422E-13
            1583.    4.192073E-13
