# wavelength_A flux
5.000000e+02 8.846079e-15
5.010000e+02 1.033947e-14
5.020000e+02 1.207722e-14
5.030000e+02 1.409806e-14
5.040000e+02 1.644661e-14
5.050000e+02 1.931228e-14
5.060000e+02 2.250011e-14
5.070000e+02 2.619787e-14
5.080000e+02 3.048448e-14
5.090000e+02 3.545071e-14
5.100000e+02 4.120081e-14
5.110000e+02 4.785453e-14
5.120000e+02 5.554926e-14
5.130000e+02 6.444259e-14
5.140000e+02 7.471516e-14
5.150000e+02 8.657362e-14
5.160000e+02 1.002558e-13
5.170000e+02 1.160305e-13
5.180000e+02 1.342122e-13
5.190000e+02 1.551514e-13
5.200000e+02 1.792541e-13
5.210000e+02 2.069825e-13
5.220000e+02 2.388567e-13
5.230000e+02 2.755009e-13
5.240000e+02 3.175784e-13
5.250000e+02 3.658784e-13
5.260000e+02 4.212893e-13
5.270000e+02 4.848238e-13
5.280000e+02 5.576334e-13
5.290000e+02 6.409815e-13
5.300000e+02 7.364916e-13
5.310000e+02 8.457163e-13
5.320000e+02 9.706181e-13
5.330000e+02 1.113371e-12
5.340000e+02 1.276442e-12
5.350000e+02 1.462623e-12
5.360000e+02 1.675079e-12
5.370000e+02 1.910531e-12
5.380000e+02 2.193621e-12
5.390000e+02 2.508370e-12
5.400000e+02 2.866793e-12
5.410000e+02 3.274665e-12
5.420000e+02 3.738866e-12
5.430000e+02 4.266622e-12
5.440000e+02 4.866414e-12
5.450000e+02 5.547754e-12
5.460000e+02 6.320986e-12
5.470000e+02 7.199260e-12
5.480000e+02 8.195069e-12
5.490000e+02 9.324073e-12
5.500000e+02 1.060346e-11
5.510000e+02 1.205258e-11
5.520000e+02 1.369316e-11
5.530000e+02 1.554963e-11
5.540000e+02 1.764941e-11
5.550000e+02 2.002328e-11
5.560000e+02 2.270576e-11
5.570000e+02 2.573559e-11
5.580000e+02 2.915615e-11
5.590000e+02 3.301609e-11
5.600000e+02 3.736986e-11
5.610000e+02 4.227842e-11
5.620000e+02 4.780997e-11
5.630000e+02 5.404081e-11
5.640000e+02 6.105621e-11
5.650000e+02 6.895144e-11
5.660000e+02 7.783302e-11
5.670000e+02 8.781971e-11
5.680000e+02 9.904417e-11
5.690000e+02 1.116544e-10
5.700000e+02 1.258152e-10
5.710000e+02 1.417107e-10
5.720000e+02 1.595456e-10
5.730000e+02 1.795480e-10
5.740000e+02 2.019721e-10
5.750000e+02 2.271015e-10
5.760000e+02 2.552420e-10
5.770000e+02 2.867637e-10
5.780000e+02 3.220355e-10
5.790000e+02 3.614955e-10
5.800000e+02 4.056231e-10
5.810000e+02 4.549501e-10
5.820000e+02 5.100668e-10
5.830000e+02 5.716266e-10
5.840000e+02 6.403068e-10
5.850000e+02 7.170560e-10
5.860000e+02 8.026452e-10
5.870000e+02 8.980780e-10
5.880000e+02 1.004458e-09
5.890000e+02 1.122992e-09
5.900000e+02 1.255029e-09
5.910000e+02 1.402039e-09
5.920000e+02 1.565661e-09
5.930000e+02 1.747704e-09
5.940000e+02 1.950162e-09
5.950000e+02 2.175242e-09
5.960000e+02 2.425379e-09
5.970000e+02 2.703255e-09
5.980000e+02 3.011832e-09
5.990000e+02 3.354378e-09
6.000000e+02 3.734490e-09
6.010000e+02 4.156107e-09
6.020000e+02 4.623677e-09
6.030000e+02 5.141928e-09
6.040000e+02 5.716180e-09
6.050000e+02 6.352255e-09
6.060000e+02 7.056554e-09
6.070000e+02 7.836130e-09
6.080000e+02 8.698710e-09
6.090000e+02 9.652801e-09
6.100000e+02 1.070774e-08
6.110000e+02 1.187379e-08
6.120000e+02 1.316219e-08
6.130000e+02 1.458531e-08
6.140000e+02 1.615667e-08
6.150000e+02 1.789115e-08
6.160000e+02 1.980501e-08
6.170000e+02 2.191609e-08
6.180000e+02 2.424394e-08
6.190000e+02 2.680995e-08
6.200000e+02 2.963756e-08
6.210000e+02 3.275239e-08
6.220000e+02 3.618250e-08
6.230000e+02 3.995854e-08
6.240000e+02 4.411406e-08
6.250000e+02 4.868571e-08
6.260000e+02 5.371352e-08
6.270000e+02 5.924124e-08
6.280000e+02 6.531663e-08
6.290000e+02 7.199183e-08
6.300000e+02 7.932371e-08
6.310000e+02 8.736415e-08
6.320000e+02 9.621145e-08
6.330000e+02 1.059085e-07
6.340000e+02 1.165468e-07
6.350000e+02 1.282127e-07
6.360000e+02 1.410017e-07
6.370000e+02 1.550209e-07
6.380000e+02 1.703796e-07
6.390000e+02 1.872023e-07
6.400000e+02 2.056230e-07
6.410000e+02 2.257874e-07
6.420000e+02 2.478541e-07
6.430000e+02 2.719952e-07
6.440000e+02 2.983981e-07
6.450000e+02 3.272659e-07
6.460000e+02 3.588197e-07
6.470000e+02 3.932991e-07
6.480000e+02 4.309647e-07
6.490000e+02 4.720988e-07
6.500000e+02 5.170078e-07
6.510000e+02 5.660244e-07
6.520000e+02 6.195087e-07
6.530000e+02 6.778516e-07
6.540000e+02 7.414761e-07
6.550000e+02 8.108412e-07
6.560000e+02 8.864435e-07
6.570000e+02 9.688159e-07
6.580000e+02 1.058555e-06
6.590000e+02 1.156277e-06
6.600000e+02 1.262668e-06
6.610000e+02 1.378466e-06
6.620000e+02 1.504468e-06
6.630000e+02 1.641535e-06
6.640000e+02 1.790599e-06
6.650000e+02 1.952667e-06
6.660000e+02 2.128827e-06
6.670000e+02 2.320253e-06
6.680000e+02 2.528211e-06
6.690000e+02 2.754071e-06
6.700000e+02 2.999309e-06
6.710000e+02 3.265518e-06
6.720000e+02 3.554417e-06
6.730000e+02 3.867857e-06
6.740000e+02 4.207836e-06
6.750000e+02 4.576508e-06
6.760000e+02 4.976189e-06
6.770000e+02 5.409380e-06
6.780000e+02 5.878770e-06
6.790000e+02 6.387258e-06
6.800000e+02 6.937959e-06
6.810000e+02 7.534230e-06
6.820000e+02 8.179682e-06
6.830000e+02 8.878199e-06
6.840000e+02 9.633956e-06
6.850000e+02 1.045144e-05
6.860000e+02 1.133549e-05
6.870000e+02 1.229127e-05
6.880000e+02 1.332438e-05
6.890000e+02 1.444078e-05
6.900000e+02 1.564691e-05
6.910000e+02 1.694966e-05
6.920000e+02 1.835645e-05
6.930000e+02 1.987523e-05
6.940000e+02 2.151451e-05
6.950000e+02 2.328345e-05
6.960000e+02 2.519185e-05
6.970000e+02 2.725013e-05
6.980000e+02 2.946988e-05
6.990000e+02 3.186286e-05
7.000000e+02 3.444212e-05
7.010000e+02 3.722153e-05
7.020000e+02 4.021593e-05
7.030000e+02 4.344123e-05
7.040000e+02 4.691445e-05
7.050000e+02 5.065379e-05
7.060000e+02 5.467876e-05
7.070000e+02 5.901021e-05
7.080000e+02 6.367044e-05
7.090000e+02 6.868326e-05
7.100000e+02 7.407428e-05
7.110000e+02 7.987064e-05
7.120000e+02 8.610151e-05
7.130000e+02 9.279800e-05
7.140000e+02 9.999336e-05
7.150000e+02 1.077231e-04
7.160000e+02 1.160251e-04
7.170000e+02 1.249397e-04
7.180000e+02 1.345100e-04
7.190000e+02 1.447832e-04
7.200000e+02 1.558070e-04
7.210000e+02 1.676346e-04
7.220000e+02 1.803217e-04
7.230000e+02 1.939280e-04
7.240000e+02 2.085171e-04
7.250000e+02 2.241568e-04
7.260000e+02 2.409193e-04
7.270000e+02 2.588815e-04
7.280000e+02 2.781253e-04
7.290000e+02 2.987381e-04
7.300000e+02 3.208128e-04
7.310000e+02 3.444482e-04
7.320000e+02 3.697497e-04
7.330000e+02 3.968293e-04
7.340000e+02 4.258062e-04
7.350000e+02 4.568072e-04
7.360000e+02 4.899672e-04
7.370000e+02 5.254297e-04
7.380000e+02 5.633470e-04
7.390000e+02 6.038813e-04
7.400000e+02 6.472043e-04
7.410000e+02 6.935002e-04
7.420000e+02 7.429619e-04
7.430000e+02 7.957973e-04
7.440000e+02 8.522246e-04
7.450000e+02 9.124771e-04
7.460000e+02 9.768018e-04
7.470000e+02 1.045461e-03
7.480000e+02 1.118734e-03
7.490000e+02 1.196914e-03
7.500000e+02 1.280316e-03
7.510000e+02 1.369272e-03
7.520000e+02 1.464135e-03
7.530000e+02 1.565277e-03
7.540000e+02 1.673095e-03
7.550000e+02 1.788008e-03
7.560000e+02 1.910462e-03
7.570000e+02 2.040922e-03
7.580000e+02 2.179904e-03
7.590000e+02 2.327917e-03
7.600000e+02 2.485534e-03
7.610000e+02 2.653341e-03
7.620000e+02 2.831968e-03
7.630000e+02 3.022078e-03
7.640000e+02 3.224374e-03
7.650000e+02 3.439599e-03
7.660000e+02 3.668541e-03
7.670000e+02 3.912032e-03
7.680000e+02 4.170944e-03
7.690000e+02 4.446227e-03
7.700000e+02 4.738845e-03
7.710000e+02 5.049844e-03
7.720000e+02 5.380323e-03
7.730000e+02 5.731441e-03
7.740000e+02 6.104426e-03
7.750000e+02 6.500572e-03
7.760000e+02 6.921150e-03
7.770000e+02 7.367895e-03
7.780000e+02 7.842043e-03
7.790000e+02 8.345299e-03
7.800000e+02 8.879364e-03
7.810000e+02 9.446028e-03
7.820000e+02 1.004718e-02
7.830000e+02 1.068483e-02
7.840000e+02 1.136107e-02
7.850000e+02 1.207812e-02
7.860000e+02 1.283832e-02
7.870000e+02 1.364416e-02
7.880000e+02 1.449821e-02
7.890000e+02 1.540323e-02
7.900000e+02 1.636210e-02
7.910000e+02 1.737788e-02
7.920000e+02 1.845376e-02
7.930000e+02 1.959312e-02
7.940000e+02 2.079953e-02
7.950000e+02 2.207674e-02
7.960000e+02 2.342867e-02
7.970000e+02 2.485950e-02
7.980000e+02 2.637359e-02
7.990000e+02 2.797553e-02
8.000000e+02 2.967017e-02
8.010000e+02 3.146260e-02
8.020000e+02 3.335819e-02
8.030000e+02 3.536255e-02
8.040000e+02 3.748162e-02
8.050000e+02 3.972163e-02
8.060000e+02 4.208913e-02
8.070000e+02 4.459099e-02
8.080000e+02 4.723446e-02
8.090000e+02 5.002714e-02
8.100000e+02 5.297702e-02
8.110000e+02 5.609250e-02
8.120000e+02 5.938238e-02
8.130000e+02 6.285594e-02
8.140000e+02 6.652289e-02
8.150000e+02 7.039343e-02
8.160000e+02 7.447833e-02
8.170000e+02 7.878879e-02
8.180000e+02 8.333664e-02
8.190000e+02 8.813427e-02
8.200000e+02 9.319469e-02
8.210000e+02 9.853154e-02
8.220000e+02 1.041591e-01
8.230000e+02 1.100925e-01
8.240000e+02 1.163473e-01
8.250000e+02 1.229401e-01
8.260000e+02 1.298883e-01
8.270000e+02 1.372099e-01
8.280000e+02 1.449239e-01
8.290000e+02 1.530504e-01
8.300000e+02 1.616101e-01
8.310000e+02 1.706249e-01
8.320000e+02 1.801179e-01
8.330000e+02 1.901129e-01
8.340000e+02 2.006351e-01
8.350000e+02 2.117064e-01
8.360000e+02 2.233676e-01
8.370000e+02 2.356348e-01
8.380000e+02 2.485418e-01
8.390000e+02 2.621208e-01
8.400000e+02 2.764047e-01
8.410000e+02 2.914281e-01
8.420000e+02 3.072260e-01
8.430000e+02 3.238404e-01
8.440000e+02 3.413067e-01
8.450000e+02 3.596678e-01
8.460000e+02 3.789672e-01
8.470000e+02 3.992500e-01
8.480000e+02 4.205639e-01
8.490000e+02 4.429582e-01
8.500000e+02 4.664849e-01
8.510000e+02 4.911980e-01
8.520000e+02 5.171541e-01
8.530000e+02 5.444125e-01
8.540000e+02 5.730352e-01
8.550000e+02 6.030859e-01
8.560000e+02 6.346324e-01
8.570000e+02 6.677451e-01
8.580000e+02 7.024975e-01
8.590000e+02 7.389662e-01
8.600000e+02 7.772315e-01
8.610000e+02 8.173770e-01
8.620000e+02 8.594898e-01
8.630000e+02 9.036610e-01
8.640000e+02 9.499860e-01
8.650000e+02 9.985635e-01
8.660000e+02 1.049498e+00
8.670000e+02 1.102896e+00
8.680000e+02 1.158870e+00
8.690000e+02 1.217539e+00
8.700000e+02 1.279024e+00
8.710000e+02 1.343454e+00
8.720000e+02 1.410961e+00
8.730000e+02 1.481685e+00
8.740000e+02 1.555768e+00
8.750000e+02 1.633364e+00
8.760000e+02 1.714628e+00
8.770000e+02 1.799723e+00
8.780000e+02 1.888822e+00
8.790000e+02 1.982101e+00
8.800000e+02 2.079746e+00
8.810000e+02 2.181948e+00
8.820000e+02 2.288910e+00
8.830000e+02 2.400839e+00
8.840000e+02 2.517954e+00
8.850000e+02 2.640481e+00
8.860000e+02 2.768656e+00
8.870000e+02 2.902724e+00
8.880000e+02 3.042940e+00
8.890000e+02 3.189572e+00
8.900000e+02 3.342895e+00
8.910000e+02 3.503197e+00
8.920000e+02 3.669789e+00
8.930000e+02 3.845948e+00
8.940000e+02 4.029033e+00
8.950000e+02 4.220368e+00
8.960000e+02 4.420306e+00
8.970000e+02 4.629208e+00
8.980000e+02 4.847455e+00
8.990000e+02 5.075440e+00
9.000000e+02 5.313572e+00
9.010000e+02 5.562277e+00
9.020000e+02 5.821997e+00
9.030000e+02 6.093191e+00
9.040000e+02 6.376336e+00
9.050000e+02 6.671929e+00
9.060000e+02 6.980485e+00
9.070000e+02 7.302525e+00
9.080000e+02 7.638645e+00
9.090000e+02 7.989382e+00
9.100000e+02 8.355350e+00
9.110000e+02 8.737175e+00
9.120000e+02 9.135530e+00
9.130000e+02 9.535296e+00
9.140000e+02 1.005030e+01
9.150000e+02 6.227447e+01
9.160000e+02 1.123434e+02
9.170000e+02 1.069607e+02
9.180000e+02 1.132345e+02
9.190000e+02 1.354142e+02
9.200000e+02 1.422655e+02
9.210000e+02 1.355846e+01
9.220000e+02 1.522293e+02
9.230000e+02 1.329490e+02
9.240000e+02 1.430076e+02
9.250000e+02 1.626467e+02
9.260000e+02 1.691794e+02
9.270000e+02 1.593196e+02
9.280000e+02 1.908942e+02
9.290000e+02 1.751309e+02
9.300000e+02 2.015156e+02
9.310000e+02 1.761080e+02
9.320000e+02 2.203916e+02
9.330000e+02 2.283119e+02
9.340000e+02 2.310757e+02
9.350000e+02 2.989461e+01
9.360000e+02 2.107641e+02
9.370000e+02 2.943248e+01
9.380000e+02 1.135226e+02
9.390000e+02 2.515704e+02
9.400000e+02 2.922183e+02
9.410000e+02 7.125581e+01
9.420000e+02 3.125310e+02
9.430000e+02 2.969432e+02
9.440000e+02 2.472476e+02
9.450000e+02 3.481156e+02
9.460000e+02 3.573732e+02
9.470000e+02 2.438917e+02
9.480000e+02 3.256385e+02
9.490000e+02 3.935345e+02
9.500000e+02 5.225793e+01
9.510000e+02 4.092010e+02
9.520000e+02 4.397993e+02
9.530000e+02 3.223648e+02
9.540000e+02 2.674706e+02
9.550000e+02 4.700338e+02
9.560000e+02 4.459903e+02
9.570000e+02 1.978750e+02
9.580000e+02 2.278582e+02
9.590000e+02 5.690035e+02
9.600000e+02 7.519238e+01
9.610000e+02 6.011523e+02
9.620000e+02 6.069308e+02
9.630000e+02 6.179421e+02
9.640000e+02 8.260211e+01
9.650000e+02 4.435183e+02
9.660000e+02 6.810068e+02
9.670000e+02 6.200725e+02
9.680000e+02 5.523254e+02
9.690000e+02 7.737977e+02
9.700000e+02 7.953973e+02
9.710000e+02 6.831406e+02
9.720000e+02 6.797838e+02
9.730000e+02 7.619095e+02
9.740000e+02 9.032627e+02
9.750000e+02 9.141549e+02
9.760000e+02 1.003270e+03
9.770000e+02 1.033732e+03
9.780000e+02 1.043688e+03
9.790000e+02 1.114552e+03
9.800000e+02 1.151288e+03
9.810000e+02 1.160438e+03
9.820000e+02 1.098931e+03
9.830000e+02 1.268563e+03
9.840000e+02 3.732953e+02
9.850000e+02 1.292737e+03
9.860000e+02 1.331363e+03
9.870000e+02 1.444777e+03
9.880000e+02 9.456381e+02
9.890000e+02 1.199980e+03
9.900000e+02 2.311155e+02
9.910000e+02 1.265707e+03
9.920000e+02 6.443966e+02
9.930000e+02 1.630519e+03
9.940000e+02 2.654032e+02
9.950000e+02 3.859541e+02
9.960000e+02 1.383580e+03
9.970000e+02 3.362438e+02
9.980000e+02 2.025337e+03
9.990000e+02 1.604497e+03
1.000000e+03 2.169295e+03
1.001000e+03 2.260462e+03
1.002000e+03 2.329687e+03
1.003000e+03 2.063972e+03
1.004000e+03 1.647875e+03
1.005000e+03 2.246755e+03
1.006000e+03 2.636798e+03
1.007000e+03 2.722376e+03
1.008000e+03 2.793550e+03
1.009000e+03 2.600836e+03
1.010000e+03 2.973789e+03
1.011000e+03 3.075344e+03
1.012000e+03 3.159639e+03
1.013000e+03 3.251964e+03
1.014000e+03 1.257825e+03
1.015000e+03 2.016702e+03
1.016000e+03 3.199482e+03
1.017000e+03 1.388889e+03
1.018000e+03 3.398116e+03
1.019000e+03 2.296141e+03
1.020000e+03 4.007822e+03
1.021000e+03 1.571263e+03
1.022000e+03 3.125396e+03
1.023000e+03 2.634335e+03
1.024000e+03 3.997426e+03
1.025000e+03 1.425643e+03
1.026000e+03 1.170004e+03
1.027000e+03 3.961306e+03
1.028000e+03 9.286604e+02
1.029000e+03 2.088857e+03
1.030000e+03 5.180794e+03
1.031000e+03 5.261921e+03
1.032000e+03 5.665059e+03
1.033000e+03 1.405561e+03
1.034000e+03 5.960870e+03
1.035000e+03 1.148214e+03
1.036000e+03 2.738458e+03
1.037000e+03 6.582126e+03
1.038000e+03 6.899549e+03
1.039000e+03 7.027334e+03
1.040000e+03 7.297463e+03
1.041000e+03 7.461128e+03
1.042000e+03 7.731979e+03
1.043000e+03 7.337240e+03
1.044000e+03 8.231444e+03
1.045000e+03 8.422472e+03
1.046000e+03 8.705638e+03
1.047000e+03 8.718075e+03
1.048000e+03 6.758539e+03
1.049000e+03 9.173973e+03
1.050000e+03 9.438269e+03
1.051000e+03 9.414932e+03
1.052000e+03 1.034158e+04
1.053000e+03 1.062718e+04
1.054000e+03 4.394262e+03
1.055000e+03 1.127764e+04
1.056000e+03 1.161779e+04
1.057000e+03 1.175621e+04
1.058000e+03 1.170681e+04
1.059000e+03 1.065426e+04
1.060000e+03 9.628578e+03
1.061000e+03 1.321075e+04
1.062000e+03 1.251500e+04
1.063000e+03 4.138013e+03
1.064000e+03 2.963389e+03
1.065000e+03 6.587306e+03
1.066000e+03 1.306441e+04
1.067000e+03 1.245000e+04
1.068000e+03 1.627882e+04
1.069000e+03 9.977787e+03
1.070000e+03 1.689723e+04
1.071000e+03 1.768351e+04
1.072000e+03 1.817102e+04
1.073000e+03 9.424570e+03
1.074000e+03 1.865888e+04
1.075000e+03 1.885220e+04
1.076000e+03 2.027003e+04
1.077000e+03 1.300139e+04
1.078000e+03 1.978513e+04
1.079000e+03 2.132232e+04
1.080000e+03 2.214350e+04
1.081000e+03 2.305637e+04
1.082000e+03 2.360466e+04
1.083000e+03 2.409393e+04
1.084000e+03 2.514061e+04
1.085000e+03 1.855482e+04
1.086000e+03 2.651059e+04
1.087000e+03 2.249326e+04
1.088000e+03 2.782086e+04
1.089000e+03 2.868200e+04
1.090000e+03 2.746337e+04
1.091000e+03 2.818129e+04
1.092000e+03 3.099025e+04
1.093000e+03 3.177683e+04
1.094000e+03 3.240555e+04
1.095000e+03 3.349706e+04
1.096000e+03 3.154695e+04
1.097000e+03 3.479681e+04
1.098000e+03 3.611978e+04
1.099000e+03 3.628018e+04
1.100000e+03 2.678491e+04
1.101000e+03 2.945917e+04
1.102000e+03 7.792320e+04
1.103000e+03 3.024892e+05
1.104000e+03 1.042705e+05
1.105000e+03 4.003806e+04
1.106000e+03 4.460379e+05
1.107000e+03 5.547519e+04
1.108000e+03 5.491572e+05
1.109000e+03 1.924419e+05
1.110000e+03 2.098586e+05
1.111000e+03 1.029242e+05
1.112000e+03 5.367837e+05
1.113000e+03 6.215498e+05
1.114000e+03 3.238700e+04
1.115000e+03 3.136265e+05
1.116000e+03 2.625377e+05
1.117000e+03 3.054900e+04
1.118000e+03 2.575748e+05
1.119000e+03 6.500888e+05
1.120000e+03 2.761511e+05
1.121000e+03 6.766117e+05
1.122000e+03 1.677019e+04
1.123000e+03 1.361743e+05
1.124000e+03 7.564734e+05
1.125000e+03 5.248216e+05
1.126000e+03 8.032620e+05
1.127000e+03 7.823276e+05
1.128000e+03 3.468109e+05
1.129000e+03 7.697961e+05
1.130000e+03 8.217259e+05
1.131000e+03 8.653924e+05
1.132000e+03 3.624931e+04
1.133000e+03 4.478602e+05
1.134000e+03 8.261558e+05
1.135000e+03 3.006994e+04
1.136000e+03 6.913695e+05
1.137000e+03 9.642296e+05
1.138000e+03 8.865012e+05
1.139000e+03 9.921241e+05
1.140000e+03 2.894525e+04
1.141000e+03 1.038307e+06
1.142000e+03 1.065108e+06
1.143000e+03 1.038137e+06
1.144000e+03 1.103793e+06
1.145000e+03 2.254874e+05
1.146000e+03 1.150621e+06
1.147000e+03 1.147742e+06
1.148000e+03 5.689128e+05
1.149000e+03 1.189399e+06
1.150000e+03 1.158506e+06
1.151000e+03 1.247877e+06
1.152000e+03 1.270492e+06
1.153000e+03 6.125568e+05
1.154000e+03 1.157849e+06
1.155000e+03 1.301438e+06
1.156000e+03 7.477467e+05
1.157000e+03 1.378172e+06
1.158000e+03 5.362814e+04
1.159000e+03 1.312762e+06
1.160000e+03 1.326157e+06
1.161000e+03 1.488384e+06
1.162000e+03 4.455185e+05
1.163000e+03 1.259270e+06
1.164000e+03 5.597138e+04
1.165000e+03 1.592156e+06
1.166000e+03 1.593573e+06
1.167000e+03 1.613466e+06
1.168000e+03 1.709117e+06
1.169000e+03 1.704509e+06
1.170000e+03 1.728937e+06
1.171000e+03 1.793580e+06
1.172000e+03 1.673301e+06
1.173000e+03 1.888942e+06
1.174000e+03 7.466847e+05
1.175000e+03 7.339625e+04
1.176000e+03 7.405950e+04
1.177000e+03 2.047737e+06
1.178000e+03 2.066867e+06
1.179000e+03 2.117236e+06
1.180000e+03 1.714817e+06
1.181000e+03 2.200159e+06
1.182000e+03 2.240085e+06
1.183000e+03 2.228701e+06
1.184000e+03 2.242082e+06
1.185000e+03 2.331623e+06
1.186000e+03 1.676558e+06
1.187000e+03 2.416678e+06
1.188000e+03 2.240356e+06
1.189000e+03 1.041832e+05
1.190000e+03 8.592280e+05
1.191000e+03 2.514652e+06
1.192000e+03 2.579811e+06
1.193000e+03 1.114594e+05
1.194000e+03 1.186950e+05
1.195000e+03 2.285330e+06
1.196000e+03 2.666576e+06
1.197000e+03 4.313026e+06
1.198000e+03 3.211568e+06
1.199000e+03 4.213756e+06
1.200000e+03 3.198716e+06
1.201000e+03 3.975134e+06
1.202000e+03 3.696105e+06
1.203000e+03 5.088787e+06
1.204000e+03 3.457216e+06
1.205000e+03 4.253180e+06
1.206000e+03 4.090314e+06
1.207000e+03 4.297950e+05
1.208000e+03 2.875346e+06
1.209000e+03 2.124761e+06
1.210000e+03 1.740604e+05
1.211000e+03 1.110601e+06
1.212000e+03 6.824221e+05
1.213000e+03 4.052319e+05
1.214000e+03 2.495980e+05
1.215000e+03 1.985672e+05
1.216000e+03 1.993443e+05
1.217000e+03 2.363810e+05
1.218000e+03 3.770333e+05
1.219000e+03 6.698998e+05
1.220000e+03 1.100425e+06
1.221000e+03 1.805196e+06
1.222000e+03 2.612018e+06
1.223000e+03 3.532312e+06
1.224000e+03 4.504210e+06
1.225000e+03 3.797424e+06
1.226000e+03 6.692918e+06
1.227000e+03 7.623273e+06
1.228000e+03 7.387207e+06
1.229000e+03 9.485744e+06
1.230000e+03 1.001284e+07
1.231000e+03 8.641645e+06
1.232000e+03 1.245512e+07
1.233000e+03 1.335155e+07
1.234000e+03 8.215176e+06
1.235000e+03 1.480792e+07
1.236000e+03 1.207548e+07
1.237000e+03 1.628415e+07
1.238000e+03 1.673378e+07
1.239000e+03 1.709683e+07
1.240000e+03 1.291290e+07
1.241000e+03 1.969081e+07
1.242000e+03 1.747712e+07
1.243000e+03 2.129688e+07
1.244000e+03 1.469470e+07
1.245000e+03 1.828088e+07
1.246000e+03 2.506094e+07
1.247000e+03 2.570586e+07
1.248000e+03 1.452923e+07
1.249000e+03 1.912356e+07
1.250000e+03 2.533947e+07
1.251000e+03 2.933686e+07
1.252000e+03 2.906354e+07
1.253000e+03 3.065939e+07
1.254000e+03 3.064641e+07
1.255000e+03 3.096164e+07
1.256000e+03 3.131845e+07
1.257000e+03 3.130323e+07
1.258000e+03 3.076321e+07
1.259000e+03 3.331331e+07
1.260000e+03 3.294821e+07
1.261000e+03 5.592960e+05
1.262000e+03 1.266339e+07
1.263000e+03 3.607623e+07
1.264000e+03 3.440586e+07
1.265000e+03 6.045500e+05
1.266000e+03 3.869705e+07
1.267000e+03 3.768939e+07
