# wavelength_A flux
5.000000e+02 2.472367e-40
5.010000e+02 3.250130e-40
5.020000e+02 4.267837e-40
5.030000e+02 5.598033e-40
5.040000e+02 7.334760e-40
5.050000e+02 9.601333e-40
5.060000e+02 1.255268e-39
5.070000e+02 1.639351e-39
5.080000e+02 2.138676e-39
5.090000e+02 2.787114e-39
5.100000e+02 3.627873e-39
5.110000e+02 4.718451e-39
5.120000e+02 6.129691e-39
5.130000e+02 7.954790e-39
5.140000e+02 1.031262e-38
5.150000e+02 1.335561e-38
5.160000e+02 1.727886e-38
5.170000e+02 2.233190e-38
5.180000e+02 2.883354e-38
5.190000e+02 3.719073e-38
5.200000e+02 4.792237e-38
5.210000e+02 6.168951e-38
5.220000e+02 7.933334e-38
5.230000e+02 1.019238e-37
5.240000e+02 1.308192e-37
5.250000e+02 1.677439e-37
5.260000e+02 2.148839e-37
5.270000e+02 2.750077e-37
5.280000e+02 3.516189e-37
5.290000e+02 4.491469e-37
5.300000e+02 5.731861e-37
5.310000e+02 7.307964e-37
5.320000e+02 9.308782e-37
5.330000e+02 1.184643e-36
5.340000e+02 1.506198e-36
5.350000e+02 1.913284e-36
5.360000e+02 2.428184e-36
5.370000e+02 3.078786e-36
5.380000e+02 3.900400e-36
5.390000e+02 4.936725e-36
5.400000e+02 6.242840e-36
5.410000e+02 7.887534e-36
5.420000e+02 9.956764e-36
5.430000e+02 1.255784e-35
5.440000e+02 1.582465e-35
5.450000e+02 1.992404e-35
5.460000e+02 2.506379e-35
5.470000e+02 3.150247e-35
5.480000e+02 3.956150e-35
5.490000e+02 4.964017e-35
5.500000e+02 6.223408e-35
5.510000e+02 7.795782e-35
5.520000e+02 9.757298e-35
5.530000e+02 1.220225e-34
5.540000e+02 1.524728e-34
5.550000e+02 1.903659e-34
5.560000e+02 2.374829e-34
5.570000e+02 2.960217e-34
5.580000e+02 3.686930e-34
5.590000e+02 4.588366e-34
5.600000e+02 5.705649e-34
5.610000e+02 7.089372e-34
5.620000e+02 8.801730e-34
5.630000e+02 1.091912e-33
5.640000e+02 1.353532e-33
5.650000e+02 1.676533e-33
5.660000e+02 2.075013e-33
5.670000e+02 2.566232e-33
5.680000e+02 3.171315e-33
5.690000e+02 3.916093e-33
5.700000e+02 4.832129e-33
5.710000e+02 5.957960e-33
5.720000e+02 7.340607e-33
5.730000e+02 9.037397e-33
5.740000e+02 1.111818e-32
5.750000e+02 1.366797e-32
5.760000e+02 1.679023e-32
5.770000e+02 2.061072e-32
5.780000e+02 2.528221e-32
5.790000e+02 3.099016e-32
5.800000e+02 3.795958e-32
5.810000e+02 4.646321e-32
5.820000e+02 5.683148e-32
5.830000e+02 6.946439e-32
5.840000e+02 8.484583e-32
5.850000e+02 1.035608e-31
5.860000e+02 1.263161e-31
5.870000e+02 1.539649e-31
5.880000e+02 1.875366e-31
5.890000e+02 2.282723e-31
5.900000e+02 2.776674e-31
5.910000e+02 3.375221e-31
5.920000e+02 4.100030e-31
5.930000e+02 4.977150e-31
5.940000e+02 6.037885e-31
5.950000e+02 7.319825e-31
5.960000e+02 8.868085e-31
5.970000e+02 1.073677e-30
5.980000e+02 1.299074e-30
5.990000e+02 1.570766e-30
6.000000e+02 1.898053e-30
6.010000e+02 2.292057e-30
6.020000e+02 2.766078e-30
6.030000e+02 3.336005e-30
6.040000e+02 4.020811e-30
6.050000e+02 4.843134e-30
6.060000e+02 5.829976e-30
6.070000e+02 7.013515e-30
6.080000e+02 8.432082e-30
6.090000e+02 1.013130e-29
6.100000e+02 1.216546e-29
6.110000e+02 1.459909e-29
6.120000e+02 1.750888e-29
6.130000e+02 2.098591e-29
6.140000e+02 2.513826e-29
6.150000e+02 3.009413e-29
6.160000e+02 3.600550e-29
6.170000e+02 4.305245e-29
6.180000e+02 5.144817e-29
6.190000e+02 6.144496e-29
6.200000e+02 7.334124e-29
6.210000e+02 8.748971e-29
6.220000e+02 1.043071e-28
6.230000e+02 1.242853e-28
6.240000e+02 1.480050e-28
6.250000e+02 1.761508e-28
6.260000e+02 2.095298e-28
6.270000e+02 2.490928e-28
6.280000e+02 2.959591e-28
6.290000e+02 3.514460e-28
6.300000e+02 4.171028e-28
6.310000e+02 4.947507e-28
6.320000e+02 5.865293e-28
6.330000e+02 6.949507e-28
6.340000e+02 8.229633e-28
6.350000e+02 9.740256e-28
6.360000e+02 1.152192e-27
6.370000e+02 1.362212e-27
6.380000e+02 1.609649e-27
6.390000e+02 1.901016e-27
6.400000e+02 2.243928e-27
6.410000e+02 2.647295e-27
6.420000e+02 3.121524e-27
6.430000e+02 3.678774e-27
6.440000e+02 4.333241e-27
6.450000e+02 5.101488e-27
6.460000e+02 6.002832e-27
6.470000e+02 7.059791e-27
6.480000e+02 8.298603e-27
6.490000e+02 9.749820e-27
6.500000e+02 1.144900e-26
6.510000e+02 1.343753e-26
6.520000e+02 1.576349e-26
6.530000e+02 1.848282e-26
6.540000e+02 2.166045e-26
6.550000e+02 2.537180e-26
6.560000e+02 2.970438e-26
6.570000e+02 3.475973e-26
6.580000e+02 4.065555e-26
6.590000e+02 4.752824e-26
6.600000e+02 5.553580e-26
6.610000e+02 6.486117e-26
6.620000e+02 7.571605e-26
6.630000e+02 8.834528e-26
6.640000e+02 1.030320e-25
6.650000e+02 1.201033e-25
6.660000e+02 1.399372e-25
6.670000e+02 1.629699e-25
6.680000e+02 1.897049e-25
6.690000e+02 2.207230e-25
6.700000e+02 2.566939e-25
6.710000e+02 2.983892e-25
6.720000e+02 3.466981e-25
6.730000e+02 4.026440e-25
6.740000e+02 4.674052e-25
6.750000e+02 5.423368e-25
6.760000e+02 6.289974e-25
6.770000e+02 7.291781e-25
6.780000e+02 8.449371e-25
6.790000e+02 9.786377e-25
6.800000e+02 1.132993e-24
6.810000e+02 1.311115e-24
6.820000e+02 1.516575e-24
6.830000e+02 1.753465e-24
6.840000e+02 2.026476e-24
6.850000e+02 2.340980e-24
6.860000e+02 2.703128e-24
6.870000e+02 3.119960e-24
6.880000e+02 3.599531e-24
6.890000e+02 4.151048e-24
6.900000e+02 4.785042e-24
6.910000e+02 5.513539e-24
6.920000e+02 6.350278e-24
6.930000e+02 7.310944e-24
6.940000e+02 8.413434e-24
6.950000e+02 9.678167e-24
6.960000e+02 1.112842e-23
6.970000e+02 1.279074e-23
6.980000e+02 1.469536e-23
6.990000e+02 1.687670e-23
7.000000e+02 1.937398e-23
7.010000e+02 2.223180e-23
7.020000e+02 2.550092e-23
7.030000e+02 2.923904e-23
7.040000e+02 3.351176e-23
7.050000e+02 3.839361e-23
7.060000e+02 4.396924e-23
7.070000e+02 5.033477e-23
7.080000e+02 5.759927e-23
7.090000e+02 6.588648e-23
7.100000e+02 7.533677e-23
7.110000e+02 8.610920e-23
7.120000e+02 9.838407e-23
7.130000e+02 1.123656e-22
7.140000e+02 1.282851e-22
7.150000e+02 1.464042e-22
7.160000e+02 1.670193e-22
7.170000e+02 1.904653e-22
7.180000e+02 2.171210e-22
7.190000e+02 2.474147e-22
7.200000e+02 2.818301e-22
7.210000e+02 3.209136e-22
7.220000e+02 3.652821e-22
7.230000e+02 4.156321e-22
7.240000e+02 4.727490e-22
7.250000e+02 5.375189e-22
7.260000e+02 6.109408e-22
7.270000e+02 6.941406e-22
7.280000e+02 7.883868e-22
7.290000e+02 8.951081e-22
7.300000e+02 1.015913e-21
7.310000e+02 1.152611e-21
7.320000e+02 1.307241e-21
7.330000e+02 1.482091e-21
7.340000e+02 1.679739e-21
7.350000e+02 1.903078e-21
7.360000e+02 2.155361e-21
7.370000e+02 2.440242e-21
7.380000e+02 2.761821e-21
7.390000e+02 3.124703e-21
7.400000e+02 3.534053e-21
7.410000e+02 3.995665e-21
7.420000e+02 4.516037e-21
7.430000e+02 5.102451e-21
7.440000e+02 5.763068e-21
7.450000e+02 6.507030e-21
7.460000e+02 7.344573e-21
7.470000e+02 8.287158e-21
7.480000e+02 9.347610e-21
7.490000e+02 1.054028e-20
7.500000e+02 1.188121e-20
7.510000e+02 1.338834e-20
7.520000e+02 1.508173e-20
7.530000e+02 1.698378e-20
7.540000e+02 1.911951e-20
7.550000e+02 2.151688e-20
7.560000e+02 2.420707e-20
7.570000e+02 2.722489e-20
7.580000e+02 3.060917e-20
7.590000e+02 3.440323e-20
7.600000e+02 3.865535e-20
7.610000e+02 4.341934e-20
7.620000e+02 4.875516e-20
7.630000e+02 5.472960e-20
7.640000e+02 6.141703e-20
7.650000e+02 6.890024e-20
7.660000e+02 7.727137e-20
7.670000e+02 8.663291e-20
7.680000e+02 9.709887e-20
7.690000e+02 1.087960e-19
7.700000e+02 1.218652e-19
7.710000e+02 1.364631e-19
7.720000e+02 1.527635e-19
7.730000e+02 1.709596e-19
7.740000e+02 1.912659e-19
7.750000e+02 2.139204e-19
7.760000e+02 2.391873e-19
7.770000e+02 2.673594e-19
7.780000e+02 2.987616e-19
7.790000e+02 3.337543e-19
7.800000e+02 3.727366e-19
7.810000e+02 4.161508e-19
7.820000e+02 4.644869e-19
7.830000e+02 5.182876e-19
7.840000e+02 5.781535e-19
7.850000e+02 6.447496e-19
7.860000e+02 7.188114e-19
7.870000e+02 8.011528e-19
7.880000e+02 8.926736e-19
7.890000e+02 9.943687e-19
7.900000e+02 1.107338e-18
7.910000e+02 1.232796e-18
7.920000e+02 1.372085e-18
7.930000e+02 1.526687e-18
7.940000e+02 1.698240e-18
7.950000e+02 1.888548e-18
7.960000e+02 2.099606e-18
7.970000e+02 2.333613e-18
7.980000e+02 2.592992e-18
7.990000e+02 2.880419e-18
8.000000e+02 3.198841e-18
8.010000e+02 3.551506e-18
8.020000e+02 3.941992e-18
8.030000e+02 4.374241e-18
8.040000e+02 4.852594e-18
8.050000e+02 5.381829e-18
8.060000e+02 5.967204e-18
8.070000e+02 6.614506e-18
8.080000e+02 7.330100e-18
8.090000e+02 8.120986e-18
8.100000e+02 8.994861e-18
8.110000e+02 9.960185e-18
8.120000e+02 1.102625e-17
8.130000e+02 1.220328e-17
8.140000e+02 1.350249e-17
8.150000e+02 1.493619e-17
8.160000e+02 1.651792e-17
8.170000e+02 1.826251e-17
8.180000e+02 2.018625e-17
8.190000e+02 2.230701e-17
8.200000e+02 2.464439e-17
8.210000e+02 2.721988e-17
8.220000e+02 3.005703e-17
8.230000e+02 3.318165e-17
8.240000e+02 3.662204e-17
8.250000e+02 4.040917e-17
8.260000e+02 4.457699e-17
8.270000e+02 4.916265e-17
8.280000e+02 5.420682e-17
8.290000e+02 5.975401e-17
8.300000e+02 6.585293e-17
8.310000e+02 7.255684e-17
8.320000e+02 7.992402e-17
8.330000e+02 8.801816e-17
8.340000e+02 9.690889e-17
8.350000e+02 1.066723e-16
8.360000e+02 1.173916e-16
8.370000e+02 1.291576e-16
8.380000e+02 1.420694e-16
8.390000e+02 1.562355e-16
8.400000e+02 1.717740e-16
8.410000e+02 1.888139e-16
8.420000e+02 2.074961e-16
8.430000e+02 2.279742e-16
8.440000e+02 2.504157e-16
8.450000e+02 2.750032e-16
8.460000e+02 3.019360e-16
8.470000e+02 3.314310e-16
8.480000e+02 3.637248e-16
8.490000e+02 3.990749e-16
8.500000e+02 4.377622e-16
8.510000e+02 4.800922e-16
8.520000e+02 5.263976e-16
8.530000e+02 5.770407e-16
8.540000e+02 6.324156e-16
8.550000e+02 6.929511e-16
8.560000e+02 7.591138e-16
8.570000e+02 8.314112e-16
8.580000e+02 9.103947e-16
8.590000e+02 9.966644e-16
8.600000e+02 1.090872e-15
8.610000e+02 1.193726e-15
8.620000e+02 1.305995e-15
8.630000e+02 1.428516e-15
8.640000e+02 1.562197e-15
8.650000e+02 1.708023e-15
8.660000e+02 1.867063e-15
8.670000e+02 2.040480e-15
8.680000e+02 2.229533e-15
8.690000e+02 2.435590e-15
8.700000e+02 2.660132e-15
8.710000e+02 2.904768e-15
8.720000e+02 3.171240e-15
8.730000e+02 3.461439e-15
8.740000e+02 3.777412e-15
8.750000e+02 4.121378e-15
8.760000e+02 4.495742e-15
8.770000e+02 4.903107e-15
8.780000e+02 5.346292e-15
8.790000e+02 5.828350e-15
8.800000e+02 6.352587e-15
8.810000e+02 6.922578e-15
8.820000e+02 7.542194e-15
8.830000e+02 8.215622e-15
8.840000e+02 8.947390e-15
8.850000e+02 9.742396e-15
8.860000e+02 1.060594e-14
8.870000e+02 1.154373e-14
8.880000e+02 1.256197e-14
8.890000e+02 1.366734e-14
8.900000e+02 1.486707e-14
8.910000e+02 1.616895e-14
8.920000e+02 1.758141e-14
8.930000e+02 1.911356e-14
8.940000e+02 2.077521e-14
8.950000e+02 2.257698e-14
8.960000e+02 2.453029e-14
8.970000e+02 2.664751e-14
8.980000e+02 2.894195e-14
8.990000e+02 3.142798e-14
9.000000e+02 3.412109e-14
9.010000e+02 3.703798e-14
9.020000e+02 4.019668e-14
9.030000e+02 4.361658e-14
9.040000e+02 4.731860e-14
9.050000e+02 5.132529e-14
9.060000e+02 5.566091e-14
9.070000e+02 6.035162e-14
9.080000e+02 6.542556e-14
9.090000e+02 7.091307e-14
9.100000e+02 7.684677e-14
9.110000e+02 8.326177e-14
9.120000e+02 9.019589e-14
9.130000e+02 9.768978e-14
9.140000e+02 1.095131e-13
9.150000e+02 2.725081e-11
9.160000e+02 2.031777e-10
9.170000e+02 8.254991e-12
9.180000e+02 3.585937e-11
9.190000e+02 6.156028e-10
9.200000e+02 1.878778e-09
9.210000e+02 1.838001e-13
9.220000e+02 1.772399e-09
9.230000e+02 6.648094e-12
9.240000e+02 1.181655e-11
9.250000e+02 3.081406e-10
9.260000e+02 5.607539e-11
9.270000e+02 1.367311e-11
9.280000e+02 1.394064e-08
9.290000e+02 1.323833e-08
9.300000e+02 2.532529e-09
9.310000e+02 1.610884e-11
9.320000e+02 1.040303e-08
9.330000e+02 3.385997e-09
9.340000e+02 6.326868e-10
9.350000e+02 1.583097e-11
9.360000e+02 6.541217e-11
9.370000e+02 4.834577e-12
9.380000e+02 1.283670e-11
9.390000e+02 2.783377e-10
9.400000e+02 2.069327e-08
9.410000e+02 2.113551e-09
9.420000e+02 5.388951e-08
9.430000e+02 5.077680e-10
9.440000e+02 6.212868e-08
9.450000e+02 5.984465e-08
9.460000e+02 1.158880e-08
9.470000e+02 4.160006e-12
9.480000e+02 1.628499e-08
9.490000e+02 1.337030e-09
9.500000e+02 2.158989e-11
9.510000e+02 5.417799e-09
9.520000e+02 2.005912e-08
9.530000e+02 8.840939e-11
9.540000e+02 4.667627e-12
9.550000e+02 1.134126e-09
9.560000e+02 9.398250e-08
9.570000e+02 4.241052e-10
9.580000e+02 3.177902e-12
9.590000e+02 5.154682e-08
9.600000e+02 5.213252e-11
9.610000e+02 2.413104e-08
9.620000e+02 7.053937e-09
9.630000e+02 4.202221e-10
9.640000e+02 1.262985e-10
9.650000e+02 1.795541e-11
9.660000e+02 1.195637e-09
9.670000e+02 1.375753e-10
9.680000e+02 9.436718e-11
9.690000e+02 7.408637e-09
9.700000e+02 1.789052e-08
9.710000e+02 2.576842e-10
9.720000e+02 5.454814e-11
9.730000e+02 2.873831e-10
9.740000e+02 8.238479e-09
9.750000e+02 3.058861e-09
9.760000e+02 1.356325e-07
9.770000e+02 9.250068e-08
9.780000e+02 4.308807e-08
9.790000e+02 4.539327e-07
9.800000e+02 4.497244e-07
9.810000e+02 1.977156e-08
9.820000e+02 2.500329e-09
9.830000e+02 5.131662e-07
9.840000e+02 9.645662e-09
9.850000e+02 6.690848e-09
9.860000e+02 1.199368e-08
9.870000e+02 5.228251e-07
9.880000e+02 7.889867e-11
9.890000e+02 1.613003e-07
9.900000e+02 4.630864e-07
9.910000e+02 3.240585e-09
9.920000e+02 3.309139e-11
9.930000e+02 1.028466e-06
9.940000e+02 5.440981e-11
9.950000e+02 2.954567e-08
9.960000e+02 4.660876e-10
9.970000e+02 4.128321e-08
9.980000e+02 5.992222e-07
9.990000e+02 4.752993e-09
1.000000e+03 1.921799e-06
1.001000e+03 1.585393e-06
1.002000e+03 1.652420e-06
1.003000e+03 4.424180e-09
1.004000e+03 1.284661e-10
1.005000e+03 2.639945e-08
1.006000e+03 1.587417e-06
1.007000e+03 2.180151e-06
1.008000e+03 1.123035e-06
1.009000e+03 6.630032e-09
1.010000e+03 1.002961e-06
1.011000e+03 9.646812e-07
1.012000e+03 1.533148e-06
1.013000e+03 1.552467e-06
1.014000e+03 1.416538e-10
1.015000e+03 3.176410e-10
1.016000e+03 3.845548e-08
1.017000e+03 1.627996e-10
1.018000e+03 6.482537e-09
1.019000e+03 2.810339e-10
1.020000e+03 1.382999e-06
1.021000e+03 2.124909e-08
1.022000e+03 2.966948e-08
1.023000e+03 9.599148e-10
1.024000e+03 8.529516e-08
1.025000e+03 2.692144e-10
1.026000e+03 3.954653e-10
1.027000e+03 3.243212e-08
1.028000e+03 2.268820e-09
1.029000e+03 3.493028e-10
1.030000e+03 1.225606e-07
1.031000e+03 5.753632e-07
1.032000e+03 5.305361e-06
1.033000e+03 2.489173e-08
1.034000e+03 6.251176e-07
1.035000e+03 1.574790e-09
1.036000e+03 5.722995e-10
1.037000e+03 8.118079e-06
1.038000e+03 3.416817e-05
1.039000e+03 1.086331e-05
1.040000e+03 5.473221e-06
1.041000e+03 3.502220e-05
1.042000e+03 3.326555e-05
1.043000e+03 2.941801e-05
1.044000e+03 8.180915e-05
1.045000e+03 1.502618e-09
1.046000e+03 6.308936e-06
1.047000e+03 3.132802e-06
1.048000e+03 1.772696e-08
1.049000e+03 2.219988e-06
1.050000e+03 2.846491e-07
1.051000e+03 1.338958e-07
1.052000e+03 5.578194e-05
1.053000e+03 7.472212e-05
1.054000e+03 1.606168e-09
1.055000e+03 8.008013e-05
1.056000e+03 9.835003e-05
1.057000e+03 1.149329e-05
1.058000e+03 1.148484e-07
1.059000e+03 1.196895e-07
1.060000e+03 2.695015e-08
1.061000e+03 2.988098e-05
1.062000e+03 5.762922e-08
1.063000e+03 5.938654e-06
1.064000e+03 4.161848e-09
1.065000e+03 3.034074e-09
1.066000e+03 4.121059e-05
1.067000e+03 1.325230e-07
1.068000e+03 2.252437e-04
1.069000e+03 2.271756e-08
1.070000e+03 1.967448e-06
1.071000e+03 7.847667e-05
1.072000e+03 3.066848e-04
1.073000e+03 5.384209e-09
1.074000e+03 1.397905e-05
1.075000e+03 6.707938e-06
1.076000e+03 3.189584e-04
1.077000e+03 6.854498e-08
1.078000e+03 1.890003e-07
1.079000e+03 1.311372e-06
1.080000e+03 1.171950e-05
1.081000e+03 1.259658e-04
1.082000e+03 5.490344e-05
1.083000e+03 2.234156e-05
1.084000e+03 6.538799e-04
1.085000e+03 2.781744e-06
1.086000e+03 4.907224e-04
1.087000e+03 3.817258e-07
1.088000e+03 7.240108e-04
1.089000e+03 7.902128e-04
1.090000e+03 2.048461e-06
1.091000e+03 4.132744e-06
1.092000e+03 7.653736e-04
1.093000e+03 9.475797e-04
1.094000e+03 4.485784e-05
1.095000e+03 1.102382e-03
1.096000e+03 2.078206e-05
1.097000e+03 5.609648e-04
1.098000e+03 1.038951e-03
1.099000e+03 9.056064e-06
1.100000e+03 5.995889e-08
1.101000e+03 2.285794e-07
1.102000e+03 7.117402e-06
1.103000e+03 1.488857e-03
1.104000e+03 1.432708e-03
1.105000e+03 1.595283e-03
1.106000e+03 5.696786e-05
1.107000e+03 1.699664e-07
1.108000e+03 6.790772e-04
1.109000e+03 3.528781e-06
1.110000e+03 1.711949e-03
1.111000e+03 1.478062e-03
1.112000e+03 2.652363e-04
1.113000e+03 1.144427e-03
1.114000e+03 1.136325e-04
1.115000e+03 3.340756e-06
1.116000e+03 6.758996e-07
1.117000e+03 2.121011e-03
1.118000e+03 6.599264e-06
1.119000e+03 2.278187e-04
1.120000e+03 1.545646e-06
1.121000e+03 1.576020e-03
1.122000e+03 4.118757e-03
1.123000e+03 3.724909e-03
1.124000e+03 4.926870e-03
1.125000e+03 2.353714e-03
1.126000e+03 5.852693e-03
1.127000e+03 2.181742e-03
1.128000e+03 2.863124e-03
1.129000e+03 9.184899e-04
1.130000e+03 3.404660e-03
1.131000e+03 2.514845e-03
1.132000e+03 2.900808e-06
1.133000e+03 6.893696e-05
1.134000e+03 1.330078e-03
1.135000e+03 2.716053e-03
1.136000e+03 1.365161e-04
1.137000e+03 2.142612e-03
1.138000e+03 9.138294e-04
1.139000e+03 2.638594e-03
1.140000e+03 2.333482e-03
1.141000e+03 2.601780e-03
1.142000e+03 2.556865e-03
1.143000e+03 7.741034e-04
1.144000e+03 2.533646e-03
1.145000e+03 1.781853e-06
1.146000e+03 2.640312e-03
1.147000e+03 2.612733e-03
1.148000e+03 2.253195e-05
1.149000e+03 2.148515e-03
1.150000e+03 1.992536e-03
1.151000e+03 2.475851e-03
1.152000e+03 1.976244e-03
1.153000e+03 2.389264e-03
1.154000e+03 2.398417e-03
1.155000e+03 2.004533e-03
1.156000e+03 1.701537e-03
1.157000e+03 2.108855e-03
1.158000e+03 8.997164e-04
1.159000e+03 2.181849e-03
1.160000e+03 1.271342e-03
1.161000e+03 1.977586e-03
1.162000e+03 1.219779e-04
1.163000e+03 5.761746e-04
1.164000e+03 3.804220e-06
1.165000e+03 1.015408e-03
1.166000e+03 5.216617e-04
1.167000e+03 3.479825e-04
1.168000e+03 2.249041e-03
1.169000e+03 2.323664e-03
1.170000e+03 3.345278e-04
1.171000e+03 9.829487e-04
1.172000e+03 7.290785e-04
1.173000e+03 6.668714e-04
1.174000e+03 1.314178e-05
1.175000e+03 2.679764e-06
1.176000e+03 1.148845e-06
1.177000e+03 3.013854e-03
1.178000e+03 2.831067e-03
1.179000e+03 2.654911e-03
1.180000e+03 2.208978e-03
1.181000e+03 2.386352e-03
1.182000e+03 2.287831e-03
1.183000e+03 1.936833e-03
1.184000e+03 1.805647e-03
1.185000e+03 1.800874e-03
1.186000e+03 8.039283e-05
1.187000e+03 1.868425e-03
1.188000e+03 1.509194e-03
1.189000e+03 1.807877e-03
1.190000e+03 1.754438e-03
1.191000e+03 1.633522e-03
1.192000e+03 1.487232e-03
1.193000e+03 1.450424e-03
1.194000e+03 1.426526e-03
1.195000e+03 1.359854e-03
1.196000e+03 3.328912e-02
1.197000e+03 3.276925e-02
1.198000e+03 3.620740e-04
1.199000e+03 2.597093e-02
1.200000e+03 1.979521e-03
1.201000e+03 1.889474e-02
1.202000e+03 1.191190e-02
1.203000e+03 1.294054e-02
1.204000e+03 2.178454e-03
1.205000e+03 7.972001e-03
1.206000e+03 6.012891e-03
1.207000e+03 7.237128e-04
1.208000e+03 2.756039e-03
1.209000e+03 1.953489e-03
1.210000e+03 6.529270e-06
1.211000e+03 6.772431e-04
1.212000e+03 3.219383e-04
1.213000e+03 1.344982e-04
1.214000e+03 3.763384e-05
1.215000e+03 6.784129e-06
1.216000e+03 6.102233e-06
1.217000e+03 2.365749e-05
1.218000e+03 1.112274e-04
1.219000e+03 3.203751e-04
1.220000e+03 5.960839e-04
1.221000e+03 1.495318e-03
1.222000e+03 2.651935e-03
1.223000e+03 3.980889e-03
1.224000e+03 5.989480e-03
1.225000e+03 6.842660e-04
1.226000e+03 1.417092e-02
1.227000e+03 2.025123e-02
1.228000e+03 9.220216e-03
1.229000e+03 3.406742e-02
1.230000e+03 3.091487e-02
1.231000e+03 4.644308e-03
1.232000e+03 6.485461e-02
1.233000e+03 7.844202e-02
1.234000e+03 8.104590e-02
1.235000e+03 1.031548e-01
1.236000e+03 2.431265e-02
1.237000e+03 1.357183e-01
1.238000e+03 1.499564e-01
1.239000e+03 1.173714e-01
1.240000e+03 3.431083e-02
1.241000e+03 1.419447e-01
1.242000e+03 2.055154e-01
1.243000e+03 2.361521e-01
1.244000e+03 2.559031e-01
1.245000e+03 2.689303e-01
1.246000e+03 2.487780e-01
1.247000e+03 2.865425e-01
1.248000e+03 2.449634e-01
1.249000e+03 3.458704e-01
1.250000e+03 2.469540e-01
1.251000e+03 3.767970e-01
1.252000e+03 3.592874e-01
1.253000e+03 3.993586e-01
1.254000e+03 3.790331e-01
1.255000e+03 6.550036e-02
1.256000e+03 2.908159e-01
1.257000e+03 1.958061e-01
1.258000e+03 3.046692e-01
1.259000e+03 3.642368e-01
1.260000e+03 4.547940e-01
1.261000e+03 4.646361e-03
1.262000e+03 4.693715e-01
1.263000e+03 4.494749e-01
1.264000e+03 3.365320e-01
1.265000e+03 4.038545e-01
1.266000e+03 5.806208e-01
1.267000e+03 5.480009e-01
