# wavelength_A flux
5.000000e+02 4.831677e-42
5.010000e+02 6.402533e-42
5.020000e+02 8.473652e-42
5.030000e+02 1.120198e-41
5.040000e+02 1.479071e-41
5.050000e+02 1.952569e-41
5.060000e+02 2.572504e-41
5.070000e+02 3.385397e-41
5.080000e+02 4.450244e-41
5.090000e+02 5.843695e-41
5.100000e+02 7.659778e-41
5.110000e+02 1.004339e-40
5.120000e+02 1.314530e-40
5.130000e+02 1.718749e-40
5.140000e+02 2.244824e-40
5.150000e+02 2.928854e-40
5.160000e+02 3.817291e-40
5.170000e+02 4.970069e-40
5.180000e+02 6.464260e-40
5.190000e+02 8.399005e-40
5.200000e+02 1.090164e-39
5.210000e+02 1.413557e-39
5.220000e+02 1.831018e-39
5.230000e+02 2.369408e-39
5.240000e+02 3.063018e-39
5.250000e+02 3.955734e-39
5.260000e+02 5.103577e-39
5.270000e+02 6.578014e-39
5.280000e+02 8.470129e-39
5.290000e+02 1.089589e-38
5.300000e+02 1.400281e-38
5.310000e+02 1.797835e-38
5.320000e+02 2.306051e-38
5.330000e+02 2.955119e-38
5.340000e+02 3.783296e-38
5.350000e+02 4.839017e-38
5.360000e+02 6.183547e-38
5.370000e+02 7.893203e-38
5.380000e+02 1.006907e-37
5.390000e+02 1.283114e-37
5.400000e+02 1.633592e-37
5.410000e+02 2.077911e-37
5.420000e+02 2.640693e-37
5.430000e+02 3.352879e-37
5.440000e+02 4.253334e-37
5.450000e+02 5.390819e-37
5.460000e+02 6.826465e-37
5.470000e+02 8.636841e-37
5.480000e+02 1.091777e-36
5.490000e+02 1.378907e-36
5.500000e+02 1.740045e-36
5.510000e+02 2.193876e-36
5.520000e+02 2.763706e-36
5.530000e+02 3.478580e-36
5.540000e+02 4.374661e-36
5.550000e+02 5.496942e-36
5.560000e+02 6.901352e-36
5.570000e+02 8.657359e-36
5.580000e+02 1.085118e-35
5.590000e+02 1.358972e-35
5.600000e+02 1.700546e-35
5.610000e+02 2.126239e-35
5.620000e+02 2.656340e-35
5.630000e+02 3.315927e-35
5.640000e+02 4.135975e-35
5.650000e+02 5.154713e-35
5.660000e+02 6.419280e-35
5.670000e+02 7.987767e-35
5.680000e+02 9.931696e-35
5.690000e+02 1.233907e-34
5.700000e+02 1.531806e-34
5.710000e+02 1.900157e-34
5.720000e+02 2.355275e-34
5.730000e+02 2.917168e-34
5.740000e+02 3.610365e-34
5.750000e+02 4.464903e-34
5.760000e+02 5.517547e-34
5.770000e+02 6.813262e-34
5.780000e+02 8.406990e-34
5.790000e+02 1.036583e-33
5.800000e+02 1.277167e-33
5.810000e+02 1.572436e-33
5.820000e+02 1.934555e-33
5.830000e+02 2.378342e-33
5.840000e+02 2.921821e-33
5.850000e+02 3.586919e-33
5.860000e+02 4.400266e-33
5.870000e+02 5.394207e-33
5.880000e+02 6.607987e-33
5.890000e+02 8.089193e-33
5.900000e+02 9.895488e-33
5.910000e+02 1.209670e-32
5.920000e+02 1.477731e-32
5.930000e+02 1.803951e-32
5.940000e+02 2.200677e-32
5.950000e+02 2.682820e-32
5.960000e+02 3.268374e-32
5.970000e+02 3.979045e-32
5.980000e+02 4.840988e-32
5.990000e+02 5.885708e-32
6.000000e+02 7.151129e-32
6.010000e+02 8.682864e-32
6.020000e+02 1.053575e-31
6.030000e+02 1.277565e-31
6.040000e+02 1.548167e-31
6.050000e+02 1.874868e-31
6.060000e+02 2.269045e-31
6.070000e+02 2.744332e-31
6.080000e+02 3.317055e-31
6.090000e+02 4.006752e-31
6.100000e+02 4.836792e-31
6.110000e+02 5.835108e-31
6.120000e+02 7.035068e-31
6.130000e+02 8.476507e-31
6.140000e+02 1.020695e-30
6.150000e+02 1.228308e-30
6.160000e+02 1.477241e-30
6.170000e+02 1.775539e-30
6.180000e+02 2.132773e-30
6.190000e+02 2.560332e-30
6.200000e+02 3.071753e-30
6.210000e+02 3.683120e-30
6.220000e+02 4.413534e-30
6.230000e+02 5.285659e-30
6.240000e+02 6.326380e-30
6.250000e+02 7.567564e-30
6.260000e+02 9.046962e-30
6.270000e+02 1.080927e-29
6.280000e+02 1.290740e-29
6.290000e+02 1.540389e-29
6.300000e+02 1.837269e-29
6.310000e+02 2.190115e-29
6.320000e+02 2.609243e-29
6.330000e+02 3.106821e-29
6.340000e+02 3.697204e-29
6.350000e+02 4.397311e-29
6.360000e+02 5.227076e-29
6.370000e+02 6.209969e-29
6.380000e+02 7.373608e-29
6.390000e+02 8.750480e-29
6.400000e+02 1.037877e-28
6.410000e+02 1.230336e-28
6.420000e+02 1.457693e-28
6.430000e+02 1.726131e-28
6.440000e+02 2.042907e-28
6.450000e+02 2.416524e-28
6.460000e+02 2.856950e-28
6.470000e+02 3.375858e-28
6.480000e+02 3.986914e-28
6.490000e+02 4.706107e-28
6.500000e+02 5.552133e-28
6.510000e+02 6.546847e-28
6.520000e+02 7.715782e-28
6.530000e+02 9.088747e-28
6.540000e+02 1.070054e-27
6.550000e+02 1.259173e-27
6.560000e+02 1.480965e-27
6.570000e+02 1.740944e-27
6.580000e+02 2.045531e-27
6.590000e+02 2.402205e-27
6.600000e+02 2.819664e-27
6.610000e+02 3.308028e-27
6.620000e+02 3.879059e-27
6.630000e+02 4.546425e-27
6.640000e+02 5.326000e-27
6.650000e+02 6.236209e-27
6.660000e+02 7.298429e-27
6.670000e+02 8.537457e-27
6.680000e+02 9.982029e-27
6.690000e+02 1.166545e-26
6.700000e+02 1.362627e-26
6.710000e+02 1.590914e-26
6.720000e+02 1.856570e-26
6.730000e+02 2.165568e-26
6.740000e+02 2.524813e-26
6.750000e+02 2.942282e-26
6.760000e+02 3.427189e-26
6.770000e+02 3.990168e-26
6.780000e+02 4.643494e-26
6.790000e+02 5.401320e-26
6.800000e+02 6.279963e-26
6.810000e+02 7.298226e-26
6.820000e+02 8.477767e-26
6.830000e+02 9.843521e-26
6.840000e+02 1.142418e-25
6.850000e+02 1.325276e-25
6.860000e+02 1.536721e-25
6.870000e+02 1.781114e-25
6.880000e+02 2.063468e-25
6.890000e+02 2.389536e-25
6.900000e+02 2.765923e-25
6.910000e+02 3.200208e-25
6.920000e+02 3.701083e-25
6.930000e+02 4.278510e-25
6.940000e+02 4.943908e-25
6.950000e+02 5.710354e-25
6.960000e+02 6.592822e-25
6.970000e+02 7.608448e-25
6.980000e+02 8.776838e-25
6.990000e+02 1.012041e-24
7.000000e+02 1.166479e-24
7.010000e+02 1.343926e-24
7.020000e+02 1.547726e-24
7.030000e+02 1.781698e-24
7.040000e+02 2.050199e-24
7.050000e+02 2.358200e-24
7.060000e+02 2.711369e-24
7.070000e+02 3.116168e-24
7.080000e+02 3.579958e-24
7.090000e+02 4.111126e-24
7.100000e+02 4.719219e-24
7.110000e+02 5.415101e-24
7.120000e+02 6.211135e-24
7.130000e+02 7.121377e-24
7.140000e+02 8.161808e-24
7.150000e+02 9.350587e-24
7.160000e+02 1.070834e-23
7.170000e+02 1.225849e-23
7.180000e+02 1.402762e-23
7.190000e+02 1.604590e-23
7.200000e+02 1.834753e-23
7.210000e+02 2.097131e-23
7.220000e+02 2.396120e-23
7.230000e+02 2.736700e-23
7.240000e+02 3.124513e-23
7.250000e+02 3.565944e-23
7.260000e+02 4.068221e-23
7.270000e+02 4.639519e-23
7.280000e+02 5.289084e-23
7.290000e+02 6.027369e-23
7.300000e+02 6.866186e-23
7.310000e+02 7.818878e-23
7.320000e+02 8.900514e-23
7.330000e+02 1.012810e-22
7.340000e+02 1.152084e-22
7.350000e+02 1.310039e-22
7.360000e+02 1.489115e-22
7.370000e+02 1.692067e-22
7.380000e+02 1.921995e-22
7.390000e+02 2.182395e-22
7.400000e+02 2.477201e-22
7.410000e+02 2.810844e-22
7.420000e+02 3.188309e-22
7.430000e+02 3.615204e-22
7.440000e+02 4.097836e-22
7.450000e+02 4.643295e-22
7.460000e+02 5.259550e-22
7.470000e+02 5.955554e-22
7.480000e+02 6.741359e-22
7.490000e+02 7.628255e-22
7.500000e+02 8.628909e-22
7.510000e+02 9.757537e-22
7.520000e+02 1.103008e-21
7.530000e+02 1.246442e-21
7.540000e+02 1.408058e-21
7.550000e+02 1.590102e-21
7.560000e+02 1.795089e-21
7.570000e+02 2.025835e-21
7.580000e+02 2.285493e-21
7.590000e+02 2.577590e-21
7.600000e+02 2.906073e-21
7.610000e+02 3.275357e-21
7.620000e+02 3.690375e-21
7.630000e+02 4.156646e-21
7.640000e+02 4.680329e-21
7.650000e+02 5.268310e-21
7.660000e+02 5.928277e-21
7.670000e+02 6.668808e-21
7.680000e+02 7.499480e-21
7.690000e+02 8.430974e-21
7.700000e+02 9.475206e-21
7.710000e+02 1.064546e-20
7.720000e+02 1.195654e-20
7.730000e+02 1.342494e-20
7.740000e+02 1.506904e-20
7.750000e+02 1.690930e-20
7.760000e+02 1.896851e-20
7.770000e+02 2.127203e-20
7.780000e+02 2.384805e-20
7.790000e+02 2.672796e-20
7.800000e+02 2.994664e-20
7.810000e+02 3.354289e-20
7.820000e+02 3.755981e-20
7.830000e+02 4.204528e-20
7.840000e+02 4.705248e-20
7.850000e+02 5.264048e-20
7.860000e+02 5.887482e-20
7.870000e+02 6.582825e-20
7.880000e+02 7.358148e-20
7.890000e+02 8.222400e-20
7.900000e+02 9.185506e-20
7.910000e+02 1.025847e-19
7.920000e+02 1.145347e-19
7.930000e+02 1.278403e-19
7.940000e+02 1.426510e-19
7.950000e+02 1.591324e-19
7.960000e+02 1.774678e-19
7.970000e+02 1.978602e-19
7.980000e+02 2.205338e-19
7.990000e+02 2.457372e-19
8.000000e+02 2.737446e-19
8.010000e+02 3.048596e-19
8.020000e+02 3.394174e-19
8.030000e+02 3.777886e-19
8.040000e+02 4.203825e-19
8.050000e+02 4.676508e-19
8.060000e+02 5.200924e-19
8.070000e+02 5.782581e-19
8.080000e+02 6.427552e-19
8.090000e+02 7.142539e-19
8.100000e+02 7.934932e-19
8.110000e+02 8.812879e-19
8.120000e+02 9.785362e-19
8.130000e+02 1.086228e-18
8.140000e+02 1.205452e-18
8.150000e+02 1.337412e-18
8.160000e+02 1.483427e-18
8.170000e+02 1.644955e-18
8.180000e+02 1.823596e-18
8.190000e+02 2.021114e-18
8.200000e+02 2.239447e-18
8.210000e+02 2.480727e-18
8.220000e+02 2.747299e-18
8.230000e+02 3.041739e-18
8.240000e+02 3.366878e-18
8.250000e+02 3.725827e-18
8.260000e+02 4.122003e-18
8.270000e+02 4.559157e-18
8.280000e+02 5.041409e-18
8.290000e+02 5.573280e-18
8.300000e+02 6.159729e-18
8.310000e+02 6.806199e-18
8.320000e+02 7.518658e-18
8.330000e+02 8.303652e-18
8.340000e+02 9.168352e-18
8.350000e+02 1.012063e-17
8.360000e+02 1.116909e-17
8.370000e+02 1.232317e-17
8.380000e+02 1.359322e-17
8.390000e+02 1.499055e-17
8.400000e+02 1.652755e-17
8.410000e+02 1.821779e-17
8.420000e+02 2.007609e-17
8.430000e+02 2.211870e-17
8.440000e+02 2.436336e-17
8.450000e+02 2.682949e-17
8.460000e+02 2.953831e-17
8.470000e+02 3.251301e-17
8.480000e+02 3.577894e-17
8.490000e+02 3.936378e-17
8.500000e+02 4.329777e-17
8.510000e+02 4.761393e-17
8.520000e+02 5.234830e-17
8.530000e+02 5.754025e-17
8.540000e+02 6.323269e-17
8.550000e+02 6.947248e-17
8.560000e+02 7.631070e-17
8.570000e+02 8.380308e-17
8.580000e+02 9.201038e-17
8.590000e+02 1.009988e-16
8.600000e+02 1.108405e-16
8.610000e+02 1.216141e-16
8.620000e+02 1.334053e-16
8.630000e+02 1.463074e-16
8.640000e+02 1.604219e-16
8.650000e+02 1.758595e-16
8.660000e+02 1.927404e-16
8.670000e+02 2.111956e-16
8.680000e+02 2.313677e-16
8.690000e+02 2.534116e-16
8.700000e+02 2.774959e-16
8.710000e+02 3.038038e-16
8.720000e+02 3.325346e-16
8.730000e+02 3.639047e-16
8.740000e+02 3.981493e-16
8.750000e+02 4.355242e-16
8.760000e+02 4.763067e-16
8.770000e+02 5.207985e-16
8.780000e+02 5.693266e-16
8.790000e+02 6.222465e-16
8.800000e+02 6.799436e-16
8.810000e+02 7.428363e-16
8.820000e+02 8.113784e-16
8.830000e+02 8.860619e-16
8.840000e+02 9.674209e-16
8.850000e+02 1.056034e-15
8.860000e+02 1.152528e-15
8.870000e+02 1.257584e-15
8.880000e+02 1.371937e-15
8.890000e+02 1.496386e-15
8.900000e+02 1.631795e-15
8.910000e+02 1.779100e-15
8.920000e+02 1.939314e-15
8.930000e+02 2.113535e-15
8.940000e+02 2.302950e-15
8.950000e+02 2.508843e-15
8.960000e+02 2.732604e-15
8.970000e+02 2.975737e-15
8.980000e+02 3.239868e-15
8.990000e+02 3.526753e-15
9.000000e+02 3.838295e-15
9.010000e+02 4.176547e-15
9.020000e+02 4.543728e-15
9.030000e+02 4.942237e-15
9.040000e+02 5.374665e-15
9.050000e+02 5.843810e-15
9.060000e+02 6.352693e-15
9.070000e+02 6.904577e-15
9.080000e+02 7.502982e-15
9.090000e+02 8.151710e-15
9.100000e+02 8.854861e-15
9.110000e+02 9.616860e-15
9.120000e+02 1.044248e-14
9.130000e+02 1.133686e-14
9.140000e+02 1.307721e-14
9.150000e+02 5.372057e-12
9.160000e+02 4.338084e-11
9.170000e+02 9.475069e-12
9.180000e+02 7.144571e-12
9.190000e+02 1.359208e-10
9.200000e+02 4.342624e-10
9.210000e+02 2.173325e-14
9.220000e+02 6.147886e-10
9.230000e+02 2.756119e-12
9.240000e+02 2.299777e-11
9.250000e+02 3.404516e-10
9.260000e+02 1.135503e-11
9.270000e+02 2.303726e-11
9.280000e+02 3.461046e-09
9.290000e+02 3.248915e-09
9.300000e+02 5.831182e-10
9.310000e+02 7.848159e-12
9.320000e+02 2.523024e-09
9.330000e+02 5.724152e-09
9.340000e+02 1.882026e-09
9.350000e+02 6.455564e-12
9.360000e+02 1.314744e-10
9.370000e+02 1.688486e-12
9.380000e+02 2.541458e-12
9.390000e+02 3.383701e-10
9.400000e+02 7.345177e-09
9.410000e+02 1.297811e-10
9.420000e+02 1.356538e-08
9.430000e+02 9.364189e-10
9.440000e+02 1.568820e-08
9.450000e+02 1.549486e-08
9.460000e+02 9.455792e-09
9.470000e+02 6.160850e-12
9.480000e+02 2.625012e-09
9.490000e+02 2.983682e-10
9.500000e+02 2.034715e-12
9.510000e+02 1.974196e-09
9.520000e+02 8.881416e-09
9.530000e+02 1.711933e-10
9.540000e+02 7.358572e-12
9.550000e+02 2.043908e-09
9.560000e+02 1.121648e-08
9.570000e+02 5.088445e-10
9.580000e+02 2.364331e-12
9.590000e+02 3.532489e-08
9.600000e+02 1.220801e-11
9.610000e+02 2.956285e-08
9.620000e+02 1.492805e-08
9.630000e+02 7.951542e-10
9.640000e+02 1.397957e-10
9.650000e+02 2.605560e-11
9.660000e+02 2.974293e-09
9.670000e+02 2.876313e-10
9.680000e+02 1.924469e-10
9.690000e+02 1.065339e-08
9.700000e+02 1.204017e-08
9.710000e+02 3.806462e-10
9.720000e+02 3.899424e-11
9.730000e+02 5.916886e-11
9.740000e+02 3.327185e-09
9.750000e+02 5.105553e-09
9.760000e+02 4.644049e-08
9.770000e+02 5.905024e-08
9.780000e+02 4.834368e-08
9.790000e+02 1.206119e-07
9.800000e+02 1.390147e-07
9.810000e+02 4.173104e-08
9.820000e+02 6.423846e-09
9.830000e+02 1.770239e-07
9.840000e+02 3.437584e-09
9.850000e+02 1.715258e-08
9.860000e+02 1.682345e-08
9.870000e+02 2.199002e-07
9.880000e+02 1.012950e-10
9.890000e+02 1.717480e-07
9.900000e+02 1.573493e-07
9.910000e+02 6.787393e-09
9.920000e+02 1.876835e-11
9.930000e+02 2.249954e-07
9.940000e+02 1.102762e-11
9.950000e+02 9.139691e-09
9.960000e+02 6.012613e-10
9.970000e+02 3.851361e-10
9.980000e+02 3.359008e-07
9.990000e+02 9.650568e-09
1.000000e+03 4.929412e-07
1.001000e+03 4.424342e-07
1.002000e+03 5.573923e-07
1.003000e+03 9.878711e-09
1.004000e+03 1.661533e-10
1.005000e+03 6.180352e-08
1.006000e+03 6.372252e-07
1.007000e+03 7.014178e-07
1.008000e+03 6.304250e-07
1.009000e+03 9.397887e-09
1.010000e+03 6.356062e-07
1.011000e+03 6.689148e-07
1.012000e+03 7.626015e-07
1.013000e+03 7.675082e-07
1.014000e+03 8.566303e-11
1.015000e+03 3.811351e-10
1.016000e+03 5.439091e-08
1.017000e+03 6.212986e-11
1.018000e+03 1.443408e-08
1.019000e+03 3.573746e-10
1.020000e+03 4.985209e-07
1.021000e+03 1.236515e-08
1.022000e+03 3.611397e-08
1.023000e+03 1.481958e-09
1.024000e+03 2.028241e-08
1.025000e+03 6.326162e-11
1.026000e+03 7.683417e-11
1.027000e+03 9.015392e-09
1.028000e+03 6.350831e-10
1.029000e+03 1.523972e-10
1.030000e+03 2.284508e-07
1.031000e+03 7.789071e-07
1.032000e+03 1.731112e-06
1.033000e+03 1.166495e-08
1.034000e+03 1.061030e-06
1.035000e+03 3.169589e-10
1.036000e+03 4.297362e-10
1.037000e+03 8.061185e-06
1.038000e+03 1.111742e-05
1.039000e+03 9.799059e-06
1.040000e+03 8.536881e-06
1.041000e+03 1.307232e-05
1.042000e+03 1.577623e-05
1.043000e+03 8.868916e-06
1.044000e+03 2.041538e-05
1.045000e+03 5.374976e-10
1.046000e+03 1.012195e-05
1.047000e+03 5.598069e-06
1.048000e+03 3.476180e-08
1.049000e+03 5.275063e-06
1.050000e+03 6.072787e-07
1.051000e+03 2.275938e-07
1.052000e+03 2.941051e-05
1.053000e+03 3.414350e-05
1.054000e+03 8.676579e-10
1.055000e+03 2.922148e-05
1.056000e+03 3.564909e-05
1.057000e+03 1.386010e-05
1.058000e+03 2.906642e-07
1.059000e+03 1.266162e-07
1.060000e+03 3.845344e-08
1.061000e+03 3.405521e-05
1.062000e+03 1.336252e-07
1.063000e+03 4.850309e-08
1.064000e+03 9.786163e-10
1.065000e+03 1.484295e-09
1.066000e+03 6.975864e-06
1.067000e+03 2.714363e-07
1.068000e+03 6.905005e-05
1.069000e+03 3.921049e-08
1.070000e+03 5.558977e-06
1.071000e+03 6.358337e-05
1.072000e+03 8.441204e-05
1.073000e+03 4.736648e-09
1.074000e+03 2.865348e-05
1.075000e+03 1.786104e-05
1.076000e+03 3.713741e-05
1.077000e+03 4.710091e-08
1.078000e+03 4.455869e-07
1.079000e+03 4.083600e-06
1.080000e+03 1.985703e-05
1.081000e+03 1.033236e-04
1.082000e+03 7.256643e-05
1.083000e+03 4.610854e-05
1.084000e+03 1.320868e-04
1.085000e+03 6.388320e-06
1.086000e+03 1.631194e-04
1.087000e+03 7.227209e-07
1.088000e+03 1.780558e-04
1.089000e+03 1.841385e-04
1.090000e+03 5.384537e-06
1.091000e+03 1.136669e-05
1.092000e+03 1.749851e-04
1.093000e+03 2.062872e-04
1.094000e+03 7.047220e-05
1.095000e+03 2.417104e-04
1.096000e+03 4.040281e-06
1.097000e+03 2.349790e-04
1.098000e+03 2.480761e-04
1.099000e+03 1.880727e-05
1.100000e+03 9.324481e-08
1.101000e+03 3.526302e-07
1.102000e+03 1.808424e-05
1.103000e+03 3.348513e-04
1.104000e+03 3.541557e-04
1.105000e+03 3.667623e-04
1.106000e+03 9.967874e-05
1.107000e+03 3.006717e-07
1.108000e+03 3.691062e-04
1.109000e+03 7.923634e-06
1.110000e+03 4.244959e-04
1.111000e+03 4.092638e-04
1.112000e+03 3.083287e-04
1.113000e+03 3.388739e-04
1.114000e+03 1.573970e-04
1.115000e+03 6.467730e-06
1.116000e+03 1.311715e-06
1.117000e+03 5.779939e-04
1.118000e+03 1.476330e-05
1.119000e+03 3.289585e-04
1.120000e+03 3.233610e-06
1.121000e+03 6.361393e-04
1.122000e+03 7.201126e-04
1.123000e+03 9.842881e-04
1.124000e+03 1.209144e-03
1.125000e+03 9.755756e-04
1.126000e+03 1.033151e-03
1.127000e+03 9.067603e-04
1.128000e+03 7.563147e-04
1.129000e+03 6.737573e-04
1.130000e+03 8.146289e-04
1.131000e+03 6.428537e-04
1.132000e+03 5.229813e-06
1.133000e+03 1.325601e-04
1.134000e+03 6.362376e-04
1.135000e+03 4.101049e-04
1.136000e+03 1.987830e-04
1.137000e+03 5.422689e-04
1.138000e+03 5.416069e-04
1.139000e+03 6.715863e-04
1.140000e+03 6.433604e-04
1.141000e+03 6.050884e-04
1.142000e+03 6.569310e-04
1.143000e+03 4.744022e-04
1.144000e+03 6.252542e-04
1.145000e+03 2.923829e-06
1.146000e+03 6.865571e-04
1.147000e+03 6.909762e-04
1.148000e+03 4.862912e-05
1.149000e+03 6.690538e-04
1.150000e+03 6.649607e-04
1.151000e+03 6.732793e-04
1.152000e+03 6.572788e-04
1.153000e+03 6.476488e-04
1.154000e+03 6.278133e-04
1.155000e+03 6.155268e-04
1.156000e+03 4.606436e-04
1.157000e+03 5.932601e-04
1.158000e+03 5.216406e-04
1.159000e+03 6.075081e-04
1.160000e+03 5.552379e-04
1.161000e+03 5.595037e-04
1.162000e+03 1.578297e-04
1.163000e+03 3.655505e-04
1.164000e+03 1.097651e-06
1.165000e+03 3.145254e-04
1.166000e+03 1.618065e-04
1.167000e+03 1.045986e-04
1.168000e+03 6.423087e-04
1.169000e+03 6.530918e-04
1.170000e+03 1.108083e-04
1.171000e+03 2.881718e-04
1.172000e+03 2.305096e-04
1.173000e+03 1.953810e-04
1.174000e+03 2.230942e-05
1.175000e+03 1.118227e-06
1.176000e+03 3.380846e-07
1.177000e+03 8.552644e-04
1.178000e+03 8.066995e-04
1.179000e+03 7.663855e-04
1.180000e+03 6.977124e-04
1.181000e+03 6.914891e-04
1.182000e+03 6.699096e-04
1.183000e+03 6.284561e-04
1.184000e+03 6.080418e-04
1.185000e+03 5.864496e-04
1.186000e+03 1.201996e-04
1.187000e+03 5.577969e-04
1.188000e+03 5.277526e-04
1.189000e+03 5.338660e-04
1.190000e+03 5.191640e-04
1.191000e+03 4.906431e-04
1.192000e+03 4.423792e-04
1.193000e+03 4.387883e-04
1.194000e+03 4.250752e-04
1.195000e+03 4.063655e-04
1.196000e+03 7.929910e-03
1.197000e+03 7.472621e-03
1.198000e+03 8.139662e-04
1.199000e+03 6.304308e-03
1.200000e+03 2.403959e-03
1.201000e+03 4.938553e-03
1.202000e+03 4.062489e-03
1.203000e+03 3.592789e-03
1.204000e+03 1.818467e-03
1.205000e+03 2.328384e-03
1.206000e+03 1.780230e-03
1.207000e+03 2.043587e-04
1.208000e+03 8.041343e-04
1.209000e+03 5.864810e-04
1.210000e+03 2.220215e-06
1.211000e+03 2.000416e-04
1.212000e+03 9.578504e-05
1.213000e+03 3.802404e-05
1.214000e+03 1.008975e-05
1.215000e+03 1.568145e-06
1.216000e+03 1.212806e-06
1.217000e+03 6.238366e-06
1.218000e+03 3.114276e-05
1.219000e+03 9.383657e-05
1.220000e+03 2.156711e-04
1.221000e+03 4.402909e-04
1.222000e+03 8.156330e-04
1.223000e+03 1.317905e-03
1.224000e+03 1.906402e-03
1.225000e+03 9.488610e-04
1.226000e+03 4.209872e-03
1.227000e+03 5.787609e-03
1.228000e+03 6.169913e-03
1.229000e+03 9.606579e-03
1.230000e+03 6.314504e-03
1.231000e+03 5.877964e-03
1.232000e+03 1.663148e-02
1.233000e+03 1.947509e-02
1.234000e+03 1.797639e-02
1.235000e+03 2.514351e-02
1.236000e+03 2.068439e-02
1.237000e+03 3.105396e-02
1.238000e+03 3.409917e-02
1.239000e+03 3.536270e-02
1.240000e+03 4.032414e-03
1.241000e+03 3.806872e-02
1.242000e+03 4.599962e-02
1.243000e+03 4.932524e-02
1.244000e+03 5.266947e-02
1.245000e+03 5.498537e-02
1.246000e+03 5.709593e-02
1.247000e+03 6.029040e-02
1.248000e+03 3.606144e-02
1.249000e+03 6.630901e-02
1.250000e+03 6.061016e-02
1.251000e+03 7.421093e-02
1.252000e+03 7.233095e-02
1.253000e+03 7.864955e-02
1.254000e+03 7.782192e-02
1.255000e+03 1.422136e-02
1.256000e+03 7.205024e-02
1.257000e+03 5.113945e-02
1.258000e+03 7.792391e-02
1.259000e+03 8.638611e-02
1.260000e+03 9.275158e-02
1.261000e+03 1.921944e-03
1.262000e+03 9.665547e-02
1.263000e+03 8.022483e-02
1.264000e+03 9.199143e-02
1.265000e+03 6.922306e-02
1.266000e+03 1.169973e-01
1.267000e+03 1.242508e-01
