# wavelength_A flux
5.000000e+02 3.125219e-14
5.010000e+02 3.643027e-14
5.020000e+02 4.243955e-14
5.030000e+02 4.940913e-14
5.040000e+02 5.748751e-14
5.050000e+02 6.838576e-14
5.060000e+02 7.945659e-14
5.070000e+02 9.226337e-14
5.080000e+02 1.070694e-13
5.090000e+02 1.241776e-13
5.100000e+02 1.439318e-13
5.110000e+02 1.667298e-13
5.120000e+02 1.930242e-13
5.130000e+02 2.233340e-13
5.140000e+02 2.582521e-13
5.150000e+02 2.984529e-13
5.160000e+02 3.447194e-13
5.170000e+02 3.979106e-13
5.180000e+02 4.590807e-13
5.190000e+02 5.293341e-13
5.200000e+02 6.099937e-13
5.210000e+02 7.025482e-13
5.220000e+02 8.086129e-13
5.230000e+02 9.303620e-13
5.240000e+02 1.069747e-12
5.250000e+02 1.229347e-12
5.260000e+02 1.411978e-12
5.270000e+02 1.620863e-12
5.280000e+02 1.859645e-12
5.290000e+02 2.131981e-12
5.300000e+02 2.443998e-12
5.310000e+02 2.799563e-12
5.320000e+02 3.205176e-12
5.330000e+02 3.667624e-12
5.340000e+02 4.194607e-12
5.350000e+02 4.794821e-12
5.360000e+02 5.478064e-12
5.370000e+02 6.184003e-12
5.380000e+02 7.139564e-12
5.390000e+02 8.144620e-12
5.400000e+02 9.286473e-12
5.410000e+02 1.058225e-11
5.420000e+02 1.205446e-11
5.430000e+02 1.372391e-11
5.440000e+02 1.561675e-11
5.450000e+02 1.776196e-11
5.460000e+02 2.018861e-11
5.470000e+02 2.294340e-11
5.480000e+02 2.605710e-11
5.490000e+02 2.957930e-11
5.500000e+02 3.356154e-11
5.510000e+02 3.806190e-11
5.520000e+02 4.314537e-11
5.530000e+02 4.888486e-11
5.540000e+02 5.536206e-11
5.550000e+02 6.266843e-11
5.560000e+02 7.090636e-11
5.570000e+02 8.019041e-11
5.580000e+02 9.064872e-11
5.590000e+02 1.024245e-10
5.600000e+02 1.156779e-10
5.610000e+02 1.305876e-10
5.620000e+02 1.473533e-10
5.630000e+02 1.661976e-10
5.640000e+02 1.873692e-10
5.650000e+02 2.111446e-10
5.660000e+02 2.378339e-10
5.670000e+02 2.677800e-10
5.680000e+02 3.013665e-10
5.690000e+02 3.390198e-10
5.700000e+02 3.812143e-10
5.710000e+02 4.284788e-10
5.720000e+02 4.813994e-10
5.730000e+02 5.406285e-10
5.740000e+02 6.068909e-10
5.750000e+02 6.810010e-10
5.760000e+02 7.637511e-10
5.770000e+02 8.563884e-10
5.780000e+02 9.597649e-10
5.790000e+02 1.075182e-09
5.800000e+02 1.203990e-09
5.810000e+02 1.347684e-09
5.820000e+02 1.507921e-09
5.830000e+02 1.686521e-09
5.840000e+02 1.885062e-09
5.850000e+02 2.107121e-09
5.860000e+02 2.354063e-09
5.870000e+02 2.628783e-09
5.880000e+02 2.934408e-09
5.890000e+02 3.274249e-09
5.900000e+02 3.652141e-09
5.910000e+02 4.072025e-09
5.920000e+02 4.538463e-09
5.930000e+02 5.056407e-09
5.940000e+02 5.631335e-09
5.950000e+02 6.269235e-09
5.960000e+02 6.976895e-09
5.970000e+02 7.761491e-09
5.980000e+02 8.631130e-09
5.990000e+02 9.594680e-09
6.000000e+02 1.066190e-08
6.010000e+02 1.184243e-08
6.020000e+02 1.315131e-08
6.030000e+02 1.459825e-08
6.040000e+02 1.619860e-08
6.050000e+02 1.796797e-08
6.060000e+02 1.992351e-08
6.070000e+02 2.208413e-08
6.080000e+02 2.447043e-08
6.090000e+02 2.710511e-08
6.100000e+02 3.001299e-08
6.110000e+02 3.322139e-08
6.120000e+02 3.676006e-08
6.130000e+02 4.066174e-08
6.140000e+02 4.496218e-08
6.150000e+02 4.970059e-08
6.160000e+02 5.491980e-08
6.170000e+02 6.066671e-08
6.180000e+02 6.699258e-08
6.190000e+02 7.395345e-08
6.200000e+02 8.161057e-08
6.210000e+02 9.003082e-08
6.220000e+02 9.928728e-08
6.230000e+02 1.094597e-07
6.240000e+02 1.206352e-07
6.250000e+02 1.329087e-07
6.260000e+02 1.463838e-07
6.270000e+02 1.611735e-07
6.280000e+02 1.774009e-07
6.290000e+02 1.952004e-07
6.300000e+02 2.147179e-07
6.310000e+02 2.360880e-07
6.320000e+02 2.595586e-07
6.330000e+02 2.852421e-07
6.340000e+02 3.133735e-07
6.350000e+02 3.441706e-07
6.360000e+02 3.777818e-07
6.370000e+02 4.147642e-07
6.380000e+02 4.551100e-07
6.390000e+02 4.992296e-07
6.400000e+02 5.474616e-07
6.410000e+02 6.001737e-07
6.420000e+02 6.577653e-07
6.430000e+02 7.206697e-07
6.440000e+02 7.893568e-07
6.450000e+02 8.643365e-07
6.460000e+02 9.461622e-07
6.470000e+02 1.035433e-06
6.480000e+02 1.132798e-06
6.490000e+02 1.238962e-06
6.500000e+02 1.354685e-06
6.510000e+02 1.480797e-06
6.520000e+02 1.618188e-06
6.530000e+02 1.767826e-06
6.540000e+02 1.930757e-06
6.550000e+02 2.108115e-06
6.560000e+02 2.301122e-06
6.570000e+02 2.511062e-06
6.580000e+02 2.739488e-06
6.590000e+02 2.987822e-06
6.600000e+02 3.257768e-06
6.610000e+02 3.551151e-06
6.620000e+02 3.869896e-06
6.630000e+02 4.216112e-06
6.640000e+02 4.592067e-06
6.650000e+02 5.000200e-06
6.660000e+02 5.443176e-06
6.670000e+02 5.923814e-06
6.680000e+02 6.445191e-06
6.690000e+02 7.010614e-06
6.700000e+02 7.623646e-06
6.710000e+02 8.288125e-06
6.720000e+02 9.008184e-06
6.730000e+02 9.788275e-06
6.740000e+02 1.063319e-05
6.750000e+02 1.154808e-05
6.760000e+02 1.253849e-05
6.770000e+02 1.361040e-05
6.780000e+02 1.477022e-05
6.790000e+02 1.602485e-05
6.800000e+02 1.738170e-05
6.810000e+02 1.884874e-05
6.820000e+02 2.043454e-05
6.830000e+02 2.214829e-05
6.840000e+02 2.399987e-05
6.850000e+02 2.599983e-05
6.860000e+02 2.815970e-05
6.870000e+02 3.049149e-05
6.880000e+02 3.300853e-05
6.890000e+02 3.572469e-05
6.900000e+02 3.865510e-05
6.910000e+02 4.181593e-05
6.920000e+02 4.522449e-05
6.930000e+02 4.889936e-05
6.940000e+02 5.286041e-05
6.950000e+02 5.712895e-05
6.960000e+02 6.172779e-05
6.970000e+02 6.668072e-05
6.980000e+02 7.201584e-05
6.990000e+02 7.775916e-05
7.000000e+02 8.394130e-05
7.010000e+02 9.059429e-05
7.020000e+02 9.775239e-05
7.030000e+02 1.054522e-04
7.040000e+02 1.137330e-04
7.050000e+02 1.226365e-04
7.060000e+02 1.322075e-04
7.070000e+02 1.424939e-04
7.080000e+02 1.535466e-04
7.090000e+02 1.654197e-04
7.100000e+02 1.781728e-04
7.110000e+02 1.918667e-04
7.120000e+02 2.065681e-04
7.130000e+02 2.223479e-04
7.140000e+02 2.392815e-04
7.150000e+02 2.574494e-04
7.160000e+02 2.769377e-04
7.170000e+02 2.978370e-04
7.180000e+02 3.202443e-04
7.190000e+02 3.442700e-04
7.200000e+02 3.700171e-04
7.210000e+02 3.976066e-04
7.220000e+02 4.271642e-04
7.230000e+02 4.588239e-04
7.240000e+02 4.927282e-04
7.250000e+02 5.290290e-04
7.260000e+02 5.678876e-04
7.270000e+02 6.094764e-04
7.280000e+02 6.539779e-04
7.290000e+02 7.015867e-04
7.300000e+02 7.525097e-04
7.310000e+02 8.069669e-04
7.320000e+02 8.651920e-04
7.330000e+02 9.274337e-04
7.340000e+02 9.939560e-04
7.350000e+02 1.065039e-03
7.360000e+02 1.140982e-03
7.370000e+02 1.222101e-03
7.380000e+02 1.308732e-03
7.390000e+02 1.401231e-03
7.400000e+02 1.499975e-03
7.410000e+02 1.605376e-03
7.420000e+02 1.717845e-03
7.430000e+02 1.837852e-03
7.440000e+02 1.965863e-03
7.450000e+02 2.102392e-03
7.460000e+02 2.247980e-03
7.470000e+02 2.403197e-03
7.480000e+02 2.568651e-03
7.490000e+02 2.744985e-03
7.500000e+02 2.932879e-03
7.510000e+02 3.133055e-03
7.520000e+02 3.346278e-03
7.530000e+02 3.573357e-03
7.540000e+02 3.815148e-03
7.550000e+02 4.072560e-03
7.560000e+02 4.346551e-03
7.570000e+02 4.638074e-03
7.580000e+02 4.948400e-03
7.590000e+02 5.278456e-03
7.600000e+02 5.629550e-03
7.610000e+02 6.002922e-03
7.620000e+02 6.399924e-03
7.630000e+02 6.821977e-03
7.640000e+02 7.270587e-03
7.650000e+02 7.747341e-03
7.660000e+02 8.253925e-03
7.670000e+02 8.792108e-03
7.680000e+02 9.363731e-03
7.690000e+02 9.970877e-03
7.700000e+02 1.061553e-02
7.710000e+02 1.129994e-02
7.720000e+02 1.202643e-02
7.730000e+02 1.279746e-02
7.740000e+02 1.361562e-02
7.750000e+02 1.448365e-02
7.760000e+02 1.540339e-02
7.770000e+02 1.638106e-02
7.780000e+02 1.741670e-02
7.790000e+02 1.851474e-02
7.800000e+02 1.967877e-02
7.810000e+02 2.091256e-02
7.820000e+02 2.222006e-02
7.830000e+02 2.360547e-02
7.840000e+02 2.507320e-02
7.850000e+02 2.662788e-02
7.860000e+02 2.827440e-02
7.870000e+02 3.001799e-02
7.880000e+02 3.186396e-02
7.890000e+02 3.381806e-02
7.900000e+02 3.588632e-02
7.910000e+02 3.807506e-02
7.920000e+02 4.039093e-02
7.930000e+02 4.284097e-02
7.940000e+02 4.543253e-02
7.950000e+02 4.817336e-02
7.960000e+02 5.107165e-02
7.970000e+02 5.413595e-02
7.980000e+02 5.737530e-02
7.990000e+02 6.079917e-02
8.000000e+02 6.441754e-02
8.010000e+02 6.824082e-02
8.020000e+02 7.228023e-02
8.030000e+02 7.654713e-02
8.040000e+02 8.105374e-02
8.050000e+02 8.581284e-02
8.060000e+02 9.083782e-02
8.070000e+02 9.614279e-02
8.080000e+02 1.017425e-01
8.090000e+02 1.076525e-01
8.100000e+02 1.138891e-01
8.110000e+02 1.204694e-01
8.120000e+02 1.274113e-01
8.130000e+02 1.347337e-01
8.140000e+02 1.424563e-01
8.150000e+02 1.505997e-01
8.160000e+02 1.591860e-01
8.170000e+02 1.682377e-01
8.180000e+02 1.777787e-01
8.190000e+02 1.878342e-01
8.200000e+02 1.984304e-01
8.210000e+02 2.095948e-01
8.220000e+02 2.213562e-01
8.230000e+02 2.337450e-01
8.240000e+02 2.467928e-01
8.250000e+02 2.605327e-01
8.260000e+02 2.749996e-01
8.270000e+02 2.902298e-01
8.280000e+02 3.062614e-01
8.290000e+02 3.231344e-01
8.300000e+02 3.408905e-01
8.310000e+02 3.595735e-01
8.320000e+02 3.792291e-01
8.330000e+02 3.999053e-01
8.340000e+02 4.216522e-01
8.350000e+02 4.445015e-01
8.360000e+02 4.685689e-01
8.370000e+02 4.938534e-01
8.380000e+02 5.204296e-01
8.390000e+02 5.483689e-01
8.400000e+02 5.777294e-01
8.410000e+02 6.085823e-01
8.420000e+02 6.409931e-01
8.430000e+02 6.750552e-01
8.440000e+02 7.108284e-01
8.450000e+02 7.484009e-01
8.460000e+02 7.878580e-01
8.470000e+02 8.292891e-01
8.480000e+02 8.727876e-01
8.490000e+02 9.184509e-01
8.500000e+02 9.663808e-01
8.510000e+02 1.016683e+00
8.520000e+02 1.069469e+00
8.530000e+02 1.124856e+00
8.540000e+02 1.182966e+00
8.550000e+02 1.243919e+00
8.560000e+02 1.307852e+00
8.570000e+02 1.374900e+00
8.580000e+02 1.445207e+00
8.590000e+02 1.518924e+00
8.600000e+02 1.596205e+00
8.610000e+02 1.677214e+00
8.620000e+02 1.762120e+00
8.630000e+02 1.851099e+00
8.640000e+02 1.944340e+00
8.650000e+02 2.042027e+00
8.660000e+02 2.144372e+00
8.670000e+02 2.251575e+00
8.680000e+02 2.363855e+00
8.690000e+02 2.481441e+00
8.700000e+02 2.604569e+00
8.710000e+02 2.733485e+00
8.720000e+02 2.868445e+00
8.730000e+02 3.009717e+00
8.740000e+02 3.157580e+00
8.750000e+02 3.312322e+00
8.760000e+02 3.474247e+00
8.770000e+02 3.643663e+00
8.780000e+02 3.820910e+00
8.790000e+02 4.006318e+00
8.800000e+02 4.200243e+00
8.810000e+02 4.403054e+00
8.820000e+02 4.615137e+00
8.830000e+02 4.836889e+00
8.840000e+02 5.068726e+00
8.850000e+02 5.311080e+00
8.860000e+02 5.564401e+00
8.870000e+02 5.829156e+00
8.880000e+02 6.105831e+00
8.890000e+02 6.394931e+00
8.900000e+02 6.696982e+00
8.910000e+02 7.012531e+00
8.920000e+02 7.337950e+00
8.930000e+02 7.686413e+00
8.940000e+02 8.045950e+00
8.950000e+02 8.421392e+00
8.960000e+02 8.813405e+00
8.970000e+02 9.222673e+00
8.980000e+02 9.649912e+00
8.990000e+02 1.009586e+01
9.000000e+02 1.056130e+01
9.010000e+02 1.104703e+01
9.020000e+02 1.155387e+01
9.030000e+02 1.208269e+01
9.040000e+02 1.263437e+01
9.050000e+02 1.320989e+01
9.060000e+02 1.381018e+01
9.070000e+02 1.443615e+01
9.080000e+02 1.508912e+01
9.090000e+02 1.576990e+01
9.100000e+02 1.647969e+01
9.110000e+02 1.721970e+01
9.120000e+02 1.799125e+01
9.130000e+02 1.871680e+01
9.140000e+02 1.994439e+01
9.150000e+02 1.402109e+02
9.160000e+02 1.983187e+02
9.170000e+02 2.060494e+02
9.180000e+02 2.130691e+02
9.190000e+02 2.227136e+02
9.200000e+02 2.313152e+02
9.210000e+02 2.644456e+01
9.220000e+02 2.490675e+02
9.230000e+02 2.568984e+02
9.240000e+02 2.590160e+02
9.250000e+02 2.750805e+02
9.260000e+02 2.877592e+02
9.270000e+02 2.986949e+02
9.280000e+02 3.110006e+02
9.290000e+02 3.221683e+02
9.300000e+02 3.314769e+02
9.310000e+02 3.428974e+02
9.320000e+02 3.600166e+02
9.330000e+02 3.729454e+02
9.340000e+02 3.869937e+02
9.350000e+02 9.369781e+01
9.360000e+02 3.966562e+02
9.370000e+02 7.936710e+01
9.380000e+02 2.443460e+02
9.390000e+02 4.615702e+02
9.400000e+02 4.803566e+02
9.410000e+02 1.838876e+02
9.420000e+02 5.160739e+02
9.430000e+02 5.340572e+02
9.440000e+02 4.495833e+02
9.450000e+02 5.738928e+02
9.460000e+02 5.944039e+02
9.470000e+02 5.295058e+02
9.480000e+02 5.069401e+02
9.490000e+02 6.562384e+02
9.500000e+02 1.325360e+02
9.510000e+02 6.973415e+02
9.520000e+02 7.344755e+02
9.530000e+02 7.471895e+02
9.540000e+02 6.795660e+02
9.550000e+02 8.154319e+02
9.560000e+02 6.374620e+02
9.570000e+02 5.407568e+02
9.580000e+02 8.632278e+02
9.590000e+02 9.412935e+02
9.600000e+02 1.971315e+02
9.610000e+02 1.008092e+03
9.620000e+02 1.043399e+03
9.630000e+02 1.079170e+03
9.640000e+02 1.611378e+02
9.650000e+02 1.069491e+03
9.660000e+02 1.195527e+03
9.670000e+02 1.226515e+03
9.680000e+02 1.262845e+03
9.690000e+02 1.317830e+03
9.700000e+02 1.366948e+03
9.710000e+02 1.397479e+03
9.720000e+02 1.361097e+03
9.730000e+02 1.383266e+03
9.740000e+02 1.549198e+03
9.750000e+02 1.615432e+03
9.760000e+02 1.675984e+03
9.770000e+02 1.734194e+03
9.780000e+02 1.789189e+03
9.790000e+02 1.854911e+03
9.800000e+02 1.916729e+03
9.810000e+02 1.980799e+03
9.820000e+02 2.039553e+03
9.830000e+02 2.116505e+03
9.840000e+02 1.067014e+03
9.850000e+02 2.257527e+03
9.860000e+02 2.331776e+03
9.870000e+02 2.412907e+03
9.880000e+02 2.443696e+03
9.890000e+02 2.277687e+03
9.900000e+02 5.073344e+02
9.910000e+02 2.710304e+03
9.920000e+02 2.462709e+03
9.930000e+02 2.793568e+03
9.940000e+02 5.617036e+02
9.950000e+02 1.119120e+03
9.960000e+02 3.089710e+03
9.970000e+02 8.001294e+02
9.980000e+02 3.431486e+03
9.990000e+02 3.478536e+03
1.000000e+03 3.664322e+03
1.001000e+03 3.784123e+03
1.002000e+03 3.904875e+03
1.003000e+03 3.923847e+03
1.004000e+03 4.096492e+03
1.005000e+03 4.123910e+03
1.006000e+03 4.428231e+03
1.007000e+03 4.565552e+03
1.008000e+03 4.707230e+03
1.009000e+03 4.815334e+03
1.010000e+03 5.014596e+03
1.011000e+03 5.172283e+03
1.012000e+03 5.333780e+03
1.013000e+03 5.500076e+03
1.014000e+03 5.262797e+03
1.015000e+03 5.680351e+03
1.016000e+03 6.002975e+03
1.017000e+03 5.794380e+03
1.018000e+03 6.378783e+03
1.019000e+03 6.447348e+03
1.020000e+03 6.784786e+03
1.021000e+03 3.618451e+03
1.022000e+03 6.367711e+03
1.023000e+03 7.143343e+03
1.024000e+03 6.879680e+03
1.025000e+03 5.590152e+03
1.026000e+03 3.149420e+03
1.027000e+03 7.360932e+03
1.028000e+03 2.264564e+03
1.029000e+03 8.264475e+03
1.030000e+03 9.047625e+03
1.031000e+03 9.424863e+03
1.032000e+03 9.712669e+03
1.033000e+03 4.126891e+03
1.034000e+03 1.035429e+04
1.035000e+03 2.506883e+03
1.036000e+03 9.688734e+03
1.037000e+03 8.202170e+03
1.038000e+03 1.168333e+04
1.039000e+03 1.196925e+04
1.040000e+03 1.239342e+04
1.041000e+03 1.261642e+04
1.042000e+03 1.312284e+04
1.043000e+03 1.294001e+04
1.044000e+03 1.393224e+04
1.045000e+03 1.433368e+04
1.046000e+03 1.477553e+04
1.047000e+03 1.519617e+04
1.048000e+03 1.546938e+04
1.049000e+03 1.568931e+04
1.050000e+03 1.656804e+04
1.051000e+03 1.703712e+04
1.052000e+03 1.756824e+04
1.053000e+03 1.804296e+04
1.054000e+03 1.731966e+04
1.055000e+03 1.892390e+04
1.056000e+03 1.969533e+04
1.057000e+03 2.025113e+04
1.058000e+03 2.081394e+04
1.059000e+03 2.132206e+04
1.060000e+03 2.181049e+04
1.061000e+03 2.267898e+04
1.062000e+03 2.327287e+04
1.063000e+03 8.519066e+03
1.064000e+03 5.959580e+03
1.065000e+03 2.407406e+04
1.066000e+03 2.013802e+04
1.067000e+03 2.653434e+04
1.068000e+03 2.762233e+04
1.069000e+03 2.750969e+04
1.070000e+03 2.913937e+04
1.071000e+03 3.002251e+04
1.072000e+03 3.086024e+04
1.073000e+03 3.054846e+04
1.074000e+03 3.257787e+04
1.075000e+03 3.346630e+04
1.076000e+03 3.443728e+04
1.077000e+03 3.481880e+04
1.078000e+03 3.629034e+04
1.079000e+03 3.729421e+04
1.080000e+03 3.837292e+04
1.081000e+03 3.944184e+04
1.082000e+03 4.050084e+04
1.083000e+03 4.161178e+04
1.084000e+03 4.276479e+04
1.085000e+03 3.368765e+04
1.086000e+03 4.510891e+04
1.087000e+03 4.603394e+04
1.088000e+03 4.745348e+04
1.089000e+03 4.884554e+04
1.090000e+03 5.004778e+04
1.091000e+03 5.135623e+04
1.092000e+03 5.285997e+04
1.093000e+03 5.423950e+04
1.094000e+03 5.570479e+04
1.095000e+03 5.718179e+04
1.096000e+03 5.857379e+04
1.097000e+03 5.970007e+04
1.098000e+03 6.149813e+04
1.099000e+03 6.341828e+04
1.100000e+03 6.330910e+04
1.101000e+03 6.120730e+04
1.102000e+03 1.310876e+05
1.103000e+03 4.063635e+05
1.104000e+03 1.603097e+05
1.105000e+03 6.887494e+04
1.106000e+03 8.701174e+05
1.107000e+03 4.925762e+05
1.108000e+03 9.154797e+05
1.109000e+03 6.487544e+05
1.110000e+03 3.456390e+05
1.111000e+03 1.544673e+05
1.112000e+03 8.991262e+05
1.113000e+03 1.025608e+06
1.114000e+03 6.120131e+04
1.115000e+03 9.386089e+05
1.116000e+03 9.360228e+05
1.117000e+03 6.591081e+04
1.118000e+03 7.822976e+05
1.119000e+03 1.137177e+06
1.120000e+03 1.015366e+06
1.121000e+03 1.133374e+06
1.122000e+03 3.002369e+04
1.123000e+03 1.554891e+05
1.124000e+03 1.257966e+06
1.125000e+03 8.423396e+05
1.126000e+03 1.314185e+06
1.127000e+03 1.296635e+06
1.128000e+03 6.727148e+05
1.129000e+03 1.353035e+06
1.130000e+03 1.288441e+06
1.131000e+03 1.447498e+06
1.132000e+03 8.678725e+04
1.133000e+03 1.253989e+06
1.134000e+03 1.469483e+06
1.135000e+03 5.706950e+04
1.136000e+03 1.525545e+06
1.137000e+03 1.623185e+06
1.138000e+03 1.636221e+06
1.139000e+03 1.650288e+06
1.140000e+03 5.836588e+04
1.141000e+03 1.754572e+06
1.142000e+03 1.785386e+06
1.143000e+03 1.815193e+06
1.144000e+03 1.859940e+06
1.145000e+03 1.252709e+06
1.146000e+03 1.933919e+06
1.147000e+03 1.943415e+06
1.148000e+03 1.801593e+06
1.149000e+03 2.041134e+06
1.150000e+03 2.062294e+06
1.151000e+03 2.112352e+06
1.152000e+03 2.165157e+06
1.153000e+03 9.742933e+05
1.154000e+03 8.396025e+05
1.155000e+03 2.216941e+06
1.156000e+03 7.572050e+05
1.157000e+03 2.372669e+06
1.158000e+03 1.008059e+05
1.159000e+03 2.151943e+06
1.160000e+03 2.478626e+06
1.161000e+03 2.567171e+06
1.162000e+03 9.670500e+05
1.163000e+03 2.599626e+06
1.164000e+03 1.227508e+05
1.165000e+03 2.769260e+06
1.166000e+03 2.821686e+06
1.167000e+03 2.872901e+06
1.168000e+03 2.960413e+06
1.169000e+03 2.952804e+06
1.170000e+03 3.083150e+06
1.171000e+03 3.154540e+06
1.172000e+03 3.185136e+06
1.173000e+03 3.294648e+06
1.174000e+03 2.916153e+06
1.175000e+03 1.542438e+05
1.176000e+03 1.403035e+05
1.177000e+03 3.578797e+06
1.178000e+03 3.605580e+06
1.179000e+03 3.724634e+06
1.180000e+03 3.151290e+06
1.181000e+03 3.866570e+06
1.182000e+03 3.968463e+06
1.183000e+03 4.034013e+06
1.184000e+03 4.104594e+06
1.185000e+03 4.174381e+06
1.186000e+03 4.101571e+06
1.187000e+03 4.332603e+06
1.188000e+03 4.355026e+06
1.189000e+03 1.972782e+05
1.190000e+03 8.626845e+05
1.191000e+03 4.530620e+06
1.192000e+03 4.592898e+06
1.193000e+03 1.899568e+05
1.194000e+03 2.296050e+05
1.195000e+03 4.093674e+06
1.196000e+03 4.793856e+06
1.197000e+03 7.628272e+06
1.198000e+03 7.397116e+06
1.199000e+03 7.491398e+06
1.200000e+03 6.614757e+06
1.201000e+03 7.056252e+06
1.202000e+03 6.938856e+06
1.203000e+03 9.208590e+06
1.204000e+03 8.010993e+06
1.205000e+03 7.611110e+06
1.206000e+03 7.230604e+06
1.207000e+03 1.011828e+06
1.208000e+03 5.195796e+06
1.209000e+03 3.946005e+06
1.210000e+03 3.320070e+05
1.211000e+03 2.319846e+06
1.212000e+03 1.533470e+06
1.213000e+03 9.794744e+05
1.214000e+03 5.903733e+05
1.215000e+03 3.821182e+05
1.216000e+03 3.491001e+05
1.217000e+03 5.321504e+05
1.218000e+03 9.151987e+05
1.219000e+03 1.556249e+06
1.220000e+03 2.459106e+06
1.221000e+03 3.618852e+06
1.222000e+03 4.985706e+06
1.223000e+03 6.537018e+06
1.224000e+03 8.265520e+06
1.225000e+03 9.669777e+06
1.226000e+03 1.211731e+07
1.227000e+03 1.400726e+07
1.228000e+03 1.597070e+07
1.229000e+03 1.850857e+07
1.230000e+03 2.023812e+07
1.231000e+03 2.188378e+07
1.232000e+03 2.538156e+07
1.233000e+03 2.765132e+07
1.234000e+03 1.573469e+07
1.235000e+03 3.206594e+07
1.236000e+03 3.218204e+07
1.237000e+03 3.639596e+07
1.238000e+03 3.839157e+07
1.239000e+03 4.029969e+07
1.240000e+03 3.696948e+07
1.241000e+03 6.078502e+07
1.242000e+03 3.864372e+07
1.243000e+03 5.645442e+07
1.244000e+03 2.567590e+07
1.245000e+03 3.782109e+07
1.246000e+03 9.113694e+07
1.247000e+03 9.365870e+07
1.248000e+03 2.758351e+07
1.249000e+03 3.613335e+07
1.250000e+03 1.061267e+08
1.251000e+03 1.142902e+08
1.252000e+03 1.166531e+08
1.253000e+03 1.230738e+08
1.254000e+03 1.253623e+08
1.255000e+03 1.279718e+08
1.256000e+03 1.312707e+08
1.257000e+03 1.366294e+08
1.258000e+03 1.332882e+08
1.259000e+03 1.393367e+08
1.260000e+03 1.169705e+08
1.261000e+03 9.491375e+05
1.262000e+03 1.807932e+07
1.263000e+03 1.541301e+08
1.264000e+03 1.397216e+08
1.265000e+03 9.986460e+05
1.266000e+03 1.670059e+08
1.267000e+03 1.706186e+08
