# wavelength_A flux
5.000000e+02 8.770246e-29
5.010000e+02 1.093189e-28
5.020000e+02 1.361413e-28
5.030000e+02 1.693942e-28
5.040000e+02 2.105828e-28
5.050000e+02 2.678059e-28
5.060000e+02 3.321655e-28
5.070000e+02 4.115260e-28
5.080000e+02 5.095986e-28
5.090000e+02 6.303879e-28
5.100000e+02 7.608555e-28
5.110000e+02 9.622304e-28
5.120000e+02 1.187037e-27
5.130000e+02 1.463889e-27
5.140000e+02 1.803385e-27
5.150000e+02 2.219784e-27
5.160000e+02 2.730095e-27
5.170000e+02 3.355156e-27
5.180000e+02 4.119925e-27
5.190000e+02 5.054977e-27
5.200000e+02 6.197327e-27
5.210000e+02 7.591823e-27
5.220000e+02 9.291517e-27
5.230000e+02 1.136605e-26
5.240000e+02 1.389121e-26
5.250000e+02 1.696415e-26
5.260000e+02 2.070097e-26
5.270000e+02 2.524163e-26
5.280000e+02 3.075491e-26
5.290000e+02 3.744408e-26
5.300000e+02 4.555399e-26
5.310000e+02 5.537897e-26
5.320000e+02 6.727296e-26
5.330000e+02 8.166110e-26
5.340000e+02 9.905367e-26
5.350000e+02 1.200627e-25
5.360000e+02 1.454209e-25
5.370000e+02 1.746765e-25
5.380000e+02 2.128778e-25
5.390000e+02 2.572877e-25
5.400000e+02 3.107388e-25
5.410000e+02 3.750195e-25
5.420000e+02 4.523000e-25
5.430000e+02 5.451110e-25
5.440000e+02 6.565091e-25
5.450000e+02 7.901245e-25
5.460000e+02 9.502783e-25
5.470000e+02 1.142112e-24
5.480000e+02 1.371735e-24
5.490000e+02 1.646406e-24
5.500000e+02 1.974743e-24
5.510000e+02 2.366971e-24
5.520000e+02 2.835209e-24
5.530000e+02 3.393821e-24
5.540000e+02 4.059812e-24
5.550000e+02 4.853302e-24
5.560000e+02 5.798089e-24
5.570000e+02 6.922294e-24
5.580000e+02 8.259128e-24
5.590000e+02 9.847793e-24
5.600000e+02 1.173453e-23
5.610000e+02 1.397384e-23
5.620000e+02 1.662995e-23
5.630000e+02 1.977845e-23
5.640000e+02 2.350831e-23
5.650000e+02 2.792413e-23
5.660000e+02 3.314886e-23
5.670000e+02 3.932687e-23
5.680000e+02 4.662767e-23
5.690000e+02 5.525005e-23
5.700000e+02 6.542711e-23
5.710000e+02 7.743198e-23
5.720000e+02 9.158446e-23
5.730000e+02 1.082589e-22
5.740000e+02 1.278929e-22
5.750000e+02 1.509985e-22
5.760000e+02 1.781731e-22
5.770000e+02 2.101173e-22
5.780000e+02 2.476420e-22
5.790000e+02 2.916988e-22
5.800000e+02 3.433953e-22
5.810000e+02 4.040217e-22
5.820000e+02 4.750798e-22
5.830000e+02 5.583162e-22
5.840000e+02 6.557057e-22
5.850000e+02 7.697824e-22
5.860000e+02 9.031499e-22
5.870000e+02 1.059014e-21
5.880000e+02 1.241087e-21
5.890000e+02 1.453661e-21
5.900000e+02 1.701711e-21
5.910000e+02 1.991001e-21
5.920000e+02 2.328205e-21
5.930000e+02 2.721049e-21
5.940000e+02 3.178470e-21
5.950000e+02 3.710800e-21
5.960000e+02 4.329980e-21
5.970000e+02 5.049800e-21
5.980000e+02 5.886183e-21
5.990000e+02 6.857497e-21
6.000000e+02 7.984927e-21
6.010000e+02 9.292891e-21
6.020000e+02 1.080952e-20
6.030000e+02 1.256721e-20
6.040000e+02 1.460324e-20
6.050000e+02 1.696050e-20
6.060000e+02 1.968829e-20
6.070000e+02 2.284330e-20
6.080000e+02 2.649059e-20
6.090000e+02 3.070492e-20
6.100000e+02 3.557203e-20
6.110000e+02 4.119028e-20
6.120000e+02 4.767243e-20
6.130000e+02 5.514771e-20
6.140000e+02 6.376410e-20
6.150000e+02 7.369103e-20
6.160000e+02 8.512235e-20
6.170000e+02 9.827980e-20
6.180000e+02 1.134168e-19
6.190000e+02 1.308231e-19
6.200000e+02 1.508295e-19
6.210000e+02 1.738135e-19
6.220000e+02 2.002062e-19
6.230000e+02 2.304990e-19
6.240000e+02 2.652523e-19
6.250000e+02 3.051048e-19
6.260000e+02 3.507836e-19
6.270000e+02 4.031169e-19
6.280000e+02 4.630472e-19
6.290000e+02 5.316464e-19
6.300000e+02 6.101332e-19
6.310000e+02 6.998433e-19
6.320000e+02 8.025002e-19
6.330000e+02 9.197410e-19
6.340000e+02 1.053644e-18
6.350000e+02 1.206509e-18
6.360000e+02 1.380952e-18
6.370000e+02 1.579925e-18
6.380000e+02 1.806782e-18
6.390000e+02 2.065322e-18
6.400000e+02 2.359844e-18
6.410000e+02 2.695211e-18
6.420000e+02 3.076930e-18
6.430000e+02 3.511222e-18
6.440000e+02 4.005124e-18
6.450000e+02 4.566582e-18
6.460000e+02 5.204574e-18
6.470000e+02 5.929232e-18
6.480000e+02 6.751993e-18
6.490000e+02 7.685756e-18
6.500000e+02 8.745066e-18
6.510000e+02 9.946318e-18
6.520000e+02 1.130798e-17
6.530000e+02 1.285087e-17
6.540000e+02 1.459838e-17
6.550000e+02 1.657689e-17
6.560000e+02 1.881604e-17
6.570000e+02 2.134917e-17
6.580000e+02 2.421375e-17
6.590000e+02 2.745189e-17
6.600000e+02 3.111089e-17
6.610000e+02 3.524384e-17
6.620000e+02 3.991036e-17
6.630000e+02 4.517730e-17
6.640000e+02 5.111965e-17
6.650000e+02 5.782149e-17
6.660000e+02 6.537705e-17
6.670000e+02 7.389185e-17
6.680000e+02 8.348410e-17
6.690000e+02 9.428611e-17
6.700000e+02 1.064460e-16
6.710000e+02 1.201293e-16
6.720000e+02 1.355213e-16
6.730000e+02 1.528290e-16
6.740000e+02 1.722839e-16
6.750000e+02 1.941442e-16
6.760000e+02 2.186986e-16
6.770000e+02 2.462693e-16
6.780000e+02 2.772156e-16
6.790000e+02 3.119385e-16
6.800000e+02 3.508851e-16
6.810000e+02 3.945538e-16
6.820000e+02 4.434998e-16
6.830000e+02 4.983419e-16
6.840000e+02 5.597688e-16
6.850000e+02 6.285473e-16
6.860000e+02 7.055309e-16
6.870000e+02 7.916685e-16
6.880000e+02 8.880160e-16
6.890000e+02 9.957466e-16
6.900000e+02 1.116165e-15
6.910000e+02 1.250719e-15
6.920000e+02 1.401018e-15
6.930000e+02 1.568849e-15
6.940000e+02 1.756193e-15
6.950000e+02 1.965252e-15
6.960000e+02 2.198463e-15
6.970000e+02 2.458532e-15
6.980000e+02 2.748459e-15
6.990000e+02 3.071564e-15
7.000000e+02 3.431528e-15
7.010000e+02 3.832426e-15
7.020000e+02 4.278770e-15
7.030000e+02 4.775553e-15
7.040000e+02 5.328298e-15
7.050000e+02 5.943114e-15
7.060000e+02 6.626750e-15
7.070000e+02 7.386687e-15
7.080000e+02 8.231159e-15
7.090000e+02 9.169282e-15
7.100000e+02 1.021112e-14
7.110000e+02 1.136778e-14
7.120000e+02 1.265152e-14
7.130000e+02 1.407587e-14
7.140000e+02 1.565574e-14
7.150000e+02 1.740759e-14
7.160000e+02 1.934955e-14
7.170000e+02 2.150159e-14
7.180000e+02 2.388574e-14
7.190000e+02 2.652623e-14
7.200000e+02 2.944975e-14
7.210000e+02 3.268569e-14
7.220000e+02 3.626637e-14
7.230000e+02 4.022735e-14
7.240000e+02 4.460776e-14
7.250000e+02 4.945058e-14
7.260000e+02 5.480307e-14
7.270000e+02 6.071718e-14
7.280000e+02 6.724994e-14
7.290000e+02 7.446399e-14
7.300000e+02 8.242814e-14
7.310000e+02 9.121785e-14
7.320000e+02 1.009160e-13
7.330000e+02 1.116134e-13
7.340000e+02 1.234097e-13
7.350000e+02 1.364142e-13
7.360000e+02 1.507467e-13
7.370000e+02 1.665383e-13
7.380000e+02 1.839328e-13
7.390000e+02 2.030877e-13
7.400000e+02 2.241753e-13
7.410000e+02 2.473843e-13
7.420000e+02 2.729212e-13
7.430000e+02 3.010118e-13
7.440000e+02 3.319034e-13
7.450000e+02 3.658659e-13
7.460000e+02 4.031947e-13
7.470000e+02 4.442126e-13
7.480000e+02 4.892722e-13
7.490000e+02 5.387587e-13
7.500000e+02 5.930928e-13
7.510000e+02 6.527336e-13
7.520000e+02 7.181825e-13
7.530000e+02 7.899864e-13
7.540000e+02 8.687420e-13
7.550000e+02 9.551000e-13
7.560000e+02 1.049770e-12
7.570000e+02 1.153526e-12
7.580000e+02 1.267210e-12
7.590000e+02 1.391742e-12
7.600000e+02 1.528122e-12
7.610000e+02 1.677438e-12
7.620000e+02 1.840879e-12
7.630000e+02 2.019735e-12
7.640000e+02 2.215411e-12
7.650000e+02 2.429437e-12
7.660000e+02 2.663475e-12
7.670000e+02 2.919334e-12
7.680000e+02 3.198979e-12
7.690000e+02 3.504549e-12
7.700000e+02 3.838365e-12
7.710000e+02 4.202951e-12
7.720000e+02 4.601046e-12
7.730000e+02 5.035626e-12
7.740000e+02 5.509923e-12
7.750000e+02 6.027442e-12
7.760000e+02 6.591989e-12
7.770000e+02 7.207692e-12
7.780000e+02 7.879029e-12
7.790000e+02 8.610855e-12
7.800000e+02 9.408435e-12
7.810000e+02 1.027748e-11
7.820000e+02 1.122416e-11
7.830000e+02 1.225518e-11
7.840000e+02 1.337781e-11
7.850000e+02 1.459989e-11
7.860000e+02 1.592994e-11
7.870000e+02 1.737717e-11
7.880000e+02 1.895154e-11
7.890000e+02 2.066384e-11
7.900000e+02 2.252573e-11
7.910000e+02 2.454983e-11
7.920000e+02 2.674979e-11
7.930000e+02 2.914035e-11
7.940000e+02 3.173745e-11
7.950000e+02 3.455832e-11
7.960000e+02 3.762157e-11
7.970000e+02 4.094729e-11
7.980000e+02 4.455720e-11
7.990000e+02 4.847472e-11
8.000000e+02 5.272515e-11
8.010000e+02 5.733579e-11
8.020000e+02 6.233609e-11
8.030000e+02 6.775785e-11
8.040000e+02 7.363531e-11
8.050000e+02 8.000536e-11
8.060000e+02 8.690809e-11
8.070000e+02 9.438620e-11
8.080000e+02 1.024860e-10
8.090000e+02 1.112575e-10
8.100000e+02 1.207542e-10
8.110000e+02 1.310341e-10
8.120000e+02 1.421595e-10
8.130000e+02 1.541973e-10
8.140000e+02 1.672198e-10
8.150000e+02 1.813047e-10
8.160000e+02 1.965356e-10
8.170000e+02 2.130022e-10
8.180000e+02 2.308014e-10
8.190000e+02 2.500370e-10
8.200000e+02 2.708209e-10
8.210000e+02 2.932732e-10
8.220000e+02 3.175231e-10
8.230000e+02 3.437091e-10
8.240000e+02 3.719804e-10
8.250000e+02 4.024971e-10
8.260000e+02 4.354309e-10
8.270000e+02 4.709665e-10
8.280000e+02 5.093019e-10
8.290000e+02 5.506497e-10
8.300000e+02 5.952380e-10
8.310000e+02 6.433117e-10
8.320000e+02 6.951331e-10
8.330000e+02 7.509838e-10
8.340000e+02 8.111656e-10
8.350000e+02 8.760023e-10
8.360000e+02 9.458405e-10
8.370000e+02 1.021052e-09
8.380000e+02 1.102035e-09
8.390000e+02 1.189217e-09
8.400000e+02 1.283053e-09
8.410000e+02 1.384034e-09
8.420000e+02 1.492683e-09
8.430000e+02 1.609562e-09
8.440000e+02 1.735270e-09
8.450000e+02 1.870450e-09
8.460000e+02 2.015789e-09
8.470000e+02 2.172022e-09
8.480000e+02 2.339936e-09
8.490000e+02 2.520371e-09
8.500000e+02 2.714227e-09
8.510000e+02 2.922464e-09
8.520000e+02 3.146109e-09
8.530000e+02 3.386260e-09
8.540000e+02 3.644089e-09
8.550000e+02 3.920850e-09
8.560000e+02 4.217880e-09
8.570000e+02 4.536608e-09
8.580000e+02 4.878558e-09
8.590000e+02 5.245361e-09
8.600000e+02 5.638754e-09
8.610000e+02 6.060591e-09
8.620000e+02 6.512852e-09
8.630000e+02 6.997647e-09
8.640000e+02 7.517230e-09
8.650000e+02 8.074000e-09
8.660000e+02 8.670519e-09
8.670000e+02 9.309518e-09
8.680000e+02 9.993905e-09
8.690000e+02 1.072678e-08
8.700000e+02 1.151145e-08
8.710000e+02 1.235144e-08
8.720000e+02 1.325050e-08
8.730000e+02 1.421261e-08
8.740000e+02 1.524204e-08
8.750000e+02 1.634331e-08
8.760000e+02 1.752124e-08
8.770000e+02 1.878097e-08
8.780000e+02 2.012795e-08
8.790000e+02 2.156801e-08
8.800000e+02 2.310731e-08
8.810000e+02 2.475244e-08
8.820000e+02 2.651039e-08
8.830000e+02 2.838860e-08
8.840000e+02 3.039497e-08
8.850000e+02 3.253791e-08
8.860000e+02 3.482636e-08
8.870000e+02 3.726981e-08
8.880000e+02 3.987835e-08
8.890000e+02 4.266271e-08
8.900000e+02 4.563425e-08
8.910000e+02 4.880509e-08
8.920000e+02 5.218806e-08
8.930000e+02 5.579679e-08
8.940000e+02 5.964577e-08
8.950000e+02 6.375036e-08
8.960000e+02 6.812687e-08
8.970000e+02 7.279259e-08
8.980000e+02 7.776590e-08
8.990000e+02 8.306625e-08
9.000000e+02 8.871432e-08
9.010000e+02 9.473202e-08
9.020000e+02 1.011426e-07
9.030000e+02 1.079706e-07
9.040000e+02 1.152422e-07
9.050000e+02 1.229851e-07
9.060000e+02 1.312285e-07
9.070000e+02 1.400037e-07
9.080000e+02 1.493434e-07
9.090000e+02 1.592826e-07
9.100000e+02 1.698581e-07
9.110000e+02 1.811092e-07
9.120000e+02 1.930772e-07
9.130000e+02 2.058060e-07
9.140000e+02 2.294819e-07
9.150000e+02 6.935152e-05
9.160000e+02 2.864403e-04
9.170000e+02 4.147417e-06
9.180000e+02 9.043240e-05
9.190000e+02 8.193122e-04
9.200000e+02 2.092316e-03
9.210000e+02 3.412038e-07
9.220000e+02 3.271348e-04
9.230000e+02 5.794841e-06
9.240000e+02 6.918563e-06
9.250000e+02 5.224808e-05
9.260000e+02 1.168264e-04
9.270000e+02 5.642281e-06
9.280000e+02 7.742731e-03
9.290000e+02 1.030386e-02
9.300000e+02 2.501447e-03
9.310000e+02 7.802352e-06
9.320000e+02 8.446269e-03
9.330000e+02 2.609352e-04
9.340000e+02 8.099526e-05
9.350000e+02 4.117199e-05
9.360000e+02 1.494486e-05
9.370000e+02 4.801213e-06
9.380000e+02 2.512387e-05
9.390000e+02 4.020750e-05
9.400000e+02 2.646428e-03
9.410000e+02 4.575898e-04
9.420000e+02 2.969218e-02
9.430000e+02 5.812524e-05
9.440000e+02 3.482330e-02
9.450000e+02 2.417006e-02
9.460000e+02 8.084169e-04
9.470000e+02 2.926259e-06
9.480000e+02 7.082550e-03
9.490000e+02 1.422008e-03
9.500000e+02 5.180877e-05
9.510000e+02 7.580181e-04
9.520000e+02 1.466294e-03
9.530000e+02 1.414558e-05
9.540000e+02 3.616698e-06
9.550000e+02 1.493115e-04
9.560000e+02 2.268034e-02
9.570000e+02 8.255069e-05
9.580000e+02 3.225548e-06
9.590000e+02 6.414669e-03
9.600000e+02 9.459656e-05
9.610000e+02 1.063758e-03
9.620000e+02 4.122766e-04
9.630000e+02 1.018224e-04
9.640000e+02 2.206353e-05
9.650000e+02 8.860603e-06
9.660000e+02 1.611635e-04
9.670000e+02 3.246660e-05
9.680000e+02 2.221204e-05
9.690000e+02 9.303233e-04
9.700000e+02 1.014089e-03
9.710000e+02 4.731876e-05
9.720000e+02 2.846000e-05
9.730000e+02 4.202796e-04
9.740000e+02 1.246124e-03
9.750000e+02 3.252105e-04
9.760000e+02 9.751603e-03
9.770000e+02 4.330821e-03
9.780000e+02 1.633022e-03
9.790000e+02 1.042380e-01
9.800000e+02 7.902353e-02
9.810000e+02 1.153540e-03
9.820000e+02 2.310798e-04
9.830000e+02 3.403861e-02
9.840000e+02 5.919026e-03
9.850000e+02 5.752784e-04
9.860000e+02 9.188324e-04
9.870000e+02 3.889284e-02
9.880000e+02 2.690405e-05
9.890000e+02 5.241551e-03
9.900000e+02 1.723712e-02
9.910000e+02 2.269719e-04
9.920000e+02 2.109809e-05
9.930000e+02 2.029540e-01
9.940000e+02 6.359653e-05
9.950000e+02 8.793120e-03
9.960000e+02 8.044019e-05
9.970000e+02 1.213973e-02
9.980000e+02 1.836135e-02
9.990000e+02 4.248384e-04
1.000000e+03 3.749569e-01
1.001000e+03 2.639423e-01
1.002000e+03 1.200745e-01
1.003000e+03 4.453659e-04
1.004000e+03 5.194545e-05
1.005000e+03 1.420170e-03
1.006000e+03 6.741449e-02
1.007000e+03 1.522237e-01
1.008000e+03 3.077096e-02
1.009000e+03 7.094408e-04
1.010000e+03 3.316801e-02
1.011000e+03 5.792419e-02
1.012000e+03 4.408592e-02
1.013000e+03 3.902317e-02
1.014000e+03 6.659515e-05
1.015000e+03 8.942932e-05
1.016000e+03 1.801416e-03
1.017000e+03 7.716566e-05
1.018000e+03 6.905943e-04
1.019000e+03 9.775162e-05
1.020000e+03 1.185895e-01
1.021000e+03 1.174405e-03
1.022000e+03 1.735315e-03
1.023000e+03 1.607835e-04
1.024000e+03 3.864551e-02
1.025000e+03 1.154623e-04
1.026000e+03 2.642845e-04
1.027000e+03 7.054965e-03
1.028000e+03 1.833584e-03
1.029000e+03 1.412518e-04
1.030000e+03 7.301778e-03
1.031000e+03 1.155737e-02
1.032000e+03 1.457038e-01
1.033000e+03 1.335570e-02
1.034000e+03 1.631853e-02
1.035000e+03 1.301005e-03
1.036000e+03 2.010763e-04
1.037000e+03 1.041974e-01
1.038000e+03 7.838975e-01
1.039000e+03 1.074758e-01
1.040000e+03 1.167194e-01
1.041000e+03 1.034939e+00
1.042000e+03 3.942308e-01
1.043000e+03 4.355927e-01
1.044000e+03 3.617769e+00
1.045000e+03 9.008241e-04
1.046000e+03 1.165283e-01
1.047000e+03 3.715557e-02
1.048000e+03 1.137175e-03
1.049000e+03 3.970972e-02
1.050000e+03 1.350985e-02
1.051000e+03 7.602274e-03
1.052000e+03 4.753644e-01
1.053000e+03 1.104363e+00
1.054000e+03 4.738569e-04
1.055000e+03 1.514677e+00
1.056000e+03 1.609249e+00
1.057000e+03 1.043378e-01
1.058000e+03 7.846542e-03
1.059000e+03 6.122231e-03
1.060000e+03 1.808822e-03
1.061000e+03 1.664872e-01
1.062000e+03 4.333691e-03
1.063000e+03 1.621072e-01
1.064000e+03 1.738548e-03
1.065000e+03 7.922053e-04
1.066000e+03 2.429023e-01
1.067000e+03 4.764504e-03
1.068000e+03 4.579928e+00
1.069000e+03 1.576310e-03
1.070000e+03 6.198597e-02
1.071000e+03 9.323440e-01
1.072000e+03 2.741250e+00
1.073000e+03 1.164913e-03
1.074000e+03 1.151728e-01
1.075000e+03 6.859112e-02
1.076000e+03 3.181382e+00
1.077000e+03 6.629199e-03
1.078000e+03 1.077223e-02
1.079000e+03 4.520795e-02
1.080000e+03 1.541584e-01
1.081000e+03 6.023302e-01
1.082000e+03 3.548012e-01
1.083000e+03 1.953573e-01
1.084000e+03 1.167256e+01
1.085000e+03 5.570865e-02
1.086000e+03 5.994857e+00
1.087000e+03 1.226044e-02
1.088000e+03 1.758035e+01
1.089000e+03 1.733555e+01
1.090000e+03 4.457143e-02
1.091000e+03 6.212425e-02
1.092000e+03 9.215762e+00
1.093000e+03 1.268836e+01
1.094000e+03 5.227193e-01
1.095000e+03 2.460327e+01
1.096000e+03 3.018282e+00
1.097000e+03 2.051220e+00
1.098000e+03 1.835730e+01
1.099000e+03 1.640224e-01
1.100000e+03 5.366743e-03
1.101000e+03 1.147107e-02
1.102000e+03 1.030831e-01
1.103000e+03 1.362131e+01
1.104000e+03 3.081499e+01
1.105000e+03 1.986796e+01
1.106000e+03 4.618521e-01
1.107000e+03 7.863998e-03
1.108000e+03 2.740936e+00
1.109000e+03 6.208229e-02
1.110000e+03 3.639334e+01
1.111000e+03 9.368249e+00
1.112000e+03 1.263490e+00
1.113000e+03 2.178299e+01
1.114000e+03 7.888884e-01
1.115000e+03 8.377445e-02
1.116000e+03 3.786483e-02
1.117000e+03 9.738442e+00
1.118000e+03 1.020776e-01
1.119000e+03 1.576484e+00
1.120000e+03 4.855967e-02
1.121000e+03 6.360327e+00
1.122000e+03 5.042334e+01
1.123000e+03 1.408638e+01
1.124000e+03 1.626075e+01
1.125000e+03 6.580825e+00
1.126000e+03 1.218801e+02
1.127000e+03 9.825543e+00
1.128000e+03 5.341649e+01
1.129000e+03 4.186741e+00
1.130000e+03 2.729124e+01
1.131000e+03 5.291522e+01
1.132000e+03 8.896554e-02
1.133000e+03 4.759293e-01
1.134000e+03 4.886662e+00
1.135000e+03 4.116645e+01
1.136000e+03 1.020105e+00
1.137000e+03 1.957376e+01
1.138000e+03 4.131023e+00
1.139000e+03 5.253966e+01
1.140000e+03 5.564536e+01
1.141000e+03 4.001268e+01
1.142000e+03 7.577846e+01
1.143000e+03 6.263687e+00
1.144000e+03 7.031537e+01
1.145000e+03 5.288506e-02
1.146000e+03 8.863046e+01
1.147000e+03 5.179891e+01
1.148000e+03 3.113976e-01
1.149000e+03 2.251923e+01
1.150000e+03 1.386657e+01
1.151000e+03 7.826840e+01
1.152000e+03 3.444775e+01
1.153000e+03 5.448872e+01
1.154000e+03 9.554146e+01
1.155000e+03 1.958904e+01
1.156000e+03 7.683353e+01
1.157000e+03 8.926575e+01
1.158000e+03 7.205780e+00
1.159000e+03 6.870405e+01
1.160000e+03 8.689894e+00
1.161000e+03 5.611488e+01
1.162000e+03 1.284405e+00
1.163000e+03 4.077187e+00
1.164000e+03 5.860891e-01
1.165000e+03 2.654128e+01
1.166000e+03 1.520494e+01
1.167000e+03 1.415550e+01
1.168000e+03 8.886508e+01
1.169000e+03 1.014994e+02
1.170000e+03 1.008908e+01
1.171000e+03 4.030481e+01
1.172000e+03 1.324923e+01
1.173000e+03 3.944999e+01
1.174000e+03 2.824678e-01
1.175000e+03 3.573313e-01
1.176000e+03 1.278071e-01
1.177000e+03 1.254290e+02
1.178000e+03 1.231681e+02
1.179000e+03 9.104643e+01
1.180000e+03 2.843657e+01
1.181000e+03 1.092037e+02
1.182000e+03 8.078100e+01
1.183000e+03 3.098102e+01
1.184000e+03 2.447197e+01
1.185000e+03 3.336708e+01
1.186000e+03 1.350495e+00
1.187000e+03 5.581387e+01
1.188000e+03 1.809017e+01
1.189000e+03 8.943845e+01
1.190000e+03 8.280551e+01
1.191000e+03 4.979517e+01
1.192000e+03 6.693365e+01
1.193000e+03 4.242303e+01
1.194000e+03 6.391177e+01
1.195000e+03 6.002643e+01
1.196000e+03 2.071884e+02
1.197000e+03 5.676908e+02
1.198000e+03 3.816315e+00
1.199000e+03 5.267778e+02
1.200000e+03 1.092088e+01
1.201000e+03 3.754851e+02
1.202000e+03 5.925947e+01
1.203000e+03 2.252204e+02
1.204000e+03 1.119538e+01
1.205000e+03 1.522112e+02
1.206000e+03 1.640416e+02
1.207000e+03 4.531779e+01
1.208000e+03 9.467378e+01
1.209000e+03 9.644722e+01
1.210000e+03 5.855446e-01
1.211000e+03 4.106417e+01
1.212000e+03 1.624173e+01
1.213000e+03 1.155906e+01
1.214000e+03 3.824980e+00
1.215000e+03 5.622429e-01
1.216000e+03 3.483688e-01
1.217000e+03 2.432803e+00
1.218000e+03 9.716992e+00
1.219000e+03 2.323887e+01
1.220000e+03 1.168985e+01
1.221000e+03 7.583981e+01
1.222000e+03 8.229890e+01
1.223000e+03 7.408497e+01
1.224000e+03 2.244748e+02
1.225000e+03 6.262909e+00
1.226000e+03 4.257802e+02
1.227000e+03 4.371612e+02
1.228000e+03 3.906033e+01
1.229000e+03 3.380258e+02
1.230000e+03 2.216145e+02
1.231000e+03 2.337280e+01
1.232000e+03 1.141033e+03
1.233000e+03 1.336957e+03
1.234000e+03 1.284825e+03
1.235000e+03 9.141726e+02
1.236000e+03 5.893411e+01
1.237000e+03 1.563335e+03
1.238000e+03 1.144826e+03
1.239000e+03 3.777196e+02
1.240000e+03 9.765259e+02
1.241000e+03 3.975071e+02
1.242000e+03 9.883975e+02
1.243000e+03 2.140874e+03
1.244000e+03 2.511025e+03
1.245000e+03 1.924765e+03
1.246000e+03 8.305802e+02
1.247000e+03 1.346107e+03
1.248000e+03 2.465705e+03
1.249000e+03 3.312775e+03
1.250000e+03 1.826333e+03
1.251000e+03 2.980040e+03
1.252000e+03 1.681843e+03
1.253000e+03 3.382161e+03
1.254000e+03 1.893768e+03
1.255000e+03 1.256592e+03
1.256000e+03 1.437312e+03
1.257000e+03 2.185959e+03
1.258000e+03 5.589463e+02
1.259000e+03 1.017126e+03
1.260000e+03 3.308168e+03
1.261000e+03 1.735884e+02
1.262000e+03 3.976483e+03
1.263000e+03 2.495490e+03
1.264000e+03 7.683237e+02
1.265000e+03 9.241465e+02
1.266000e+03 3.562360e+03
1.267000e+03 1.231523e+03
