# wavelength_A flux
5.000000e+02 6.866362e-44
5.010000e+02 9.248570e-44
5.020000e+02 1.219130e-43
5.030000e+02 1.639519e-43
5.040000e+02 2.172013e-43
5.050000e+02 2.900688e-43
5.060000e+02 3.839558e-43
5.070000e+02 5.100726e-43
5.080000e+02 6.768272e-43
5.090000e+02 8.954297e-43
5.100000e+02 1.184097e-42
5.110000e+02 1.565250e-42
5.120000e+02 2.064113e-42
5.130000e+02 2.721322e-42
5.140000e+02 3.583120e-42
5.150000e+02 4.713968e-42
5.160000e+02 6.192338e-42
5.170000e+02 8.127531e-42
5.180000e+02 1.065547e-41
5.190000e+02 1.395553e-41
5.200000e+02 1.825752e-41
5.210000e+02 2.386131e-41
5.220000e+02 3.115086e-41
5.230000e+02 4.062645e-41
5.240000e+02 5.292985e-41
5.250000e+02 6.888783e-41
5.260000e+02 8.956679e-41
5.270000e+02 1.163344e-40
5.280000e+02 1.509479e-40
5.290000e+02 1.956661e-40
5.300000e+02 2.533786e-40
5.310000e+02 3.277889e-40
5.320000e+02 4.236321e-40
5.330000e+02 5.469646e-40
5.340000e+02 7.055145e-40
5.350000e+02 9.091428e-40
5.360000e+02 1.170415e-39
5.370000e+02 1.505279e-39
5.380000e+02 1.934236e-39
5.390000e+02 2.482996e-39
5.400000e+02 3.184440e-39
5.410000e+02 4.080218e-39
5.420000e+02 5.223110e-39
5.430000e+02 6.679941e-39
5.440000e+02 8.535242e-39
5.450000e+02 1.089585e-38
5.460000e+02 1.389667e-38
5.470000e+02 1.770790e-38
5.480000e+02 2.254404e-38
5.490000e+02 2.867525e-38
5.500000e+02 3.644145e-38
5.510000e+02 4.626996e-38
5.520000e+02 5.869753e-38
5.530000e+02 7.439773e-38
5.540000e+02 9.421517e-38
5.550000e+02 1.192080e-37
5.560000e+02 1.507007e-37
5.570000e+02 1.903499e-37
5.580000e+02 2.402258e-37
5.590000e+02 3.029130e-37
5.600000e+02 3.816362e-37
5.610000e+02 4.804152e-37
5.620000e+02 6.042564e-37
5.630000e+02 7.593904e-37
5.640000e+02 9.535647e-37
5.650000e+02 1.196406e-36
5.660000e+02 1.499863e-36
5.670000e+02 1.878763e-36
5.680000e+02 2.351479e-36
5.690000e+02 2.940768e-36
5.700000e+02 3.674795e-36
5.710000e+02 4.588385e-36
5.720000e+02 5.724568e-36
5.730000e+02 7.136473e-36
5.740000e+02 8.889644e-36
5.750000e+02 1.106488e-35
5.760000e+02 1.376171e-35
5.770000e+02 1.710264e-35
5.780000e+02 2.123836e-35
5.790000e+02 2.635404e-35
5.800000e+02 3.267713e-35
5.810000e+02 4.048673e-35
5.820000e+02 5.012509e-35
5.830000e+02 6.201162e-35
5.840000e+02 7.665987e-35
5.850000e+02 9.469826e-35
5.860000e+02 1.168951e-34
5.870000e+02 1.441892e-34
5.880000e+02 1.777268e-34
5.890000e+02 2.189063e-34
5.900000e+02 2.694329e-34
5.910000e+02 3.313841e-34
5.920000e+02 4.072891e-34
5.930000e+02 5.002253e-34
5.940000e+02 6.139341e-34
5.950000e+02 7.529614e-34
5.960000e+02 9.228266e-34
5.970000e+02 1.130226e-33
5.980000e+02 1.383280e-33
5.990000e+02 1.691827e-33
6.000000e+02 2.067779e-33
6.010000e+02 2.525551e-33
6.020000e+02 3.082576e-33
6.030000e+02 3.759918e-33
6.040000e+02 4.583016e-33
6.050000e+02 5.582569e-33
6.060000e+02 6.795606e-33
6.070000e+02 8.266754e-33
6.080000e+02 1.004977e-32
6.090000e+02 1.220935e-32
6.100000e+02 1.482334e-32
6.110000e+02 1.798531e-32
6.120000e+02 2.180769e-32
6.130000e+02 2.642546e-32
6.140000e+02 3.200059e-32
6.150000e+02 3.872730e-32
6.160000e+02 4.683837e-32
6.170000e+02 5.661257e-32
6.180000e+02 6.838360e-32
6.190000e+02 8.255060e-32
6.200000e+02 9.959077e-32
6.210000e+02 1.200742e-31
6.220000e+02 1.446818e-31
6.230000e+02 1.742257e-31
6.240000e+02 2.096749e-31
6.250000e+02 2.521841e-31
6.260000e+02 3.031288e-31
6.270000e+02 3.641467e-31
6.280000e+02 4.371860e-31
6.290000e+02 5.245637e-31
6.300000e+02 6.290333e-31
6.310000e+02 7.538648e-31
6.320000e+02 9.029404e-31
6.330000e+02 1.080866e-30
6.340000e+02 1.293101e-30
6.350000e+02 1.546118e-30
6.360000e+02 1.847580e-30
6.370000e+02 2.206560e-30
6.380000e+02 2.633790e-30
6.390000e+02 3.141959e-30
6.400000e+02 3.746065e-30
6.410000e+02 4.463818e-30
6.420000e+02 5.316124e-30
6.430000e+02 6.327651e-30
6.440000e+02 7.527482e-30
6.450000e+02 8.949894e-30
6.460000e+02 1.063526e-29
6.470000e+02 1.263111e-29
6.480000e+02 1.499337e-29
6.490000e+02 1.778780e-29
6.500000e+02 2.109172e-29
6.510000e+02 2.499592e-29
6.520000e+02 2.960703e-29
6.530000e+02 3.505018e-29
6.540000e+02 4.147214e-29
6.550000e+02 4.904498e-29
6.560000e+02 5.797029e-29
6.570000e+02 6.848419e-29
6.580000e+02 8.086305e-29
6.590000e+02 9.543023e-29
6.600000e+02 1.125638e-28
6.610000e+02 1.327057e-28
6.620000e+02 1.563722e-28
6.630000e+02 1.841661e-28
6.640000e+02 2.167907e-28
6.650000e+02 2.550667e-28
6.660000e+02 2.999507e-28
6.670000e+02 3.525576e-28
6.680000e+02 4.141859e-28
6.690000e+02 4.863472e-28
6.700000e+02 5.708008e-28
6.710000e+02 6.695924e-28
6.720000e+02 7.851008e-28
6.730000e+02 9.200895e-28
6.740000e+02 1.077769e-27
6.750000e+02 1.261864e-27
6.760000e+02 1.476700e-27
6.770000e+02 1.727291e-27
6.780000e+02 2.019451e-27
6.790000e+02 2.359915e-27
6.800000e+02 2.756486e-27
6.810000e+02 3.218195e-27
6.820000e+02 3.755494e-27
6.830000e+02 4.380470e-27
6.840000e+02 5.107099e-27
6.850000e+02 5.951530e-27
6.860000e+02 6.932414e-27
6.870000e+02 8.071290e-27
6.880000e+02 9.393009e-27
6.890000e+02 1.092624e-26
6.900000e+02 1.270404e-26
6.910000e+02 1.476451e-26
6.920000e+02 1.715153e-26
6.930000e+02 1.991565e-26
6.940000e+02 2.311503e-26
6.950000e+02 2.681661e-26
6.960000e+02 3.109734e-26
6.970000e+02 3.604572e-26
6.980000e+02 4.176340e-26
6.990000e+02 4.836717e-26
7.000000e+02 5.599109e-26
7.010000e+02 6.478900e-26
7.020000e+02 7.493742e-26
7.030000e+02 8.663870e-26
7.040000e+02 1.001248e-25
7.050000e+02 1.156615e-25
7.060000e+02 1.335532e-25
7.070000e+02 1.541483e-25
7.080000e+02 1.778454e-25
7.090000e+02 2.051008e-25
7.100000e+02 2.364357e-25
7.110000e+02 2.724462e-25
7.120000e+02 3.138133e-25
7.130000e+02 3.613145e-25
7.140000e+02 4.158376e-25
7.150000e+02 4.783956e-25
7.160000e+02 5.501438e-25
7.170000e+02 6.324000e-25
7.180000e+02 7.266656e-25
7.190000e+02 8.346519e-25
7.200000e+02 9.583072e-25
7.210000e+02 1.099850e-24
7.220000e+02 1.261806e-24
7.230000e+02 1.447045e-24
7.240000e+02 1.658836e-24
7.250000e+02 1.900889e-24
7.260000e+02 2.177425e-24
7.270000e+02 2.493234e-24
7.280000e+02 2.853759e-24
7.290000e+02 3.265176e-24
7.300000e+02 3.734492e-24
7.310000e+02 4.269656e-24
7.320000e+02 4.879678e-24
7.330000e+02 5.574773e-24
7.340000e+02 6.366512e-24
7.350000e+02 7.268001e-24
7.360000e+02 8.294078e-24
7.370000e+02 9.461535e-24
7.380000e+02 1.078937e-23
7.390000e+02 1.229907e-23
7.400000e+02 1.401492e-23
7.410000e+02 1.596438e-23
7.420000e+02 1.817846e-23
7.430000e+02 2.069219e-23
7.440000e+02 2.354510e-23
7.450000e+02 2.678182e-23
7.460000e+02 3.045270e-23
7.470000e+02 3.461452e-23
7.480000e+02 3.933129e-23
7.490000e+02 4.467515e-23
7.500000e+02 5.072738e-23
7.510000e+02 5.757952e-23
7.520000e+02 6.533463e-23
7.530000e+02 7.410872e-23
7.540000e+02 8.403228e-23
7.550000e+02 9.525211e-23
7.560000e+02 1.079332e-22
7.570000e+02 1.222612e-22
7.580000e+02 1.384445e-22
7.590000e+02 1.567171e-22
7.600000e+02 1.773421e-22
7.610000e+02 2.006145e-22
7.620000e+02 2.268655e-22
7.630000e+02 2.564667e-22
7.640000e+02 2.898346e-22
7.650000e+02 3.274364e-22
7.660000e+02 3.697955e-22
7.670000e+02 4.174985e-22
7.680000e+02 4.712021e-22
7.690000e+02 5.316419e-22
7.700000e+02 5.996410e-22
7.710000e+02 6.761207e-22
7.720000e+02 7.621114e-22
7.730000e+02 8.587653e-22
7.740000e+02 9.673707e-22
7.750000e+02 1.089367e-21
7.760000e+02 1.226363e-21
7.770000e+02 1.380155e-21
7.780000e+02 1.552748e-21
7.790000e+02 1.746382e-21
7.800000e+02 1.963556e-21
7.810000e+02 2.207055e-21
7.820000e+02 2.479989e-21
7.830000e+02 2.785822e-21
7.840000e+02 3.128417e-21
7.850000e+02 3.512077e-21
7.860000e+02 3.941596e-21
7.870000e+02 4.422312e-21
7.880000e+02 4.960166e-21
7.890000e+02 5.561773e-21
7.900000e+02 6.234489e-21
7.910000e+02 6.986501e-21
7.920000e+02 7.826907e-21
7.930000e+02 8.765824e-21
7.940000e+02 9.814494e-21
7.950000e+02 1.098541e-20
7.960000e+02 1.229244e-20
7.970000e+02 1.375099e-20
7.980000e+02 1.537816e-20
7.990000e+02 1.719293e-20
8.000000e+02 1.921635e-20
8.010000e+02 2.147178e-20
8.020000e+02 2.398509e-20
8.030000e+02 2.678500e-20
8.040000e+02 2.990331e-20
8.050000e+02 3.337526e-20
8.060000e+02 3.723989e-20
8.070000e+02 4.154042e-20
8.080000e+02 4.632469e-20
8.090000e+02 5.164565e-20
8.100000e+02 5.756190e-20
8.110000e+02 6.413824e-20
8.120000e+02 7.144634e-20
8.130000e+02 7.956540e-20
8.140000e+02 8.858302e-20
8.150000e+02 9.859592e-20
8.160000e+02 1.097110e-19
8.170000e+02 1.220463e-19
8.180000e+02 1.357321e-19
8.190000e+02 1.509123e-19
8.200000e+02 1.677456e-19
8.210000e+02 1.864072e-19
8.220000e+02 2.070902e-19
8.230000e+02 2.300075e-19
8.240000e+02 2.553940e-19
8.250000e+02 2.835083e-19
8.260000e+02 3.146357e-19
8.270000e+02 3.490902e-19
8.280000e+02 3.872177e-19
8.290000e+02 4.293988e-19
8.300000e+02 4.760528e-19
8.310000e+02 5.276410e-19
8.320000e+02 5.846707e-19
8.330000e+02 6.477002e-19
8.340000e+02 7.173431e-19
8.350000e+02 7.942743e-19
8.360000e+02 8.792353e-19
8.370000e+02 9.730410e-19
8.380000e+02 1.076587e-18
8.390000e+02 1.190856e-18
8.400000e+02 1.316927e-18
8.410000e+02 1.455987e-18
8.420000e+02 1.609335e-18
8.430000e+02 1.778400e-18
8.440000e+02 1.964746e-18
8.450000e+02 2.170091e-18
8.460000e+02 2.396317e-18
8.470000e+02 2.645489e-18
8.480000e+02 2.919869e-18
8.490000e+02 3.221935e-18
8.500000e+02 3.554402e-18
8.510000e+02 3.920243e-18
8.520000e+02 4.322716e-18
8.530000e+02 4.765383e-18
8.540000e+02 5.252146e-18
8.550000e+02 5.787274e-18
8.560000e+02 6.375436e-18
8.570000e+02 7.021739e-18
8.580000e+02 7.731766e-18
8.590000e+02 8.511623e-18
8.600000e+02 9.367983e-18
8.610000e+02 1.030814e-17
8.620000e+02 1.134005e-17
8.630000e+02 1.247242e-17
8.640000e+02 1.371475e-17
8.650000e+02 1.507742e-17
8.660000e+02 1.657174e-17
8.670000e+02 1.821007e-17
8.680000e+02 2.000589e-17
8.690000e+02 2.197391e-17
8.700000e+02 2.413015e-17
8.710000e+02 2.649212e-17
8.720000e+02 2.907887e-17
8.730000e+02 3.191117e-17
8.740000e+02 3.501166e-17
8.750000e+02 3.840500e-17
8.760000e+02 4.211806e-17
8.770000e+02 4.618008e-17
8.780000e+02 5.062291e-17
8.790000e+02 5.548121e-17
8.800000e+02 6.079271e-17
8.810000e+02 6.659846e-17
8.820000e+02 7.294309e-17
8.830000e+02 7.987519e-17
8.840000e+02 8.744754e-17
8.850000e+02 9.571757e-17
8.860000e+02 1.047477e-16
8.870000e+02 1.146056e-16
8.880000e+02 1.253652e-16
8.890000e+02 1.371063e-16
8.900000e+02 1.499160e-16
8.910000e+02 1.638885e-16
8.920000e+02 1.791264e-16
8.930000e+02 1.957408e-16
8.940000e+02 2.138525e-16
8.950000e+02 2.335924e-16
8.960000e+02 2.551026e-16
8.970000e+02 2.785370e-16
8.980000e+02 3.040628e-16
8.990000e+02 3.318610e-16
9.000000e+02 3.621280e-16
9.010000e+02 3.950764e-16
9.020000e+02 4.309368e-16
9.030000e+02 4.699589e-16
9.040000e+02 5.124131e-16
9.050000e+02 5.585922e-16
9.060000e+02 6.088133e-16
9.070000e+02 6.634197e-16
9.080000e+02 7.227827e-16
9.090000e+02 7.873043e-16
9.100000e+02 8.574193e-16
9.110000e+02 9.335980e-16
9.120000e+02 1.016349e-15
9.130000e+02 1.106223e-15
9.140000e+02 1.226558e-15
9.150000e+02 6.476052e-13
9.160000e+02 5.472635e-12
9.170000e+02 1.688089e-12
9.180000e+02 8.702066e-13
9.190000e+02 1.773057e-11
9.200000e+02 5.893357e-11
9.210000e+02 2.164062e-15
9.220000e+02 8.838994e-11
9.230000e+02 3.795041e-13
9.240000e+02 5.050613e-12
9.250000e+02 6.224050e-11
9.260000e+02 1.409661e-12
9.270000e+02 5.418116e-12
9.280000e+02 5.076736e-10
9.290000e+02 4.611229e-10
9.300000e+02 7.969237e-11
9.310000e+02 1.128466e-12
9.320000e+02 3.639835e-10
9.330000e+02 8.537962e-10
9.340000e+02 1.047545e-09
9.350000e+02 1.137824e-12
9.360000e+02 3.329325e-11
9.370000e+02 2.865473e-13
9.380000e+02 3.402180e-13
9.390000e+02 6.703667e-11
9.400000e+02 1.102440e-09
9.410000e+02 1.215329e-11
9.420000e+02 2.084085e-09
9.430000e+02 2.824142e-10
9.440000e+02 2.422138e-09
9.450000e+02 2.392329e-09
9.460000e+02 1.682672e-09
9.470000e+02 1.429468e-12
9.480000e+02 2.132606e-10
9.490000e+02 4.006622e-11
9.500000e+02 2.399216e-13
9.510000e+02 2.949501e-10
9.520000e+02 1.431950e-09
9.530000e+02 4.634823e-11
9.540000e+02 1.976554e-12
9.550000e+02 4.700356e-10
9.560000e+02 4.507110e-10
9.570000e+02 1.122555e-10
9.580000e+02 6.383782e-13
9.590000e+02 7.402317e-09
9.600000e+02 2.073008e-12
9.610000e+02 6.088832e-09
9.620000e+02 3.851784e-09
9.630000e+02 1.806084e-10
9.640000e+02 2.724621e-11
9.650000e+02 6.125767e-12
9.660000e+02 8.903798e-10
9.670000e+02 7.870637e-11
9.680000e+02 5.294032e-11
9.690000e+02 2.203436e-09
9.700000e+02 2.127282e-09
9.710000e+02 8.674753e-11
9.720000e+02 6.846733e-12
9.730000e+02 8.263662e-12
9.740000e+02 5.275034e-10
9.750000e+02 1.226794e-09
9.760000e+02 7.575323e-09
9.770000e+02 1.073492e-08
9.780000e+02 1.023168e-08
9.790000e+02 1.983780e-08
9.800000e+02 2.293072e-08
9.810000e+02 1.098439e-08
9.820000e+02 2.159473e-09
9.830000e+02 2.990082e-08
9.840000e+02 6.495149e-10
9.850000e+02 4.842808e-09
9.860000e+02 4.313983e-09
9.870000e+02 3.823698e-08
9.880000e+02 2.406253e-11
9.890000e+02 3.647643e-08
9.900000e+02 2.788964e-08
9.910000e+02 2.133277e-09
9.920000e+02 4.258746e-12
9.930000e+02 3.549223e-08
9.940000e+02 1.483258e-12
9.950000e+02 1.572899e-09
9.960000e+02 1.292975e-10
9.970000e+02 2.699152e-11
9.980000e+02 6.558440e-08
9.990000e+02 2.947364e-09
1.000000e+03 8.429113e-08
1.001000e+03 7.539439e-08
1.002000e+03 9.754670e-08
1.003000e+03 3.054538e-09
1.004000e+03 4.452261e-11
1.005000e+03 1.937322e-08
1.006000e+03 1.176968e-07
1.007000e+03 1.239046e-07
1.008000e+03 1.201551e-07
1.009000e+03 2.156657e-09
1.010000e+03 1.217411e-07
1.011000e+03 1.419164e-07
1.012000e+03 1.402868e-07
1.013000e+03 1.416987e-07
1.014000e+03 2.081180e-11
1.015000e+03 9.814016e-11
1.016000e+03 1.378987e-08
1.017000e+03 1.323031e-11
1.018000e+03 4.536894e-09
1.019000e+03 1.073133e-10
1.020000e+03 9.062034e-08
1.021000e+03 1.764604e-09
1.022000e+03 8.336581e-09
1.023000e+03 4.164846e-10
1.024000e+03 2.848063e-09
1.025000e+03 9.102746e-12
1.026000e+03 8.959900e-12
1.027000e+03 1.365429e-09
1.028000e+03 1.237481e-10
1.029000e+03 3.261036e-11
1.030000e+03 5.919958e-08
1.031000e+03 1.943900e-07
1.032000e+03 3.143850e-07
1.033000e+03 2.443869e-09
1.034000e+03 2.634847e-07
1.035000e+03 5.525180e-11
1.036000e+03 1.273293e-10
1.037000e+03 1.745596e-06
1.038000e+03 2.224347e-06
1.039000e+03 2.131641e-06
1.040000e+03 2.721057e-06
1.041000e+03 2.361496e-06
1.042000e+03 3.219791e-06
1.043000e+03 1.698562e-06
1.044000e+03 4.005929e-06
1.045000e+03 1.109079e-10
1.046000e+03 2.550083e-06
1.047000e+03 1.594257e-06
1.048000e+03 1.140256e-08
1.049000e+03 1.673536e-06
1.050000e+03 2.015104e-07
1.051000e+03 5.443690e-08
1.052000e+03 6.033063e-06
1.053000e+03 6.884447e-06
1.054000e+03 2.273737e-10
1.055000e+03 4.009406e-06
1.056000e+03 7.605291e-06
1.057000e+03 3.332432e-06
1.058000e+03 1.027478e-07
1.059000e+03 3.439254e-08
1.060000e+03 1.019907e-08
1.061000e+03 8.434166e-06
1.062000e+03 4.640698e-08
1.063000e+03 2.820287e-09
1.064000e+03 1.173248e-10
1.065000e+03 3.756213e-10
1.066000e+03 2.862721e-07
1.067000e+03 8.652529e-08
1.068000e+03 1.469345e-05
1.069000e+03 1.252200e-08
1.070000e+03 1.984297e-06
1.071000e+03 1.497202e-05
1.072000e+03 1.739824e-05
1.073000e+03 1.504304e-09
1.074000e+03 9.037653e-06
1.075000e+03 6.771143e-06
1.076000e+03 4.506483e-06
1.077000e+03 1.051012e-08
1.078000e+03 1.606677e-07
1.079000e+03 1.668118e-06
1.080000e+03 5.308668e-06
1.081000e+03 2.459877e-05
1.082000e+03 1.934752e-05
1.083000e+03 1.424657e-05
1.084000e+03 2.498300e-05
1.085000e+03 2.245624e-06
1.086000e+03 3.406237e-05
1.087000e+03 2.399247e-07
1.088000e+03 3.706499e-05
1.089000e+03 3.818597e-05
1.090000e+03 2.153097e-06
1.091000e+03 4.764919e-06
1.092000e+03 2.364475e-05
1.093000e+03 4.013723e-05
1.094000e+03 2.208536e-05
1.095000e+03 5.059912e-05
1.096000e+03 8.218849e-07
1.097000e+03 5.197431e-05
1.098000e+03 4.317455e-05
1.099000e+03 5.915586e-06
1.100000e+03 2.969762e-08
1.101000e+03 1.023789e-07
1.102000e+03 7.244115e-06
1.103000e+03 7.062670e-05
1.104000e+03 7.478890e-05
1.105000e+03 7.773931e-05
1.106000e+03 2.793390e-05
1.107000e+03 1.042208e-07
1.108000e+03 8.355067e-05
1.109000e+03 3.102024e-06
1.110000e+03 8.576566e-05
1.111000e+03 8.826099e-05
1.112000e+03 8.101003e-05
1.113000e+03 7.635258e-05
1.114000e+03 3.361884e-05
1.115000e+03 2.205681e-06
1.116000e+03 4.147246e-07
1.117000e+03 1.265803e-04
1.118000e+03 5.725422e-06
1.119000e+03 9.150726e-05
1.120000e+03 1.176930e-06
1.121000e+03 1.429595e-04
1.122000e+03 1.259641e-04
1.123000e+03 2.189091e-04
1.124000e+03 2.703486e-04
1.125000e+03 2.271449e-04
1.126000e+03 2.113502e-04
1.127000e+03 2.015438e-04
1.128000e+03 1.725064e-04
1.129000e+03 1.538927e-04
1.130000e+03 1.768822e-04
1.131000e+03 1.424117e-04
1.132000e+03 1.684471e-06
1.133000e+03 4.656521e-05
1.134000e+03 1.449199e-04
1.135000e+03 5.513352e-05
1.136000e+03 5.635565e-05
1.137000e+03 1.146368e-04
1.138000e+03 1.271239e-04
1.139000e+03 1.441249e-04
1.140000e+03 1.400777e-04
1.141000e+03 1.227885e-04
1.142000e+03 1.410854e-04
1.143000e+03 1.095783e-04
1.144000e+03 1.326441e-04
1.145000e+03 9.682553e-07
1.146000e+03 1.467601e-04
1.147000e+03 1.482148e-04
1.148000e+03 1.906803e-05
1.149000e+03 1.448759e-04
1.150000e+03 1.427930e-04
1.151000e+03 1.438159e-04
1.152000e+03 1.405063e-04
1.153000e+03 1.383315e-04
1.154000e+03 1.326498e-04
1.155000e+03 1.321890e-04
1.156000e+03 8.769719e-05
1.157000e+03 1.270373e-04
1.158000e+03 1.195716e-04
1.159000e+03 1.290071e-04
1.160000e+03 1.228503e-04
1.161000e+03 1.185154e-04
1.162000e+03 4.473955e-05
1.163000e+03 8.536119e-05
1.164000e+03 2.543311e-07
1.165000e+03 6.545160e-05
1.166000e+03 3.284050e-05
1.167000e+03 2.087802e-05
1.168000e+03 1.363180e-04
1.169000e+03 1.383648e-04
1.170000e+03 2.238147e-05
1.171000e+03 5.938821e-05
1.172000e+03 4.741387e-05
1.173000e+03 3.971241e-05
1.174000e+03 7.572060e-06
1.175000e+03 2.904198e-07
1.176000e+03 6.462869e-08
1.177000e+03 1.830948e-04
1.178000e+03 1.720680e-04
1.179000e+03 1.633751e-04
1.180000e+03 1.495324e-04
1.181000e+03 1.467156e-04
1.182000e+03 1.420048e-04
1.183000e+03 1.341037e-04
1.184000e+03 1.293991e-04
1.185000e+03 1.247944e-04
1.186000e+03 3.711605e-05
1.187000e+03 1.174579e-04
1.188000e+03 1.126939e-04
1.189000e+03 1.120720e-04
1.190000e+03 1.088478e-04
1.191000e+03 1.028164e-04
1.192000e+03 9.228339e-05
1.193000e+03 9.166216e-05
1.194000e+03 8.855347e-05
1.195000e+03 8.456507e-05
1.196000e+03 1.843367e-03
1.197000e+03 1.726455e-03
1.198000e+03 3.205680e-04
1.199000e+03 1.445085e-03
1.200000e+03 7.026534e-04
1.201000e+03 1.123416e-03
1.202000e+03 9.249526e-04
1.203000e+03 8.068886e-04
1.204000e+03 4.752426e-04
1.205000e+03 5.146846e-04
1.206000e+03 3.892148e-04
1.207000e+03 3.757040e-05
1.208000e+03 1.719215e-04
1.209000e+03 1.236464e-04
1.210000e+03 4.977628e-07
1.211000e+03 4.101067e-05
1.212000e+03 1.945828e-05
1.213000e+03 7.761495e-06
1.214000e+03 2.140470e-06
1.215000e+03 2.492815e-07
1.216000e+03 2.114410e-07
1.217000e+03 1.311975e-06
1.218000e+03 6.457746e-06
1.219000e+03 1.926091e-05
1.220000e+03 4.541393e-05
1.221000e+03 9.183726e-05
1.222000e+03 1.734661e-04
1.223000e+03 2.843114e-04
1.224000e+03 4.226018e-04
1.225000e+03 2.976774e-04
1.226000e+03 9.455450e-04
1.227000e+03 1.308000e-03
1.228000e+03 1.568536e-03
1.229000e+03 2.226674e-03
1.230000e+03 3.942209e-04
1.231000e+03 1.774629e-03
1.232000e+03 3.927105e-03
1.233000e+03 4.625686e-03
1.234000e+03 4.285726e-03
1.235000e+03 6.036805e-03
1.236000e+03 5.758303e-03
1.237000e+03 7.502113e-03
1.238000e+03 8.264598e-03
1.239000e+03 8.666055e-03
1.240000e+03 8.454220e-04
1.241000e+03 9.403436e-03
1.242000e+03 1.127928e-02
1.243000e+03 1.209052e-02
1.244000e+03 1.294808e-02
1.245000e+03 1.283982e-02
1.246000e+03 1.416944e-02
1.247000e+03 1.479216e-02
1.248000e+03 5.844695e-03
1.249000e+03 1.616000e-02
1.250000e+03 1.564172e-02
1.251000e+03 1.844836e-02
1.252000e+03 1.765353e-02
1.253000e+03 1.958161e-02
1.254000e+03 1.936331e-02
1.255000e+03 2.733810e-03
1.256000e+03 1.834062e-02
1.257000e+03 1.320686e-02
1.258000e+03 1.848483e-02
1.259000e+03 2.176525e-02
1.260000e+03 2.325822e-02
1.261000e+03 5.245320e-04
1.262000e+03 2.421754e-02
1.263000e+03 1.773396e-02
1.264000e+03 2.329782e-02
1.265000e+03 1.826830e-02
1.266000e+03 2.951182e-02
1.267000e+03 3.161466e-02
