# wavelength_A flux
5.000000e+02 2.392420e-10
5.010000e+02 2.738678e-10
5.020000e+02 3.133300e-10
5.030000e+02 3.582738e-10
5.040000e+02 4.094428e-10
5.050000e+02 4.896514e-10
5.060000e+02 5.588446e-10
5.070000e+02 6.374730e-10
5.080000e+02 7.267749e-10
5.090000e+02 8.282117e-10
5.100000e+02 9.432310e-10
5.110000e+02 1.073661e-09
5.120000e+02 1.221486e-09
5.130000e+02 1.388942e-09
5.140000e+02 1.578539e-09
5.150000e+02 1.793040e-09
5.160000e+02 2.035750e-09
5.170000e+02 2.309934e-09
5.180000e+02 2.620093e-09
5.190000e+02 2.970197e-09
5.200000e+02 3.365402e-09
5.210000e+02 3.811287e-09
5.220000e+02 4.313270e-09
5.230000e+02 4.880899e-09
5.240000e+02 5.519456e-09
5.250000e+02 6.238654e-09
5.260000e+02 7.048055e-09
5.270000e+02 7.958644e-09
5.280000e+02 8.982603e-09
5.290000e+02 1.012906e-08
5.300000e+02 1.142634e-08
5.310000e+02 1.287825e-08
5.320000e+02 1.450799e-08
5.330000e+02 1.633619e-08
5.340000e+02 1.838641e-08
5.350000e+02 2.068443e-08
5.360000e+02 2.325880e-08
5.370000e+02 2.552446e-08
5.380000e+02 2.936888e-08
5.390000e+02 3.298126e-08
5.400000e+02 3.702044e-08
5.410000e+02 4.152990e-08
5.420000e+02 4.658011e-08
5.430000e+02 5.221625e-08
5.440000e+02 5.850706e-08
5.450000e+02 6.552832e-08
5.460000e+02 7.333553e-08
5.470000e+02 8.209389e-08
5.480000e+02 9.182739e-08
5.490000e+02 1.026723e-07
5.500000e+02 1.147492e-07
5.510000e+02 1.281931e-07
5.520000e+02 1.431524e-07
5.530000e+02 1.597912e-07
5.540000e+02 1.782906e-07
5.550000e+02 1.988502e-07
5.560000e+02 2.216903e-07
5.570000e+02 2.470538e-07
5.580000e+02 2.752044e-07
5.590000e+02 3.064421e-07
5.600000e+02 3.410918e-07
5.610000e+02 3.795091e-07
5.620000e+02 4.220870e-07
5.630000e+02 4.692577e-07
5.640000e+02 5.214963e-07
5.650000e+02 5.793246e-07
5.660000e+02 6.433199e-07
5.670000e+02 7.141087e-07
5.680000e+02 7.923845e-07
5.690000e+02 8.789066e-07
5.700000e+02 9.744919e-07
5.710000e+02 1.080087e-06
5.720000e+02 1.196675e-06
5.730000e+02 1.325355e-06
5.740000e+02 1.467328e-06
5.750000e+02 1.623963e-06
5.760000e+02 1.796245e-06
5.770000e+02 1.986877e-06
5.780000e+02 2.196507e-06
5.790000e+02 2.427378e-06
5.800000e+02 2.681554e-06
5.810000e+02 2.961286e-06
5.820000e+02 3.269026e-06
5.830000e+02 3.607327e-06
5.840000e+02 3.977226e-06
5.850000e+02 4.387905e-06
5.860000e+02 4.837758e-06
5.870000e+02 5.331302e-06
5.880000e+02 5.873130e-06
5.890000e+02 6.467620e-06
5.900000e+02 7.120233e-06
5.910000e+02 7.835833e-06
5.920000e+02 8.620454e-06
5.930000e+02 9.480463e-06
5.940000e+02 1.042263e-05
5.950000e+02 1.145386e-05
5.960000e+02 1.258508e-05
5.970000e+02 1.382227e-05
5.980000e+02 1.517619e-05
5.990000e+02 1.665732e-05
6.000000e+02 1.827708e-05
6.010000e+02 2.004636e-05
6.020000e+02 2.198326e-05
6.030000e+02 2.409778e-05
6.040000e+02 2.640728e-05
6.050000e+02 2.892914e-05
6.060000e+02 3.168094e-05
6.070000e+02 3.468478e-05
6.080000e+02 3.796148e-05
6.090000e+02 4.153492e-05
6.100000e+02 4.543042e-05
6.110000e+02 4.967653e-05
6.120000e+02 5.430290e-05
6.130000e+02 5.934215e-05
6.140000e+02 6.482948e-05
6.150000e+02 7.080303e-05
6.160000e+02 7.730389e-05
6.170000e+02 8.437593e-05
6.180000e+02 9.206849e-05
6.190000e+02 1.004328e-04
6.200000e+02 1.095251e-04
6.210000e+02 1.194057e-04
6.220000e+02 1.301399e-04
6.230000e+02 1.417981e-04
6.240000e+02 1.544564e-04
6.250000e+02 1.681968e-04
6.260000e+02 1.831075e-04
6.270000e+02 1.992821e-04
6.280000e+02 2.168262e-04
6.290000e+02 2.358488e-04
6.300000e+02 2.564688e-04
6.310000e+02 2.788110e-04
6.320000e+02 3.030230e-04
6.330000e+02 3.292431e-04
6.340000e+02 3.576346e-04
6.350000e+02 3.883680e-04
6.360000e+02 4.204118e-04
6.370000e+02 4.576155e-04
6.380000e+02 4.965399e-04
6.390000e+02 5.386283e-04
6.400000e+02 5.841324e-04
6.410000e+02 6.333131e-04
6.420000e+02 6.864544e-04
6.430000e+02 7.438601e-04
6.440000e+02 8.058561e-04
6.450000e+02 8.727917e-04
6.460000e+02 9.450371e-04
6.470000e+02 1.023006e-03
6.480000e+02 1.107124e-03
6.490000e+02 1.197859e-03
6.500000e+02 1.295699e-03
6.510000e+02 1.401174e-03
6.520000e+02 1.514858e-03
6.530000e+02 1.637356e-03
6.540000e+02 1.769320e-03
6.550000e+02 1.911446e-03
6.560000e+02 2.064480e-03
6.570000e+02 2.229136e-03
6.580000e+02 2.406518e-03
6.590000e+02 2.597285e-03
6.600000e+02 2.802489e-03
6.610000e+02 3.023196e-03
6.620000e+02 3.260493e-03
6.630000e+02 3.515576e-03
6.640000e+02 3.789718e-03
6.650000e+02 4.084219e-03
6.660000e+02 4.400643e-03
6.670000e+02 4.740455e-03
6.680000e+02 5.105315e-03
6.690000e+02 5.496982e-03
6.700000e+02 5.917318e-03
6.710000e+02 6.368358e-03
6.720000e+02 6.852024e-03
6.730000e+02 7.371106e-03
6.740000e+02 7.927519e-03
6.750000e+02 8.524008e-03
6.760000e+02 9.163317e-03
6.770000e+02 9.848307e-03
6.780000e+02 1.058221e-02
6.790000e+02 1.136829e-02
6.800000e+02 1.221006e-02
6.810000e+02 1.311127e-02
6.820000e+02 1.407592e-02
6.830000e+02 1.510812e-02
6.840000e+02 1.621264e-02
6.850000e+02 1.739410e-02
6.860000e+02 1.865774e-02
6.870000e+02 2.000850e-02
6.880000e+02 2.145322e-02
6.890000e+02 2.299698e-02
6.900000e+02 2.464662e-02
6.910000e+02 2.640906e-02
6.920000e+02 2.829159e-02
6.930000e+02 3.030199e-02
6.940000e+02 3.244851e-02
6.950000e+02 3.473991e-02
6.960000e+02 3.718547e-02
6.970000e+02 3.979378e-02
6.980000e+02 4.257904e-02
6.990000e+02 4.554855e-02
7.000000e+02 4.871485e-02
7.010000e+02 5.209128e-02
7.020000e+02 5.569055e-02
7.030000e+02 5.952664e-02
7.040000e+02 6.361434e-02
7.050000e+02 6.796926e-02
7.060000e+02 7.260799e-02
7.070000e+02 7.754818e-02
7.080000e+02 8.280824e-02
7.090000e+02 8.840750e-02
7.100000e+02 9.436794e-02
7.110000e+02 1.007097e-01
7.120000e+02 1.074577e-01
7.130000e+02 1.146360e-01
7.140000e+02 1.222705e-01
7.150000e+02 1.303888e-01
7.160000e+02 1.390184e-01
7.170000e+02 1.481917e-01
7.180000e+02 1.579386e-01
7.190000e+02 1.683035e-01
7.200000e+02 1.793104e-01
7.210000e+02 1.910018e-01
7.220000e+02 2.034179e-01
7.230000e+02 2.166017e-01
7.240000e+02 2.305977e-01
7.250000e+02 2.454535e-01
7.260000e+02 2.612191e-01
7.270000e+02 2.779473e-01
7.280000e+02 2.956936e-01
7.290000e+02 3.145168e-01
7.300000e+02 3.344786e-01
7.310000e+02 3.556444e-01
7.320000e+02 3.780789e-01
7.330000e+02 4.018623e-01
7.340000e+02 4.270671e-01
7.350000e+02 4.537736e-01
7.360000e+02 4.820656e-01
7.370000e+02 5.120350e-01
7.380000e+02 5.437729e-01
7.390000e+02 5.773792e-01
7.400000e+02 6.129543e-01
7.410000e+02 6.506177e-01
7.420000e+02 6.904666e-01
7.430000e+02 7.326451e-01
7.440000e+02 7.772658e-01
7.450000e+02 8.244662e-01
7.460000e+02 8.743872e-01
7.470000e+02 9.271666e-01
7.480000e+02 9.829801e-01
7.490000e+02 1.041983e+00
7.500000e+02 1.104345e+00
7.510000e+02 1.170250e+00
7.520000e+02 1.239886e+00
7.530000e+02 1.313453e+00
7.540000e+02 1.391161e+00
7.550000e+02 1.473229e+00
7.560000e+02 1.559891e+00
7.570000e+02 1.651336e+00
7.580000e+02 1.747969e+00
7.590000e+02 1.849895e+00
7.600000e+02 1.957487e+00
7.610000e+02 2.070994e+00
7.620000e+02 2.190721e+00
7.630000e+02 2.317034e+00
7.640000e+02 2.450250e+00
7.650000e+02 2.590724e+00
7.660000e+02 2.738834e+00
7.670000e+02 2.894966e+00
7.680000e+02 3.059499e+00
7.690000e+02 3.232966e+00
7.700000e+02 3.415712e+00
7.710000e+02 3.608217e+00
7.720000e+02 3.811029e+00
7.730000e+02 4.024627e+00
7.740000e+02 4.249576e+00
7.750000e+02 4.486431e+00
7.760000e+02 4.735056e+00
7.770000e+02 4.998243e+00
7.780000e+02 5.274503e+00
7.790000e+02 5.565217e+00
7.800000e+02 5.871100e+00
7.810000e+02 6.192902e+00
7.820000e+02 6.531396e+00
7.830000e+02 6.887400e+00
7.840000e+02 7.261777e+00
7.850000e+02 7.655408e+00
7.860000e+02 8.069222e+00
7.870000e+02 8.504262e+00
7.880000e+02 8.961438e+00
7.890000e+02 9.441865e+00
7.900000e+02 9.946629e+00
7.910000e+02 1.047698e+01
7.920000e+02 1.103404e+01
7.930000e+02 1.161912e+01
7.940000e+02 1.223354e+01
7.950000e+02 1.287868e+01
7.960000e+02 1.355599e+01
7.970000e+02 1.426697e+01
7.980000e+02 1.501310e+01
7.990000e+02 1.579623e+01
8.000000e+02 1.661798e+01
8.010000e+02 1.748010e+01
8.020000e+02 1.838457e+01
8.030000e+02 1.933322e+01
8.040000e+02 2.032814e+01
8.050000e+02 2.137143e+01
8.060000e+02 2.246531e+01
8.070000e+02 2.361207e+01
8.080000e+02 2.481415e+01
8.090000e+02 2.607403e+01
8.100000e+02 2.739432e+01
8.110000e+02 2.877776e+01
8.120000e+02 3.022709e+01
8.130000e+02 3.174553e+01
8.140000e+02 3.333589e+01
8.150000e+02 3.500137e+01
8.160000e+02 3.674562e+01
8.170000e+02 3.857179e+01
8.180000e+02 4.048366e+01
8.190000e+02 4.248497e+01
8.200000e+02 4.457965e+01
8.210000e+02 4.677179e+01
8.220000e+02 4.906564e+01
8.230000e+02 5.146521e+01
8.240000e+02 5.397597e+01
8.250000e+02 5.660226e+01
8.260000e+02 5.934911e+01
8.270000e+02 6.222169e+01
8.280000e+02 6.522511e+01
8.290000e+02 6.836555e+01
8.300000e+02 7.164861e+01
8.310000e+02 7.508032e+01
8.320000e+02 7.866702e+01
8.330000e+02 8.241522e+01
8.340000e+02 8.633182e+01
8.350000e+02 9.040549e+01
8.360000e+02 9.469757e+01
8.370000e+02 9.916405e+01
8.380000e+02 1.038270e+02
8.390000e+02 1.086983e+02
8.400000e+02 1.137840e+02
8.410000e+02 1.190936e+02
8.420000e+02 1.246317e+02
8.430000e+02 1.304237e+02
8.440000e+02 1.364632e+02
8.450000e+02 1.427662e+02
8.460000e+02 1.493432e+02
8.470000e+02 1.562042e+02
8.480000e+02 1.633635e+02
8.490000e+02 1.708318e+02
8.500000e+02 1.786215e+02
8.510000e+02 1.867457e+02
8.520000e+02 1.952170e+02
8.530000e+02 2.040512e+02
8.540000e+02 2.132633e+02
8.550000e+02 2.228645e+02
8.560000e+02 2.328725e+02
8.570000e+02 2.433035e+02
8.580000e+02 2.541739e+02
8.590000e+02 2.655015e+02
8.600000e+02 2.773039e+02
8.610000e+02 2.895999e+02
8.620000e+02 3.024086e+02
8.630000e+02 3.157495e+02
8.640000e+02 3.296452e+02
8.650000e+02 3.441142e+02
8.660000e+02 3.591827e+02
8.670000e+02 3.748702e+02
8.680000e+02 3.912020e+02
8.690000e+02 4.082027e+02
8.700000e+02 4.258955e+02
8.710000e+02 4.443098e+02
8.720000e+02 4.634742e+02
8.730000e+02 4.834154e+02
8.740000e+02 5.041628e+02
8.750000e+02 5.257468e+02
8.760000e+02 5.481987e+02
8.770000e+02 5.715466e+02
8.780000e+02 5.958362e+02
8.790000e+02 6.210930e+02
8.800000e+02 6.473552e+02
8.810000e+02 6.746603e+02
8.820000e+02 7.030469e+02
8.830000e+02 7.325549e+02
8.840000e+02 7.632258e+02
8.850000e+02 7.951024e+02
8.860000e+02 8.282285e+02
8.870000e+02 8.626504e+02
8.880000e+02 8.984147e+02
8.890000e+02 9.355708e+02
8.900000e+02 9.741689e+02
8.910000e+02 1.014261e+03
8.920000e+02 1.052632e+03
8.930000e+02 1.099136e+03
8.940000e+02 1.144041e+03
8.950000e+02 1.190667e+03
8.960000e+02 1.239077e+03
8.970000e+02 1.289331e+03
8.980000e+02 1.341498e+03
8.990000e+02 1.395643e+03
9.000000e+02 1.451838e+03
9.010000e+02 1.510154e+03
9.020000e+02 1.570665e+03
9.030000e+02 1.633450e+03
9.040000e+02 1.698543e+03
9.050000e+02 1.766156e+03
9.060000e+02 1.836250e+03
9.070000e+02 1.908891e+03
9.080000e+02 1.984342e+03
9.090000e+02 2.062526e+03
9.100000e+02 2.143596e+03
9.110000e+02 2.227671e+03
9.120000e+02 2.314929e+03
9.130000e+02 2.329312e+03
9.140000e+02 2.600386e+03
9.150000e+02 2.181854e+04
9.160000e+02 6.412222e+04
9.170000e+02 6.696459e+04
9.180000e+02 6.856748e+04
9.190000e+02 7.147867e+04
9.200000e+02 7.374870e+04
9.210000e+02 3.051912e+03
9.220000e+02 7.825512e+04
9.230000e+02 7.980442e+04
9.240000e+02 7.312602e+04
9.250000e+02 8.402527e+04
9.260000e+02 8.767058e+04
9.270000e+02 9.076052e+04
9.280000e+02 9.371270e+04
9.290000e+02 8.194848e+04
9.300000e+02 9.788834e+04
9.310000e+02 1.010914e+05
9.320000e+02 1.055188e+05
9.330000e+02 1.084665e+05
9.340000e+02 1.118605e+05
9.350000e+02 3.434978e+04
9.360000e+02 1.180864e+05
9.370000e+02 2.336104e+04
9.380000e+02 8.108234e+04
9.390000e+02 1.293726e+05
9.400000e+02 1.332682e+05
9.410000e+02 7.870249e+04
9.420000e+02 1.412803e+05
9.430000e+02 1.454149e+05
9.440000e+02 9.597160e+04
9.450000e+02 1.539341e+05
9.460000e+02 1.583924e+05
9.470000e+02 1.103513e+05
9.480000e+02 1.583922e+05
9.490000e+02 1.702977e+05
9.500000e+02 3.525292e+04
9.510000e+02 1.744178e+05
9.520000e+02 1.877682e+05
9.530000e+02 1.919783e+05
9.540000e+02 1.578408e+05
9.550000e+02 2.045892e+05
9.560000e+02 1.988780e+05
9.570000e+02 1.700607e+05
9.580000e+02 2.211097e+05
9.590000e+02 2.299037e+05
9.600000e+02 4.947012e+04
9.610000e+02 2.432909e+05
9.620000e+02 2.500682e+05
9.630000e+02 2.572334e+05
9.640000e+02 1.704522e+04
9.650000e+02 2.416357e+05
9.660000e+02 2.793100e+05
9.670000e+02 2.857127e+05
9.680000e+02 2.930475e+05
9.690000e+02 3.003866e+05
9.700000e+02 3.102484e+05
9.710000e+02 3.155705e+05
9.720000e+02 2.905193e+05
9.730000e+02 2.880210e+05
9.740000e+02 3.402486e+05
9.750000e+02 3.551696e+05
9.760000e+02 3.660777e+05
9.770000e+02 3.764399e+05
9.780000e+02 3.859468e+05
9.790000e+02 3.976418e+05
9.800000e+02 4.082657e+05
9.810000e+02 4.196309e+05
9.820000e+02 4.290711e+05
9.830000e+02 4.422737e+05
9.840000e+02 1.376718e+05
9.850000e+02 4.665427e+05
9.860000e+02 4.789981e+05
9.870000e+02 4.916548e+05
9.880000e+02 5.029133e+05
9.890000e+02 3.794992e+05
9.900000e+02 4.958288e+04
9.910000e+02 5.408521e+05
9.920000e+02 4.974968e+05
9.930000e+02 5.345917e+05
9.940000e+02 8.127394e+04
9.950000e+02 1.181334e+05
9.960000e+02 2.230959e+05
9.970000e+02 1.240337e+05
9.980000e+02 6.521240e+05
9.990000e+02 6.558665e+05
1.000000e+03 6.894112e+05
1.001000e+03 7.072983e+05
1.002000e+03 7.252687e+05
1.003000e+03 6.881265e+05
1.004000e+03 7.630215e+05
1.005000e+03 7.081602e+05
1.006000e+03 8.029444e+05
1.007000e+03 8.230502e+05
1.008000e+03 8.431421e+05
1.009000e+03 8.453512e+05
1.010000e+03 8.875699e+05
1.011000e+03 9.098748e+05
1.012000e+03 9.326496e+05
1.013000e+03 9.560201e+05
1.014000e+03 9.773234e+05
1.015000e+03 9.884022e+05
1.016000e+03 1.027297e+06
1.017000e+03 1.050880e+06
1.018000e+03 1.078071e+06
1.019000e+03 1.102684e+06
1.020000e+03 1.127635e+06
1.021000e+03 8.492114e+05
1.022000e+03 1.118969e+06
1.023000e+03 1.173269e+06
1.024000e+03 1.120399e+06
1.025000e+03 7.848496e+05
1.026000e+03 3.099856e+05
1.027000e+03 1.116822e+06
1.028000e+03 3.781886e+05
1.029000e+03 1.375400e+06
1.030000e+03 1.411861e+06
1.031000e+03 1.473442e+06
1.032000e+03 1.508638e+06
1.033000e+03 8.479479e+05
1.034000e+03 1.594665e+06
1.035000e+03 3.428488e+05
1.036000e+03 1.632037e+06
1.037000e+03 1.916020e+05
1.038000e+03 1.758460e+06
1.039000e+03 1.786870e+06
1.040000e+03 1.845805e+06
1.041000e+03 1.882356e+06
1.042000e+03 1.916041e+06
1.043000e+03 1.948850e+06
1.044000e+03 2.026763e+06
1.045000e+03 2.074464e+06
1.046000e+03 2.128569e+06
1.047000e+03 2.178510e+06
1.048000e+03 2.221404e+06
1.049000e+03 2.221876e+06
1.050000e+03 2.337206e+06
1.051000e+03 2.392375e+06
1.052000e+03 2.448679e+06
1.053000e+03 2.483172e+06
1.054000e+03 2.557114e+06
1.055000e+03 2.621319e+06
1.056000e+03 2.685451e+06
1.057000e+03 2.747145e+06
1.058000e+03 2.810046e+06
1.059000e+03 2.875615e+06
1.060000e+03 2.941478e+06
1.061000e+03 3.010430e+06
1.062000e+03 3.079404e+06
1.063000e+03 1.671234e+06
1.064000e+03 6.343860e+05
1.065000e+03 3.308044e+06
1.066000e+03 3.188804e+06
1.067000e+03 3.394864e+06
1.068000e+03 3.545468e+06
1.069000e+03 3.608214e+06
1.070000e+03 3.680784e+06
1.071000e+03 3.794322e+06
1.072000e+03 3.879507e+06
1.073000e+03 3.961746e+06
1.074000e+03 4.055642e+06
1.075000e+03 4.145558e+06
1.076000e+03 4.239264e+06
1.077000e+03 4.329704e+06
1.078000e+03 4.429758e+06
1.079000e+03 4.513940e+06
1.080000e+03 4.627552e+06
1.081000e+03 4.731296e+06
1.082000e+03 4.832324e+06
1.083000e+03 4.940449e+06
1.084000e+03 4.995692e+06
1.085000e+03 3.708972e+06
1.086000e+03 5.275202e+06
1.087000e+03 5.388070e+06
1.088000e+03 5.484879e+06
1.089000e+03 5.626622e+06
1.090000e+03 5.744885e+06
1.091000e+03 5.871296e+06
1.092000e+03 5.999542e+06
1.093000e+03 6.123078e+06
1.094000e+03 6.261990e+06
1.095000e+03 6.391544e+06
1.096000e+03 6.532545e+06
1.097000e+03 6.610419e+06
1.098000e+03 6.771916e+06
1.099000e+03 6.956145e+06
1.100000e+03 6.988953e+06
1.101000e+03 6.548388e+06
1.102000e+03 1.654031e+07
1.103000e+03 6.551047e+07
1.104000e+03 1.997142e+07
1.105000e+03 7.227824e+06
1.106000e+03 1.859043e+08
1.107000e+03 1.749948e+08
1.108000e+03 1.914293e+08
1.109000e+03 1.149680e+08
1.110000e+03 2.680607e+07
1.111000e+03 1.819411e+07
1.112000e+03 1.753938e+08
1.113000e+03 2.087387e+08
1.114000e+03 5.670576e+06
1.115000e+03 2.013251e+08
1.116000e+03 2.136438e+08
1.117000e+03 5.833408e+06
1.118000e+03 1.586404e+08
1.119000e+03 2.260282e+08
1.120000e+03 2.279883e+08
1.121000e+03 1.875856e+08
1.122000e+03 1.784416e+06
1.123000e+03 1.761190e+07
1.124000e+03 2.432089e+08
1.125000e+03 9.042114e+07
1.126000e+03 2.525324e+08
1.127000e+03 2.402433e+08
1.128000e+03 1.242766e+08
1.129000e+03 2.567033e+08
1.130000e+03 2.233151e+08
1.131000e+03 2.741897e+08
1.132000e+03 5.573984e+06
1.133000e+03 2.361942e+08
1.134000e+03 2.710479e+08
1.135000e+03 3.507680e+06
1.136000e+03 2.913436e+08
1.137000e+03 2.997470e+08
1.138000e+03 3.054072e+08
1.139000e+03 2.986180e+08
1.140000e+03 3.672448e+06
1.141000e+03 3.201976e+08
1.142000e+03 3.143221e+08
1.143000e+03 3.285855e+08
1.144000e+03 3.346834e+08
1.145000e+03 2.436342e+08
1.146000e+03 3.447826e+08
1.147000e+03 3.404732e+08
1.148000e+03 3.452308e+08
1.149000e+03 3.597028e+08
1.150000e+03 3.534548e+08
1.151000e+03 3.663743e+08
1.152000e+03 3.747246e+08
1.153000e+03 7.570846e+07
1.154000e+03 9.750016e+06
1.155000e+03 2.650132e+08
1.156000e+03 9.421514e+07
1.157000e+03 4.023088e+08
1.158000e+03 6.462284e+06
1.159000e+03 3.341991e+08
1.160000e+03 4.141629e+08
1.161000e+03 4.311795e+08
1.162000e+03 5.898877e+07
1.163000e+03 4.374334e+08
1.164000e+03 1.207482e+07
1.165000e+03 4.561431e+08
1.166000e+03 4.582646e+08
1.167000e+03 4.511240e+08
1.168000e+03 4.775669e+08
1.169000e+03 4.619051e+08
1.170000e+03 4.920212e+08
1.171000e+03 4.992087e+08
1.172000e+03 4.945574e+08
1.173000e+03 5.126491e+08
1.174000e+03 5.028613e+08
1.175000e+03 1.308006e+07
1.176000e+03 9.454496e+06
1.177000e+03 5.378509e+08
1.178000e+03 5.062840e+08
1.179000e+03 5.531171e+08
1.180000e+03 4.484808e+08
1.181000e+03 5.580998e+08
1.182000e+03 5.720061e+08
1.183000e+03 5.773093e+08
1.184000e+03 5.824842e+08
1.185000e+03 5.745525e+08
1.186000e+03 5.897143e+08
1.187000e+03 5.940457e+08
1.188000e+03 5.885469e+08
1.189000e+03 1.021891e+07
1.190000e+03 7.938198e+07
1.191000e+03 5.817104e+08
1.192000e+03 5.821332e+08
1.193000e+03 8.707296e+06
1.194000e+03 1.184582e+07
1.195000e+03 3.586024e+08
1.196000e+03 5.696426e+08
1.197000e+03 6.583041e+08
1.198000e+03 6.601259e+08
1.199000e+03 6.316870e+08
1.200000e+03 5.434914e+08
1.201000e+03 5.708339e+08
1.202000e+03 5.584403e+08
1.203000e+03 5.727814e+08
1.204000e+03 5.131632e+08
1.205000e+03 4.657340e+08
1.206000e+03 3.967391e+08
1.207000e+03 1.499255e+08
1.208000e+03 2.923453e+08
1.209000e+03 2.178719e+08
1.210000e+03 2.081027e+07
1.211000e+03 1.224805e+08
1.212000e+03 7.850103e+07
1.213000e+03 4.713222e+07
1.214000e+03 2.672680e+07
1.215000e+03 1.620504e+07
1.216000e+03 1.430029e+07
1.217000e+03 2.339715e+07
1.218000e+03 4.252434e+07
1.219000e+03 7.592192e+07
1.220000e+03 1.249304e+08
1.221000e+03 1.884622e+08
1.222000e+03 2.642440e+08
1.223000e+03 3.498905e+08
1.224000e+03 4.432955e+08
1.225000e+03 5.420140e+08
1.226000e+03 6.433799e+08
1.227000e+03 7.429512e+08
1.228000e+03 8.603284e+08
1.229000e+03 9.682833e+08
1.230000e+03 1.077522e+09
1.231000e+03 1.186330e+09
1.232000e+03 1.295850e+09
1.233000e+03 1.402184e+09
1.234000e+03 8.110038e+08
1.235000e+03 1.608402e+09
1.236000e+03 1.707525e+09
1.237000e+03 1.807198e+09
1.238000e+03 1.904903e+09
1.239000e+03 1.999423e+09
1.240000e+03 1.904142e+09
1.241000e+03 3.292606e+09
1.242000e+03 1.853699e+09
1.243000e+03 2.824113e+09
1.244000e+03 1.156710e+09
1.245000e+03 1.766975e+09
1.246000e+03 5.407653e+09
1.247000e+03 5.743259e+09
1.248000e+03 1.278035e+09
1.249000e+03 1.660275e+09
1.250000e+03 6.855691e+09
1.251000e+03 7.126268e+09
1.252000e+03 7.381266e+09
1.253000e+03 7.958462e+09
1.254000e+03 8.173824e+09
1.255000e+03 8.622766e+09
1.256000e+03 8.899038e+09
1.257000e+03 9.379065e+09
1.258000e+03 9.509108e+09
1.259000e+03 9.142691e+09
1.260000e+03 6.722910e+09
1.261000e+03 3.640696e+07
1.262000e+03 7.702390e+08
1.263000e+03 1.074530e+10
1.264000e+03 9.008756e+09
1.265000e+03 3.405594e+07
1.266000e+03 1.150575e+10
1.267000e+03 1.282440e+10
