# wavelength_A flux
5.000000e+02 2.096005e-36
5.010000e+02 2.706061e-36
5.020000e+02 3.490056e-36
5.030000e+02 4.496547e-36
5.040000e+02 5.787363e-36
5.050000e+02 7.442988e-36
5.060000e+02 9.560091e-36
5.070000e+02 1.226698e-35
5.080000e+02 1.572466e-35
5.090000e+02 2.013685e-35
5.100000e+02 2.575643e-35
5.110000e+02 3.292505e-35
5.120000e+02 4.203921e-35
5.130000e+02 5.362458e-35
5.140000e+02 6.833645e-35
5.150000e+02 8.700091e-35
5.160000e+02 1.106575e-34
5.170000e+02 1.406131e-34
5.180000e+02 1.785095e-34
5.190000e+02 2.264067e-34
5.200000e+02 2.868878e-34
5.210000e+02 3.631888e-34
5.220000e+02 4.593585e-34
5.230000e+02 5.804630e-34
5.240000e+02 7.328262e-34
5.250000e+02 9.243447e-34
5.260000e+02 1.164865e-33
5.270000e+02 1.466657e-33
5.280000e+02 1.844993e-33
5.290000e+02 2.318871e-33
5.300000e+02 2.911897e-33
5.310000e+02 3.653383e-33
5.320000e+02 4.579693e-33
5.330000e+02 5.735902e-33
5.340000e+02 7.177834e-33
5.350000e+02 8.974565e-33
5.360000e+02 1.121150e-32
5.370000e+02 1.399352e-32
5.380000e+02 1.745278e-32
5.390000e+02 2.174798e-32
5.400000e+02 2.707771e-32
5.410000e+02 3.368569e-32
5.420000e+02 4.187183e-32
5.430000e+02 5.200475e-32
5.440000e+02 6.453729e-32
5.450000e+02 8.002526e-32
5.460000e+02 9.915028e-32
5.470000e+02 1.227477e-31
5.480000e+02 1.518403e-31
5.490000e+02 1.876796e-31
5.500000e+02 2.317957e-31
5.510000e+02 2.860577e-31
5.520000e+02 3.527475e-31
5.530000e+02 4.346483e-31
5.540000e+02 5.351525e-31
5.550000e+02 6.583919e-31
5.560000e+02 8.093954e-31
5.570000e+02 9.942783e-31
5.580000e+02 1.220472e-30
5.590000e+02 1.497002e-30
5.600000e+02 1.834820e-30
5.610000e+02 2.247203e-30
5.620000e+02 2.750243e-30
5.630000e+02 3.363422e-30
5.640000e+02 4.110312e-30
5.650000e+02 5.019415e-30
5.660000e+02 6.125169e-30
5.670000e+02 7.469152e-30
5.680000e+02 9.101530e-30
5.690000e+02 1.108279e-29
5.700000e+02 1.348581e-29
5.710000e+02 1.639833e-29
5.720000e+02 1.992594e-29
5.730000e+02 2.419557e-29
5.740000e+02 2.935977e-29
5.750000e+02 3.560169e-29
5.760000e+02 4.314111e-29
5.770000e+02 5.224158e-29
5.780000e+02 6.321895e-29
5.790000e+02 7.645142e-29
5.800000e+02 9.239166e-29
5.810000e+02 1.115811e-28
5.820000e+02 1.346667e-28
5.830000e+02 1.624214e-28
5.840000e+02 1.957677e-28
5.850000e+02 2.358063e-28
5.860000e+02 2.838492e-28
5.870000e+02 3.414595e-28
5.880000e+02 4.104984e-28
5.890000e+02 4.931805e-28
5.900000e+02 5.921394e-28
5.910000e+02 7.105048e-28
5.920000e+02 8.519939e-28
5.930000e+02 1.021019e-27
5.940000e+02 1.222814e-27
5.950000e+02 1.463583e-27
5.960000e+02 1.750679e-27
5.970000e+02 2.092805e-27
5.980000e+02 2.500263e-27
5.990000e+02 2.985236e-27
6.000000e+02 3.562124e-27
6.010000e+02 4.247936e-27
6.020000e+02 5.062754e-27
6.030000e+02 6.030272e-27
6.040000e+02 7.178432e-27
6.050000e+02 8.540162e-27
6.060000e+02 1.015425e-26
6.070000e+02 1.206635e-26
6.080000e+02 1.433017e-26
6.090000e+02 1.700889e-26
6.100000e+02 2.017672e-26
6.110000e+02 2.392086e-26
6.120000e+02 2.834362e-26
6.130000e+02 3.356509e-26
6.140000e+02 3.972605e-26
6.150000e+02 4.699149e-26
6.160000e+02 5.555465e-26
6.170000e+02 6.564176e-26
6.180000e+02 7.751752e-26
6.190000e+02 9.149145e-26
6.200000e+02 1.079253e-25
6.210000e+02 1.272417e-25
6.220000e+02 1.499339e-25
6.230000e+02 1.765778e-25
6.240000e+02 2.078447e-25
6.250000e+02 2.445173e-25
6.260000e+02 2.875077e-25
6.270000e+02 3.378775e-25
6.280000e+02 3.968627e-25
6.290000e+02 4.659010e-25
6.300000e+02 5.466638e-25
6.310000e+02 6.410937e-25
6.320000e+02 7.514470e-25
6.330000e+02 8.803426e-25
6.340000e+02 1.030820e-24
6.350000e+02 1.206404e-24
6.360000e+02 1.411180e-24
6.370000e+02 1.649882e-24
6.380000e+02 1.927993e-24
6.390000e+02 2.251857e-24
6.400000e+02 2.628816e-24
6.410000e+02 3.067358e-24
6.420000e+02 3.577295e-24
6.430000e+02 4.169961e-24
6.440000e+02 4.858445e-24
6.450000e+02 5.657852e-24
6.460000e+02 6.585607e-24
6.470000e+02 7.661804e-24
6.480000e+02 8.909599e-24
6.490000e+02 1.035567e-23
6.500000e+02 1.203073e-23
6.510000e+02 1.397014e-23
6.520000e+02 1.621457e-23
6.530000e+02 1.881077e-23
6.540000e+02 2.181250e-23
6.550000e+02 2.528151e-23
6.560000e+02 2.928870e-23
6.570000e+02 3.391545e-23
6.580000e+02 3.925513e-23
6.590000e+02 4.541481e-23
6.600000e+02 5.251723e-23
6.610000e+02 6.070301e-23
6.620000e+02 7.013319e-23
6.630000e+02 8.099213e-23
6.640000e+02 9.349080e-23
6.650000e+02 1.078705e-22
6.660000e+02 1.244069e-22
6.670000e+02 1.434155e-22
6.680000e+02 1.652563e-22
6.690000e+02 1.903403e-22
6.700000e+02 2.191370e-22
6.710000e+02 2.521815e-22
6.720000e+02 2.900845e-22
6.730000e+02 3.335419e-22
6.740000e+02 3.833464e-22
6.750000e+02 4.404013e-22
6.760000e+02 5.057347e-22
6.770000e+02 5.805167e-22
6.780000e+02 6.660783e-22
6.790000e+02 7.639330e-22
6.800000e+02 8.758010e-22
6.810000e+02 1.003637e-21
6.820000e+02 1.149660e-21
6.830000e+02 1.316392e-21
6.840000e+02 1.506691e-21
6.850000e+02 1.723801e-21
6.860000e+02 1.971402e-21
6.870000e+02 2.253663e-21
6.880000e+02 2.575308e-21
6.890000e+02 2.941688e-21
6.900000e+02 3.358861e-21
6.910000e+02 3.833683e-21
6.920000e+02 4.373911e-21
6.930000e+02 4.988315e-21
6.940000e+02 5.686810e-21
6.950000e+02 6.480601e-21
6.960000e+02 7.382345e-21
6.970000e+02 8.406333e-21
6.980000e+02 9.568694e-21
6.990000e+02 1.088763e-20
7.000000e+02 1.238367e-20
7.010000e+02 1.407997e-20
7.020000e+02 1.600260e-20
7.030000e+02 1.818096e-20
7.040000e+02 2.064816e-20
7.050000e+02 2.344145e-20
7.060000e+02 2.660280e-20
7.070000e+02 3.017939e-20
7.080000e+02 3.422429e-20
7.090000e+02 3.879717e-20
7.100000e+02 4.396508e-20
7.110000e+02 4.980335e-20
7.120000e+02 5.639661e-20
7.130000e+02 6.383981e-20
7.140000e+02 7.223956e-20
7.150000e+02 8.171547e-20
7.160000e+02 9.240163e-20
7.170000e+02 1.044484e-19
7.180000e+02 1.180244e-19
7.190000e+02 1.333183e-19
7.200000e+02 1.505416e-19
7.210000e+02 1.699310e-19
7.220000e+02 1.917516e-19
7.230000e+02 2.162997e-19
7.240000e+02 2.439070e-19
7.250000e+02 2.749442e-19
7.260000e+02 3.098256e-19
7.270000e+02 3.490144e-19
7.280000e+02 3.930278e-19
7.290000e+02 4.424431e-19
7.300000e+02 4.979052e-19
7.310000e+02 5.601334e-19
7.320000e+02 6.299303e-19
7.330000e+02 7.081909e-19
7.340000e+02 7.959129e-19
7.350000e+02 8.942084e-19
7.360000e+02 1.004316e-18
7.370000e+02 1.127616e-18
7.380000e+02 1.265645e-18
7.390000e+02 1.420113e-18
7.400000e+02 1.592923e-18
7.410000e+02 1.786191e-18
7.420000e+02 2.002272e-18
7.430000e+02 2.243783e-18
7.440000e+02 2.513632e-18
7.450000e+02 2.815051e-18
7.460000e+02 3.151628e-18
7.470000e+02 3.527350e-18
7.480000e+02 3.946640e-18
7.490000e+02 4.414406e-18
7.500000e+02 4.936094e-18
7.510000e+02 5.517744e-18
7.520000e+02 6.166052e-18
7.530000e+02 6.888440e-18
7.540000e+02 7.693130e-18
7.550000e+02 8.589232e-18
7.560000e+02 9.586835e-18
7.570000e+02 1.069710e-17
7.580000e+02 1.193240e-17
7.590000e+02 1.330640e-17
7.600000e+02 1.483424e-17
7.610000e+02 1.653263e-17
7.620000e+02 1.842007e-17
7.630000e+02 2.051700e-17
7.640000e+02 2.284600e-17
7.650000e+02 2.543201e-17
7.660000e+02 2.830257e-17
7.670000e+02 3.148808e-17
7.680000e+02 3.502211e-17
7.690000e+02 3.894166e-17
7.700000e+02 4.328759e-17
7.710000e+02 4.810492e-17
7.720000e+02 5.344329e-17
7.730000e+02 5.935742e-17
7.740000e+02 6.590758e-17
7.750000e+02 7.316019e-17
7.760000e+02 8.118837e-17
7.770000e+02 9.007262e-17
7.780000e+02 9.990156e-17
7.790000e+02 1.107727e-16
7.800000e+02 1.227932e-16
7.810000e+02 1.360812e-16
7.820000e+02 1.507662e-16
7.830000e+02 1.669909e-16
7.840000e+02 1.849119e-16
7.850000e+02 2.047012e-16
7.860000e+02 2.265480e-16
7.870000e+02 2.506598e-16
7.880000e+02 2.772643e-16
7.890000e+02 3.066118e-16
7.900000e+02 3.389764e-16
7.910000e+02 3.746593e-16
7.920000e+02 4.139905e-16
7.930000e+02 4.573318e-16
7.940000e+02 5.050799e-16
7.950000e+02 5.576694e-16
7.960000e+02 6.155764e-16
7.970000e+02 6.793226e-16
7.980000e+02 7.494792e-16
7.990000e+02 8.266711e-16
8.000000e+02 9.115828e-16
8.010000e+02 1.004963e-15
8.020000e+02 1.107631e-15
8.030000e+02 1.220482e-15
8.040000e+02 1.344496e-15
8.050000e+02 1.480744e-15
8.060000e+02 1.630396e-15
8.070000e+02 1.794730e-15
8.080000e+02 1.975143e-15
8.090000e+02 2.173161e-15
8.100000e+02 2.390449e-15
8.110000e+02 2.628825e-15
8.120000e+02 2.890274e-15
8.130000e+02 3.176959e-15
8.140000e+02 3.491243e-15
8.150000e+02 3.835701e-15
8.160000e+02 4.213140e-15
8.170000e+02 4.626623e-15
8.180000e+02 5.079484e-15
8.190000e+02 5.575359e-15
8.200000e+02 6.118207e-15
8.210000e+02 6.712341e-15
8.220000e+02 7.362456e-15
8.230000e+02 8.073662e-15
8.240000e+02 8.851525e-15
8.250000e+02 9.702095e-15
8.260000e+02 1.063196e-14
8.270000e+02 1.164828e-14
8.280000e+02 1.275884e-14
8.290000e+02 1.397212e-14
8.300000e+02 1.529731e-14
8.310000e+02 1.674441e-14
8.320000e+02 1.832430e-14
8.330000e+02 2.004876e-14
8.340000e+02 2.193062e-14
8.350000e+02 2.398380e-14
8.360000e+02 2.622339e-14
8.370000e+02 2.866579e-14
8.380000e+02 3.132880e-14
8.390000e+02 3.423169e-14
8.400000e+02 3.739542e-14
8.410000e+02 4.084266e-14
8.420000e+02 4.459802e-14
8.430000e+02 4.868818e-14
8.440000e+02 5.314202e-14
8.450000e+02 5.799086e-14
8.460000e+02 6.326862e-14
8.470000e+02 6.901204e-14
8.480000e+02 7.526088e-14
8.490000e+02 8.205821e-14
8.500000e+02 8.945064e-14
8.510000e+02 9.748859e-14
8.520000e+02 1.062266e-13
8.530000e+02 1.157238e-13
8.540000e+02 1.260439e-13
8.550000e+02 1.372560e-13
8.560000e+02 1.494346e-13
8.570000e+02 1.626605e-13
8.580000e+02 1.770207e-13
8.590000e+02 1.926094e-13
8.600000e+02 2.095284e-13
8.610000e+02 2.278875e-13
8.620000e+02 2.478052e-13
8.630000e+02 2.694096e-13
8.640000e+02 2.928389e-13
8.650000e+02 3.182423e-13
8.660000e+02 3.457806e-13
8.670000e+02 3.756275e-13
8.680000e+02 4.079701e-13
8.690000e+02 4.430103e-13
8.700000e+02 4.809659e-13
8.710000e+02 5.220713e-13
8.720000e+02 5.665795e-13
8.730000e+02 6.147629e-13
8.740000e+02 6.669149e-13
8.750000e+02 7.233518e-13
8.760000e+02 7.844140e-13
8.770000e+02 8.504681e-13
8.780000e+02 9.219087e-13
8.790000e+02 9.991605e-13
8.800000e+02 1.082681e-12
8.810000e+02 1.172961e-12
8.820000e+02 1.270530e-12
8.830000e+02 1.375958e-12
8.840000e+02 1.489856e-12
8.850000e+02 1.612881e-12
8.860000e+02 1.745742e-12
8.870000e+02 1.889197e-12
8.880000e+02 2.044065e-12
8.890000e+02 2.211221e-12
8.900000e+02 2.391610e-12
8.910000e+02 2.586243e-12
8.920000e+02 2.796207e-12
8.930000e+02 3.022670e-12
8.940000e+02 3.266885e-12
8.950000e+02 3.530195e-12
8.960000e+02 3.814045e-12
8.970000e+02 4.119981e-12
8.980000e+02 4.449665e-12
8.990000e+02 4.804878e-12
9.000000e+02 5.187531e-12
9.010000e+02 5.599669e-12
9.020000e+02 6.043489e-12
9.030000e+02 6.521345e-12
9.040000e+02 7.035756e-12
9.050000e+02 7.589425e-12
9.060000e+02 8.185245e-12
9.070000e+02 8.826316e-12
9.080000e+02 9.515957e-12
9.090000e+02 1.025772e-11
9.100000e+02 1.105542e-11
9.110000e+02 1.191312e-11
9.120000e+02 1.283518e-11
9.130000e+02 1.382626e-11
9.140000e+02 1.514266e-11
9.150000e+02 3.266546e-09
9.160000e+02 2.126502e-08
9.170000e+02 4.809873e-10
9.180000e+02 4.247235e-09
9.190000e+02 6.097434e-08
9.200000e+02 1.724792e-07
9.210000e+02 2.491782e-11
9.220000e+02 9.319695e-08
9.230000e+02 5.163931e-10
9.240000e+02 7.078711e-10
9.250000e+02 1.223675e-08
9.260000e+02 6.348088e-09
9.270000e+02 7.286831e-10
9.280000e+02 1.075627e-06
9.290000e+02 1.054391e-06
9.300000e+02 2.263776e-07
9.310000e+02 1.028859e-09
9.320000e+02 8.448372e-07
9.330000e+02 1.035935e-07
9.340000e+02 2.149841e-08
9.350000e+02 1.760538e-09
9.360000e+02 2.829060e-09
9.370000e+02 4.080876e-10
9.380000e+02 1.432223e-09
9.390000e+02 1.055896e-08
9.400000e+02 1.014052e-06
9.410000e+02 1.245035e-07
9.420000e+02 3.836823e-06
9.430000e+02 1.695594e-08
9.440000e+02 4.372798e-06
9.450000e+02 4.040942e-06
9.460000e+02 3.593663e-07
9.470000e+02 2.845155e-10
9.480000e+02 1.136766e-06
9.490000e+02 1.225776e-07
9.500000e+02 2.580694e-09
9.510000e+02 2.599742e-07
9.520000e+02 7.484078e-07
9.530000e+02 3.430110e-09
9.540000e+02 3.523504e-10
9.550000e+02 4.032563e-08
9.560000e+02 5.261048e-06
9.570000e+02 1.844461e-08
9.580000e+02 3.363851e-10
9.590000e+02 2.003587e-06
9.600000e+02 5.439063e-09
9.610000e+02 5.984175e-07
9.620000e+02 1.853682e-07
9.630000e+02 1.869284e-08
9.640000e+02 5.075847e-09
9.650000e+02 1.076387e-09
9.660000e+02 4.262301e-08
9.670000e+02 6.095888e-09
9.680000e+02 4.215508e-09
9.690000e+02 2.778197e-07
9.700000e+02 5.406506e-07
9.710000e+02 1.076638e-08
9.720000e+02 3.411323e-09
9.730000e+02 2.813290e-08
9.740000e+02 3.870826e-07
9.750000e+02 1.033077e-07
9.760000e+02 5.609165e-06
9.770000e+02 2.683173e-06
9.780000e+02 1.042913e-06
9.790000e+02 2.596450e-05
9.800000e+02 2.293903e-05
9.810000e+02 5.245693e-07
9.820000e+02 7.924928e-08
9.830000e+02 2.070053e-05
9.840000e+02 7.067313e-07
9.850000e+02 2.037524e-07
9.860000e+02 3.666453e-07
9.870000e+02 2.012718e-05
9.880000e+02 4.233698e-09
9.890000e+02 3.819179e-06
9.900000e+02 1.405292e-05
9.910000e+02 9.525627e-08
9.920000e+02 3.033462e-09
9.930000e+02 5.398036e-05
9.940000e+02 5.241816e-09
9.950000e+02 1.763804e-06
9.960000e+02 1.911576e-08
9.970000e+02 3.575758e-06
9.980000e+02 1.634139e-05
9.990000e+02 1.521600e-07
1.000000e+03 9.923717e-05
1.001000e+03 7.944632e-05
1.002000e+03 6.726087e-05
1.003000e+03 1.474473e-07
1.004000e+03 8.112693e-09
1.005000e+03 6.989358e-07
1.006000e+03 5.225173e-05
1.007000e+03 8.790308e-05
1.008000e+03 2.861036e-05
1.009000e+03 2.311381e-07
1.010000e+03 2.685051e-05
1.011000e+03 3.062991e-05
1.012000e+03 4.229729e-05
1.013000e+03 4.082522e-05
1.014000e+03 1.164244e-08
1.015000e+03 1.695662e-08
1.016000e+03 1.000721e-06
1.017000e+03 1.383887e-08
1.018000e+03 2.224315e-07
1.019000e+03 1.778972e-08
1.020000e+03 5.637595e-05
1.021000e+03 6.114242e-07
1.022000e+03 8.583629e-07
1.023000e+03 3.938476e-08
1.024000e+03 5.811322e-06
1.025000e+03 2.216447e-08
1.026000e+03 3.266428e-08
1.027000e+03 1.841549e-06
1.028000e+03 1.805720e-07
1.029000e+03 2.799425e-08
1.030000e+03 3.436944e-06
1.031000e+03 1.126532e-05
1.032000e+03 1.638392e-04
1.033000e+03 1.691304e-06
1.034000e+03 1.295035e-05
1.035000e+03 1.309163e-07
1.036000e+03 4.221511e-08
1.037000e+03 1.466177e-04
1.038000e+03 9.731239e-04
1.039000e+03 1.709765e-04
1.040000e+03 1.106548e-04
1.041000e+03 9.272049e-04
1.042000e+03 6.526473e-04
1.043000e+03 7.039162e-04
1.044000e+03 2.709187e-03
1.045000e+03 1.118498e-07
1.046000e+03 1.125679e-04
1.047000e+03 4.773343e-05
1.048000e+03 5.183247e-07
1.049000e+03 3.876910e-05
1.050000e+03 7.376439e-06
1.051000e+03 3.780704e-06
1.052000e+03 9.689993e-04
1.053000e+03 1.601586e-03
1.054000e+03 1.150474e-07
1.055000e+03 1.864455e-03
1.056000e+03 2.238135e-03
1.057000e+03 1.660954e-04
1.058000e+03 3.392637e-06
1.059000e+03 3.603171e-06
1.060000e+03 8.127536e-07
1.061000e+03 3.615408e-04
1.062000e+03 1.779244e-06
1.063000e+03 1.887157e-04
1.064000e+03 2.859160e-07
1.065000e+03 2.094312e-07
1.066000e+03 5.480723e-04
1.067000e+03 3.203121e-06
1.068000e+03 5.476642e-03
1.069000e+03 6.816213e-07
1.070000e+03 4.330184e-05
1.071000e+03 1.319078e-03
1.072000e+03 6.518650e-03
1.073000e+03 3.278255e-07
1.074000e+03 1.876749e-04
1.075000e+03 9.654835e-05
1.076000e+03 7.081484e-03
1.077000e+03 2.580520e-06
1.078000e+03 5.327165e-06
1.079000e+03 3.014532e-05
1.080000e+03 1.919170e-04
1.081000e+03 1.564192e-03
1.082000e+03 6.971890e-04
1.083000e+03 3.068047e-04
1.084000e+03 1.733696e-02
1.085000e+03 5.303742e-05
1.086000e+03 1.033754e-02
1.087000e+03 8.977018e-06
1.088000e+03 1.910519e-02
1.089000e+03 2.106786e-02
1.090000e+03 4.054996e-05
1.091000e+03 7.072650e-05
1.092000e+03 1.787054e-02
1.093000e+03 2.405982e-02
1.094000e+03 7.251322e-04
1.095000e+03 3.044561e-02
1.096000e+03 1.050572e-03
1.097000e+03 7.578248e-03
1.098000e+03 2.637953e-02
1.099000e+03 1.672283e-04
1.100000e+03 2.107729e-06
1.101000e+03 6.318238e-06
1.102000e+03 1.219639e-04
1.103000e+03 3.397233e-02
1.104000e+03 3.681795e-02
1.105000e+03 3.826992e-02
1.106000e+03 7.745054e-04
1.107000e+03 4.461966e-06
1.108000e+03 8.666834e-03
1.109000e+03 6.651878e-05
1.110000e+03 4.244727e-02
1.111000e+03 2.757233e-02
1.112000e+03 3.089160e-03
1.113000e+03 3.133352e-02
1.114000e+03 1.491164e-03
1.115000e+03 7.241318e-05
1.116000e+03 1.972086e-05
1.117000e+03 3.614033e-02
1.118000e+03 1.189501e-04
1.119000e+03 2.986272e-03
1.120000e+03 3.625453e-05
1.121000e+03 2.162037e-02
1.122000e+03 9.961862e-02
1.123000e+03 5.603009e-02
1.124000e+03 7.029133e-02
1.125000e+03 2.784643e-02
1.126000e+03 1.516382e-01
1.127000e+03 3.011868e-02
1.128000e+03 6.912996e-02
1.129000e+03 1.184118e-02
1.130000e+03 7.545421e-02
1.131000e+03 7.133735e-02
1.132000e+03 6.820471e-05
1.133000e+03 9.189099e-04
1.134000e+03 1.732735e-02
1.135000e+03 7.180594e-02
1.136000e+03 1.903947e-03
1.137000e+03 4.769315e-02
1.138000e+03 1.224405e-02
1.139000e+03 7.372795e-02
1.140000e+03 6.327052e-02
1.141000e+03 7.185032e-02
1.142000e+03 7.593183e-02
1.143000e+03 1.251829e-02
1.144000e+03 7.564516e-02
1.145000e+03 4.133210e-05
1.146000e+03 7.915779e-02
1.147000e+03 7.403933e-02
1.148000e+03 3.974065e-04
1.149000e+03 4.903937e-02
1.150000e+03 3.999364e-02
1.151000e+03 7.369220e-02
1.152000e+03 4.970482e-02
1.153000e+03 7.053564e-02
1.154000e+03 7.593155e-02
1.155000e+03 4.673406e-02
1.156000e+03 5.552625e-02
1.157000e+03 6.666788e-02
1.158000e+03 1.503700e-02
1.159000e+03 6.777149e-02
1.160000e+03 2.250116e-02
1.161000e+03 6.097338e-02
1.162000e+03 2.011817e-03
1.163000e+03 9.143945e-03
1.164000e+03 1.792740e-04
1.165000e+03 3.043668e-02
1.166000e+03 1.659462e-02
1.167000e+03 1.214885e-02
1.168000e+03 7.117437e-02
1.169000e+03 7.486956e-02
1.170000e+03 1.024734e-02
1.171000e+03 3.344418e-02
1.172000e+03 2.100112e-02
1.173000e+03 2.387279e-02
1.174000e+03 2.784505e-04
1.175000e+03 1.182240e-04
1.176000e+03 5.330704e-05
1.177000e+03 9.530848e-02
1.178000e+03 9.035026e-02
1.179000e+03 8.363790e-02
1.180000e+03 5.616825e-02
1.181000e+03 7.740965e-02
1.182000e+03 7.286853e-02
1.183000e+03 5.102780e-02
1.184000e+03 4.482284e-02
1.185000e+03 4.873336e-02
1.186000e+03 1.575458e-03
1.187000e+03 5.909845e-02
1.188000e+03 3.603577e-02
1.189000e+03 6.025459e-02
1.190000e+03 5.841861e-02
1.191000e+03 5.233297e-02
1.192000e+03 4.989011e-02
1.193000e+03 4.593031e-02
1.194000e+03 4.798925e-02
1.195000e+03 4.570436e-02
1.196000e+03 6.860796e-01
1.197000e+03 8.214519e-01
1.198000e+03 5.823985e-03
1.199000e+03 6.748881e-01
1.200000e+03 2.587573e-02
1.201000e+03 4.991073e-01
1.202000e+03 2.088477e-01
1.203000e+03 3.476944e-01
1.204000e+03 2.954506e-02
1.205000e+03 2.224690e-01
1.206000e+03 1.770416e-01
1.207000e+03 2.610251e-02
1.208000e+03 8.802628e-02
1.209000e+03 6.529408e-02
1.210000e+03 2.702326e-04
1.211000e+03 2.427882e-02
1.212000e+03 1.147712e-02
1.213000e+03 5.261763e-03
1.214000e+03 1.545117e-03
1.215000e+03 2.844446e-04
1.216000e+03 2.513175e-04
1.217000e+03 9.795188e-04
1.218000e+03 4.360715e-03
1.219000e+03 1.192142e-02
1.220000e+03 1.570778e-02
1.221000e+03 5.078714e-02
1.222000e+03 8.250359e-02
1.223000e+03 1.056510e-01
1.224000e+03 1.819697e-01
1.225000e+03 1.102486e-02
1.226000e+03 4.040549e-01
1.227000e+03 5.511664e-01
1.228000e+03 1.221971e-01
1.229000e+03 8.074480e-01
1.230000e+03 6.715531e-01
1.231000e+03 5.935478e-02
1.232000e+03 1.586300e+00
1.233000e+03 1.887866e+00
1.234000e+03 1.909333e+00
1.235000e+03 2.235664e+00
1.236000e+03 2.461815e-01
1.237000e+03 3.020044e+00
1.238000e+03 3.165970e+00
1.239000e+03 1.686481e+00
1.240000e+03 1.104847e+00
1.241000e+03 2.124589e+00
1.242000e+03 3.801661e+00
1.243000e+03 4.880922e+00
1.244000e+03 5.290126e+00
1.245000e+03 5.409326e+00
1.246000e+03 3.941994e+00
1.247000e+03 5.170569e+00
1.248000e+03 4.948647e+00
1.249000e+03 6.991228e+00
1.250000e+03 4.602668e+00
1.251000e+03 7.405661e+00
1.252000e+03 6.466580e+00
1.253000e+03 7.914811e+00
1.254000e+03 6.977862e+00
1.255000e+03 1.652807e+00
1.256000e+03 5.284311e+00
1.257000e+03 4.320587e+00
1.258000e+03 3.714465e+00
1.259000e+03 5.305336e+00
1.260000e+03 8.831297e+00
1.261000e+03 1.398726e-01
1.262000e+03 9.230701e+00
1.263000e+03 8.430154e+00
1.264000e+03 4.551616e+00
1.265000e+03 5.983294e+00
1.266000e+03 1.093460e+01
1.267000e+03 7.796204e+00
