# wavelength_A flux
5.000000e+02 4.658265e-15
5.010000e+02 5.458059e-15
5.020000e+02 6.390991e-15
5.030000e+02 7.478523e-15
5.040000e+02 8.745444e-15
5.050000e+02 9.046128e-15
5.060000e+02 1.057448e-14
5.070000e+02 1.235311e-14
5.080000e+02 1.442168e-14
5.090000e+02 1.682595e-14
5.100000e+02 1.961868e-14
5.110000e+02 2.286056e-14
5.120000e+02 2.662155e-14
5.130000e+02 3.098208e-14
5.140000e+02 3.603463e-14
5.150000e+02 4.188760e-14
5.160000e+02 4.865670e-14
5.170000e+02 5.650115e-14
5.180000e+02 6.554105e-14
5.190000e+02 7.599910e-14
5.200000e+02 8.807363e-14
5.210000e+02 1.020072e-13
5.220000e+02 1.181425e-13
5.230000e+02 1.365952e-13
5.240000e+02 1.579253e-13
5.250000e+02 1.824745e-13
5.260000e+02 2.107262e-13
5.270000e+02 2.432133e-13
5.280000e+02 2.805495e-13
5.290000e+02 3.238591e-13
5.300000e+02 3.726662e-13
5.310000e+02 4.291519e-13
5.320000e+02 4.939249e-13
5.330000e+02 5.681613e-13
5.340000e+02 6.531979e-13
5.350000e+02 7.505562e-13
5.360000e+02 8.619870e-13
5.370000e+02 1.051402e-12
5.380000e+02 1.135109e-12
5.390000e+02 1.301310e-12
5.400000e+02 1.491238e-12
5.410000e+02 1.708905e-12
5.420000e+02 1.955359e-12
5.430000e+02 2.237104e-12
5.440000e+02 2.558278e-12
5.450000e+02 2.924055e-12
5.460000e+02 3.343748e-12
5.470000e+02 3.814120e-12
5.480000e+02 4.352810e-12
5.490000e+02 4.965037e-12
5.500000e+02 5.660559e-12
5.510000e+02 6.450294e-12
5.520000e+02 7.346567e-12
5.530000e+02 8.363253e-12
5.540000e+02 9.515970e-12
5.550000e+02 1.082229e-11
5.560000e+02 1.230196e-11
5.570000e+02 1.397720e-11
5.580000e+02 1.587295e-11
5.590000e+02 1.801723e-11
5.600000e+02 2.044147e-11
5.610000e+02 2.318096e-11
5.620000e+02 2.627525e-11
5.630000e+02 2.976867e-11
5.640000e+02 3.371092e-11
5.650000e+02 3.815767e-11
5.660000e+02 4.317099e-11
5.670000e+02 4.882078e-11
5.680000e+02 5.518486e-11
5.690000e+02 6.235036e-11
5.700000e+02 7.041480e-11
5.710000e+02 7.948633e-11
5.720000e+02 8.968690e-11
5.730000e+02 1.011518e-10
5.740000e+02 1.140320e-10
5.750000e+02 1.284863e-10
5.760000e+02 1.447693e-10
5.770000e+02 1.629365e-10
5.780000e+02 1.833657e-10
5.790000e+02 2.062682e-10
5.800000e+02 2.319326e-10
5.810000e+02 2.606805e-10
5.820000e+02 2.928709e-10
5.830000e+02 3.289138e-10
5.840000e+02 3.697202e-10
5.850000e+02 4.143954e-10
5.860000e+02 4.646430e-10
5.870000e+02 5.209109e-10
5.880000e+02 5.837686e-10
5.890000e+02 6.539727e-10
5.900000e+02 7.322727e-10
5.910000e+02 8.196478e-10
5.920000e+02 9.170817e-10
5.930000e+02 1.025690e-09
5.940000e+02 1.146706e-09
5.950000e+02 1.281496e-09
5.960000e+02 1.431567e-09
5.970000e+02 1.598589e-09
5.980000e+02 1.784406e-09
5.990000e+02 1.991053e-09
6.000000e+02 2.220777e-09
6.010000e+02 2.476103e-09
6.020000e+02 2.759640e-09
6.030000e+02 3.074535e-09
6.040000e+02 3.424071e-09
6.050000e+02 3.811919e-09
6.060000e+02 4.242152e-09
6.070000e+02 4.719118e-09
6.080000e+02 5.247817e-09
6.090000e+02 5.833608e-09
6.100000e+02 6.482425e-09
6.110000e+02 7.200780e-09
6.120000e+02 7.995853e-09
6.130000e+02 8.875522e-09
6.140000e+02 9.848446e-09
6.150000e+02 1.092412e-08
6.160000e+02 1.211300e-08
6.170000e+02 1.342654e-08
6.180000e+02 1.487729e-08
6.190000e+02 1.647905e-08
6.200000e+02 1.824691e-08
6.210000e+02 2.019746e-08
6.220000e+02 2.234883e-08
6.230000e+02 2.472089e-08
6.240000e+02 2.733541e-08
6.250000e+02 3.021621e-08
6.260000e+02 3.338935e-08
6.270000e+02 3.688334e-08
6.280000e+02 4.072935e-08
6.290000e+02 4.496146e-08
6.300000e+02 4.961693e-08
6.310000e+02 5.487535e-08
6.320000e+02 6.036436e-08
6.330000e+02 6.655140e-08
6.340000e+02 7.334416e-08
6.350000e+02 8.081172e-08
6.360000e+02 8.900093e-08
6.370000e+02 9.799266e-08
6.380000e+02 1.078597e-07
6.390000e+02 1.186826e-07
6.400000e+02 1.305505e-07
6.410000e+02 1.435601e-07
6.420000e+02 1.578169e-07
6.430000e+02 1.734357e-07
6.440000e+02 1.905413e-07
6.450000e+02 2.092699e-07
6.460000e+02 2.297685e-07
6.470000e+02 2.521988e-07
6.480000e+02 2.767341e-07
6.490000e+02 3.035652e-07
6.500000e+02 3.328987e-07
6.510000e+02 3.649555e-07
6.520000e+02 3.999814e-07
6.530000e+02 4.382391e-07
6.540000e+02 4.800150e-07
6.550000e+02 5.256182e-07
6.560000e+02 5.753864e-07
6.570000e+02 6.297195e-07
6.580000e+02 6.889061e-07
6.590000e+02 7.534812e-07
6.600000e+02 8.238743e-07
6.610000e+02 9.005848e-07
6.620000e+02 9.841597e-07
6.630000e+02 1.075187e-06
6.640000e+02 1.174302e-06
6.650000e+02 1.282199e-06
6.660000e+02 1.399613e-06
6.670000e+02 1.527358e-06
6.680000e+02 1.666303e-06
6.690000e+02 1.817388e-06
6.700000e+02 1.981630e-06
6.710000e+02 2.160127e-06
6.720000e+02 2.354064e-06
6.730000e+02 2.564722e-06
6.740000e+02 2.793480e-06
6.750000e+02 3.041828e-06
6.760000e+02 3.311374e-06
6.770000e+02 3.603851e-06
6.780000e+02 3.921127e-06
6.790000e+02 4.265216e-06
6.800000e+02 4.638288e-06
6.810000e+02 5.042680e-06
6.820000e+02 5.480910e-06
6.830000e+02 5.955686e-06
6.840000e+02 6.469932e-06
6.850000e+02 7.026788e-06
6.860000e+02 7.629626e-06
6.870000e+02 8.282088e-06
6.880000e+02 8.988081e-06
6.890000e+02 9.751810e-06
6.900000e+02 1.057779e-05
6.910000e+02 1.147088e-05
6.920000e+02 1.243629e-05
6.930000e+02 1.347963e-05
6.940000e+02 1.460692e-05
6.950000e+02 1.582462e-05
6.960000e+02 1.713966e-05
6.970000e+02 1.856059e-05
6.980000e+02 2.009209e-05
6.990000e+02 2.174604e-05
7.000000e+02 2.353051e-05
7.010000e+02 2.545536e-05
7.020000e+02 2.753115e-05
7.030000e+02 2.976919e-05
7.040000e+02 3.218161e-05
7.050000e+02 3.478140e-05
7.060000e+02 3.758246e-05
7.070000e+02 4.059970e-05
7.080000e+02 4.384905e-05
7.090000e+02 4.734767e-05
7.100000e+02 5.111357e-05
7.110000e+02 5.516654e-05
7.120000e+02 5.952738e-05
7.130000e+02 6.421844e-05
7.140000e+02 6.926362e-05
7.150000e+02 7.468845e-05
7.160000e+02 8.052021e-05
7.170000e+02 8.678877e-05
7.180000e+02 9.352696e-05
7.190000e+02 1.007588e-04
7.200000e+02 1.085304e-04
7.210000e+02 1.168759e-04
7.220000e+02 1.258359e-04
7.230000e+02 1.354534e-04
7.240000e+02 1.457746e-04
7.250000e+02 1.568486e-04
7.260000e+02 1.687279e-04
7.270000e+02 1.814684e-04
7.280000e+02 1.951295e-04
7.290000e+02 2.097749e-04
7.300000e+02 2.254721e-04
7.310000e+02 2.422933e-04
7.320000e+02 2.603153e-04
7.330000e+02 2.796199e-04
7.340000e+02 3.002940e-04
7.350000e+02 3.224305e-04
7.360000e+02 3.461289e-04
7.370000e+02 3.714915e-04
7.380000e+02 3.986326e-04
7.390000e+02 4.276703e-04
7.400000e+02 4.587320e-04
7.410000e+02 4.919488e-04
7.420000e+02 5.274677e-04
7.430000e+02 5.654367e-04
7.440000e+02 6.060201e-04
7.450000e+02 6.493882e-04
7.460000e+02 6.957234e-04
7.470000e+02 7.452190e-04
7.480000e+02 7.980805e-04
7.490000e+02 8.545261e-04
7.500000e+02 9.147873e-04
7.510000e+02 9.791099e-04
7.520000e+02 1.047755e-03
7.530000e+02 1.120998e-03
7.540000e+02 1.199134e-03
7.550000e+02 1.282474e-03
7.560000e+02 1.371348e-03
7.570000e+02 1.466122e-03
7.580000e+02 1.567118e-03
7.590000e+02 1.674790e-03
7.600000e+02 1.789503e-03
7.610000e+02 1.911731e-03
7.620000e+02 2.041934e-03
7.630000e+02 2.180607e-03
7.640000e+02 2.328273e-03
7.650000e+02 2.485490e-03
7.660000e+02 2.652839e-03
7.670000e+02 2.830949e-03
7.680000e+02 3.020512e-03
7.690000e+02 3.222116e-03
7.700000e+02 3.436595e-03
7.710000e+02 3.664711e-03
7.720000e+02 3.907276e-03
7.730000e+02 4.165167e-03
7.740000e+02 4.439302e-03
7.750000e+02 4.730655e-03
7.760000e+02 5.040590e-03
7.770000e+02 5.369184e-03
7.780000e+02 5.718592e-03
7.790000e+02 6.089697e-03
7.800000e+02 6.483776e-03
7.810000e+02 6.902178e-03
7.820000e+02 7.346336e-03
7.830000e+02 7.817755e-03
7.840000e+02 8.318025e-03
7.850000e+02 8.848825e-03
7.860000e+02 9.411926e-03
7.870000e+02 1.000913e-02
7.880000e+02 1.064254e-02
7.890000e+02 1.131416e-02
7.900000e+02 1.202618e-02
7.910000e+02 1.278093e-02
7.920000e+02 1.358083e-02
7.930000e+02 1.442844e-02
7.940000e+02 1.532648e-02
7.950000e+02 1.627778e-02
7.960000e+02 1.728536e-02
7.970000e+02 1.835237e-02
7.980000e+02 1.948215e-02
7.990000e+02 2.067818e-02
8.000000e+02 2.194418e-02
8.010000e+02 2.328403e-02
8.020000e+02 2.470179e-02
8.030000e+02 2.620179e-02
8.040000e+02 2.778855e-02
8.050000e+02 2.946683e-02
8.060000e+02 3.124165e-02
8.070000e+02 3.311827e-02
8.080000e+02 3.510223e-02
8.090000e+02 3.719936e-02
8.100000e+02 3.941578e-02
8.110000e+02 4.175793e-02
8.120000e+02 4.423258e-02
8.130000e+02 4.684684e-02
8.140000e+02 4.960816e-02
8.150000e+02 5.252451e-02
8.160000e+02 5.560383e-02
8.170000e+02 5.885507e-02
8.180000e+02 6.228722e-02
8.190000e+02 6.590983e-02
8.200000e+02 6.973290e-02
8.210000e+02 7.376698e-02
8.220000e+02 7.802308e-02
8.230000e+02 8.251280e-02
8.240000e+02 8.724827e-02
8.250000e+02 9.224226e-02
8.260000e+02 9.750813e-02
8.270000e+02 1.030599e-01
8.280000e+02 1.089123e-01
8.290000e+02 1.150808e-01
8.300000e+02 1.215814e-01
8.310000e+02 1.284312e-01
8.320000e+02 1.356479e-01
8.330000e+02 1.432502e-01
8.340000e+02 1.512575e-01
8.350000e+02 1.597241e-01
8.360000e+02 1.685723e-01
8.370000e+02 1.779188e-01
8.380000e+02 1.877606e-01
8.390000e+02 1.981195e-01
8.400000e+02 2.090217e-01
8.410000e+02 2.204943e-01
8.420000e+02 2.325756e-01
8.430000e+02 2.452627e-01
8.440000e+02 2.586197e-01
8.450000e+02 2.726677e-01
8.460000e+02 2.874405e-01
8.470000e+02 3.029736e-01
8.480000e+02 3.193039e-01
8.490000e+02 3.364702e-01
8.500000e+02 3.545129e-01
8.510000e+02 3.734743e-01
8.520000e+02 3.933992e-01
8.530000e+02 4.143324e-01
8.540000e+02 4.363202e-01
8.550000e+02 4.594193e-01
8.560000e+02 4.836792e-01
8.570000e+02 5.091552e-01
8.580000e+02 5.359055e-01
8.590000e+02 5.639880e-01
8.600000e+02 5.934681e-01
8.610000e+02 6.244105e-01
8.620000e+02 6.568834e-01
8.630000e+02 6.909594e-01
8.640000e+02 7.267115e-01
8.650000e+02 7.642198e-01
8.660000e+02 8.035632e-01
8.670000e+02 8.448287e-01
8.680000e+02 8.881043e-01
8.690000e+02 9.334822e-01
8.700000e+02 9.810640e-01
8.710000e+02 1.030936e+00
8.720000e+02 1.083217e+00
8.730000e+02 1.138011e+00
8.740000e+02 1.195434e+00
8.750000e+02 1.255604e+00
8.760000e+02 1.318645e+00
8.770000e+02 1.384689e+00
8.780000e+02 1.453864e+00
8.790000e+02 1.526316e+00
8.800000e+02 1.602190e+00
8.810000e+02 1.681639e+00
8.820000e+02 1.764820e+00
8.830000e+02 1.851901e+00
8.840000e+02 1.943053e+00
8.850000e+02 2.038456e+00
8.860000e+02 2.138297e+00
8.870000e+02 2.242769e+00
8.880000e+02 2.352077e+00
8.890000e+02 2.466431e+00
8.900000e+02 2.586050e+00
8.910000e+02 2.711164e+00
8.920000e+02 2.848724e+00
8.930000e+02 2.978835e+00
8.940000e+02 3.121898e+00
8.950000e+02 3.271466e+00
8.960000e+02 3.427818e+00
8.970000e+02 3.591244e+00
8.980000e+02 3.762045e+00
8.990000e+02 3.940536e+00
9.000000e+02 4.127041e+00
9.010000e+02 4.321901e+00
9.020000e+02 4.525468e+00
9.030000e+02 4.738108e+00
9.040000e+02 4.960202e+00
9.050000e+02 5.192146e+00
9.060000e+02 5.434350e+00
9.070000e+02 5.687301e+00
9.080000e+02 5.951269e+00
9.090000e+02 6.226889e+00
9.100000e+02 6.514582e+00
9.110000e+02 6.814810e+00
9.120000e+02 7.127933e+00
9.130000e+02 7.544334e+00
9.140000e+02 7.138125e+00
9.150000e+02 4.014420e+01
9.160000e+02 1.596715e+02
9.170000e+02 7.416307e+01
9.180000e+02 1.206881e+02
9.190000e+02 3.317413e+02
9.200000e+02 4.079035e+02
9.210000e+02 1.076552e+01
9.220000e+02 4.029166e+02
9.230000e+02 9.391052e+01
9.240000e+02 1.481196e+02
9.250000e+02 2.930677e+02
9.260000e+02 3.097027e+02
9.270000e+02 1.095848e+02
9.280000e+02 5.796450e+02
9.290000e+02 5.103917e+02
9.300000e+02 5.913487e+02
9.310000e+02 1.024154e+02
9.320000e+02 6.684952e+02
9.330000e+02 5.379183e+02
9.340000e+02 4.210372e+02
9.350000e+02 6.777317e+00
9.360000e+02 1.434247e+02
9.370000e+02 6.120142e+00
9.380000e+02 1.253810e+02
9.390000e+02 2.170538e+02
9.400000e+02 8.564502e+02
9.410000e+02 8.245654e+01
9.420000e+02 9.461761e+02
9.430000e+02 3.010374e+02
9.440000e+02 7.359526e+02
9.450000e+02 1.045838e+03
9.460000e+02 9.166590e+02
9.470000e+02 5.733331e+01
9.480000e+02 1.009520e+03
9.490000e+02 1.101248e+03
9.500000e+02 1.368002e+01
9.510000e+02 9.358694e+02
9.520000e+02 1.099431e+03
9.530000e+02 9.166907e+01
9.540000e+02 6.063279e+01
9.550000e+02 6.940166e+02
9.560000e+02 1.429028e+03
9.570000e+02 1.531937e+02
9.580000e+02 2.628760e+01
9.590000e+02 1.666583e+03
9.600000e+02 1.624695e+01
9.610000e+02 1.351228e+03
9.620000e+02 9.697397e+02
9.630000e+02 8.331908e+02
9.640000e+02 4.235193e+01
9.650000e+02 1.119976e+02
9.660000e+02 8.517693e+02
9.670000e+02 3.084091e+02
9.680000e+02 1.610789e+02
9.690000e+02 1.493616e+03
9.700000e+02 1.368421e+03
9.710000e+02 3.049908e+02
9.720000e+02 4.244974e+02
9.730000e+02 1.695192e+03
9.740000e+02 1.760500e+03
9.750000e+02 1.154711e+03
9.760000e+02 2.718422e+03
9.770000e+02 2.578870e+03
9.780000e+02 1.867162e+03
9.790000e+02 3.281952e+03
9.800000e+02 3.392170e+03
9.810000e+02 2.171249e+03
9.820000e+02 8.573745e+02
9.830000e+02 3.632195e+03
9.840000e+02 2.741444e+02
9.850000e+02 1.793141e+03
9.860000e+02 1.835426e+03
9.870000e+02 4.135119e+03
9.880000e+02 1.892144e+02
9.890000e+02 2.566737e+03
9.900000e+02 6.108285e+01
9.910000e+02 4.986854e+02
9.920000e+02 7.967813e+01
9.930000e+02 4.603355e+03
9.940000e+02 9.064648e+01
9.950000e+02 2.152041e+02
9.960000e+02 3.891465e+02
9.970000e+02 1.424495e+02
9.980000e+02 4.953553e+03
9.990000e+02 6.708962e+02
1.000000e+03 6.125100e+03
1.001000e+03 6.667402e+03
1.002000e+03 6.730626e+03
1.003000e+03 1.552263e+03
1.004000e+03 3.429189e+02
1.005000e+03 2.413044e+03
1.006000e+03 7.441023e+03
1.007000e+03 7.909626e+03
1.008000e+03 7.414679e+03
1.009000e+03 2.260839e+03
1.010000e+03 7.895375e+03
1.011000e+03 8.788425e+03
1.012000e+03 8.355686e+03
1.013000e+03 8.310213e+03
1.014000e+03 1.591235e+02
1.015000e+03 3.530928e+02
1.016000e+03 2.485905e+03
1.017000e+03 1.724434e+02
1.018000e+03 2.452713e+03
1.019000e+03 3.877520e+02
1.020000e+03 1.140102e+04
1.021000e+03 1.020086e+03
1.022000e+03 2.400682e+03
1.023000e+03 5.056523e+02
1.024000e+03 1.041527e+04
1.025000e+03 1.966829e+02
1.026000e+03 4.680995e+02
1.027000e+03 6.683815e+03
1.028000e+03 2.207559e+02
1.029000e+03 2.729082e+02
1.030000e+03 9.197986e+03
1.031000e+03 6.491998e+03
1.032000e+03 1.391479e+04
1.033000e+03 4.883945e+02
1.034000e+03 1.071523e+04
1.035000e+03 3.142275e+02
1.036000e+03 3.788086e+02
1.037000e+03 1.636270e+04
1.038000e+03 1.971507e+04
1.039000e+03 1.797028e+04
1.040000e+03 1.910559e+04
1.041000e+03 2.168012e+04
1.042000e+03 2.174207e+04
1.043000e+03 1.916641e+04
1.044000e+03 2.402443e+04
1.045000e+03 2.194175e+04
1.046000e+03 2.372830e+04
1.047000e+03 1.462423e+04
1.048000e+03 1.918160e+03
1.049000e+03 1.883086e+04
1.050000e+03 1.408487e+04
1.051000e+03 9.874125e+03
1.052000e+03 2.812408e+04
1.053000e+03 3.038452e+04
1.054000e+03 6.050195e+02
1.055000e+03 3.256598e+04
1.056000e+03 3.342580e+04
1.057000e+03 2.430712e+04
1.058000e+03 1.443734e+04
1.059000e+03 5.413889e+03
1.060000e+03 2.821750e+03
1.061000e+03 2.869258e+04
1.062000e+03 9.435982e+03
1.063000e+03 4.974271e+03
1.064000e+03 1.008773e+03
1.065000e+03 9.358164e+02
1.066000e+03 3.148446e+04
1.067000e+03 4.615775e+03
1.068000e+03 4.707464e+04
1.069000e+03 1.935725e+03
1.070000e+03 3.440342e+04
1.071000e+03 5.032022e+04
1.072000e+03 5.144123e+04
1.073000e+03 1.450879e+03
1.074000e+03 3.035846e+04
1.075000e+03 2.413770e+04
1.076000e+03 5.758607e+04
1.077000e+03 2.784211e+03
1.078000e+03 1.682142e+04
1.079000e+03 3.414001e+04
1.080000e+03 4.302197e+04
1.081000e+03 5.570698e+04
1.082000e+03 5.414532e+04
1.083000e+03 4.785318e+04
1.084000e+03 7.225988e+04
1.085000e+03 2.566423e+04
1.086000e+03 7.592133e+04
1.087000e+03 9.687047e+03
1.088000e+03 8.006403e+04
1.089000e+03 8.247270e+04
1.090000e+03 2.609060e+04
1.091000e+03 2.688444e+04
1.092000e+03 8.785385e+04
1.093000e+03 9.010401e+04
1.094000e+03 7.724188e+04
1.095000e+03 9.566490e+04
1.096000e+03 4.116621e+04
1.097000e+03 8.730983e+04
1.098000e+03 1.027322e+05
1.099000e+03 6.311727e+04
1.100000e+03 6.516277e+03
1.101000e+03 1.215789e+04
1.102000e+03 4.385372e+04
1.103000e+03 2.873759e+05
1.104000e+03 1.957696e+05
1.105000e+03 1.161896e+05
1.106000e+03 1.615203e+05
1.107000e+03 6.142219e+03
1.108000e+03 2.973912e+05
1.109000e+03 3.115831e+04
1.110000e+03 2.310322e+05
1.111000e+03 2.058608e+05
1.112000e+03 2.515569e+05
1.113000e+03 3.825334e+05
1.114000e+03 8.138848e+04
1.115000e+03 5.825569e+04
1.116000e+03 4.122815e+04
1.117000e+03 8.646766e+04
1.118000e+03 4.466152e+04
1.119000e+03 3.247654e+05
1.120000e+03 4.151400e+04
1.121000e+03 4.126250e+05
1.122000e+03 1.054109e+04
1.123000e+03 2.835432e+05
1.124000e+03 4.709366e+05
1.125000e+03 3.672004e+05
1.126000e+03 5.443586e+05
1.127000e+03 5.010496e+05
1.128000e+03 2.731336e+05
1.129000e+03 3.968934e+05
1.130000e+03 5.359883e+05
1.131000e+03 5.556450e+05
1.132000e+03 2.179744e+04
1.133000e+03 9.923669e+04
1.134000e+03 4.136136e+05
1.135000e+03 1.863866e+04
1.136000e+03 2.192289e+05
1.137000e+03 6.135714e+05
1.138000e+03 4.188509e+05
1.139000e+03 6.648059e+05
1.140000e+03 1.873462e+04
1.141000e+03 6.660369e+05
1.142000e+03 7.133756e+05
1.143000e+03 6.002825e+05
1.144000e+03 7.368741e+05
1.145000e+03 2.925812e+04
1.146000e+03 7.771112e+05
1.147000e+03 7.588436e+05
1.148000e+03 1.090473e+05
1.149000e+03 7.471561e+05
1.150000e+03 6.407418e+05
1.151000e+03 8.437366e+05
1.152000e+03 8.308474e+05
1.153000e+03 6.131664e+05
1.154000e+03 8.739103e+05
1.155000e+03 7.664384e+05
1.156000e+03 8.190460e+05
1.157000e+03 9.061518e+05
1.158000e+03 1.207692e+05
1.159000e+03 9.207369e+05
1.160000e+03 6.441100e+05
1.161000e+03 9.778042e+05
1.162000e+03 2.241172e+05
1.163000e+03 4.894321e+05
1.164000e+03 1.542225e+04
1.165000e+03 1.027196e+06
1.166000e+03 9.542776e+05
1.167000e+03 9.493474e+05
1.168000e+03 1.138980e+06
1.169000e+03 1.144426e+06
1.170000e+03 1.016151e+06
1.171000e+03 1.132613e+06
1.172000e+03 8.125591e+05
1.173000e+03 1.242106e+06
1.174000e+03 1.189800e+05
1.175000e+03 2.176231e+04
1.176000e+03 3.019569e+04
1.177000e+03 1.354922e+06
1.178000e+03 1.373379e+06
1.179000e+03 1.371705e+06
1.180000e+03 1.025469e+06
1.181000e+03 1.447546e+06
1.182000e+03 1.427348e+06
1.183000e+03 1.299762e+06
1.184000e+03 1.248714e+06
1.185000e+03 1.416071e+06
1.186000e+03 4.480832e+05
1.187000e+03 1.488110e+06
1.188000e+03 1.059561e+06
1.189000e+03 5.343488e+04
1.190000e+03 1.299998e+06
1.191000e+03 1.530880e+06
1.192000e+03 1.668781e+06
1.193000e+03 8.153200e+04
1.194000e+03 6.607212e+04
1.195000e+03 1.584431e+06
1.196000e+03 1.709690e+06
1.197000e+03 2.483165e+06
1.198000e+03 9.301246e+05
1.199000e+03 2.454500e+06
1.200000e+03 1.220147e+06
1.201000e+03 2.373848e+06
1.202000e+03 1.850608e+06
1.203000e+03 2.731045e+06
1.204000e+03 1.075181e+06
1.205000e+03 2.410767e+06
1.206000e+03 2.441444e+06
1.207000e+03 3.004003e+05
1.208000e+03 1.882616e+06
1.209000e+03 1.540913e+06
1.210000e+03 6.420188e+04
1.211000e+03 8.576622e+05
1.212000e+03 4.830262e+05
1.213000e+03 2.546235e+05
1.214000e+03 9.892134e+04
1.215000e+03 6.040184e+04
1.216000e+03 9.166348e+04
1.217000e+03 7.781909e+04
1.218000e+03 2.091113e+05
1.219000e+03 4.771850e+05
1.220000e+03 6.348030e+05
1.221000e+03 1.347483e+06
1.222000e+03 1.789156e+06
1.223000e+03 2.256151e+06
1.224000e+03 2.714555e+06
1.225000e+03 9.945020e+05
1.226000e+03 3.816684e+06
1.227000e+03 4.126733e+06
1.228000e+03 2.648226e+06
1.229000e+03 4.475198e+06
1.230000e+03 4.328554e+06
1.231000e+03 2.464553e+06
1.232000e+03 5.753248e+06
1.233000e+03 6.095673e+06
1.234000e+03 4.363790e+06
1.235000e+03 6.416817e+06
1.236000e+03 3.555724e+06
1.237000e+03 6.930214e+06
1.238000e+03 6.867472e+06
1.239000e+03 6.712136e+06
1.240000e+03 4.170804e+06
1.241000e+03 6.607514e+06
1.242000e+03 7.358210e+06
1.243000e+03 8.108791e+06
1.244000e+03 7.793028e+06
1.245000e+03 8.117870e+06
1.246000e+03 8.337104e+06
1.247000e+03 8.598734e+06
1.248000e+03 6.943456e+06
1.249000e+03 8.990022e+06
1.250000e+03 7.451760e+06
1.251000e+03 9.860315e+06
1.252000e+03 9.443731e+06
1.253000e+03 1.022602e+07
1.254000e+03 9.995876e+06
1.255000e+03 1.036103e+07
1.256000e+03 1.009633e+07
1.257000e+03 9.604514e+06
1.258000e+03 9.307295e+06
1.259000e+03 1.070056e+07
1.260000e+03 1.145413e+07
1.261000e+03 3.184890e+05
1.262000e+03 9.798367e+06
1.263000e+03 1.183980e+07
1.264000e+03 1.083419e+07
1.265000e+03 4.686240e+05
1.266000e+03 1.267738e+07
1.267000e+03 1.167545e+07
