# wavelength_A flux
5.000000e+02 5.038742e-34
5.010000e+02 6.339457e-34
5.020000e+02 7.968684e-34
5.030000e+02 1.000756e-33
5.040000e+02 1.255707e-33
5.050000e+02 4.257340e-33
5.060000e+02 5.307554e-33
5.070000e+02 6.611266e-33
5.080000e+02 8.228321e-33
5.090000e+02 1.023237e-32
5.100000e+02 1.271395e-32
5.110000e+02 1.578467e-32
5.120000e+02 1.958204e-32
5.130000e+02 2.427143e-32
5.140000e+02 3.005949e-32
5.150000e+02 3.719668e-32
5.160000e+02 4.599478e-32
5.170000e+02 5.682105e-32
5.180000e+02 7.015403e-32
5.190000e+02 8.653854e-32
5.200000e+02 1.066649e-31
5.210000e+02 1.313601e-31
5.220000e+02 1.609808e-31
5.230000e+02 1.987826e-31
5.240000e+02 2.443273e-31
5.250000e+02 3.000136e-31
5.260000e+02 3.681036e-31
5.270000e+02 4.513051e-31
5.280000e+02 5.529067e-31
5.290000e+02 6.763944e-31
5.300000e+02 8.280019e-31
5.310000e+02 1.012148e-30
5.320000e+02 1.236340e-30
5.330000e+02 1.509144e-30
5.340000e+02 1.840716e-30
5.350000e+02 2.243437e-30
5.360000e+02 2.731603e-30
5.370000e+02 2.015443e-30
5.380000e+02 4.043404e-30
5.390000e+02 4.916321e-30
5.400000e+02 5.971688e-30
5.410000e+02 7.240103e-30
5.420000e+02 8.791046e-30
5.430000e+02 1.065560e-29
5.440000e+02 1.290663e-29
5.450000e+02 1.562230e-29
5.460000e+02 1.888492e-29
5.470000e+02 2.284181e-29
5.480000e+02 2.759224e-29
5.490000e+02 3.330855e-29
5.500000e+02 4.018252e-29
5.510000e+02 4.844327e-29
5.520000e+02 5.836412e-29
5.530000e+02 7.027103e-29
5.540000e+02 8.455242e-29
5.550000e+02 1.016714e-28
5.560000e+02 1.221777e-28
5.570000e+02 1.467266e-28
5.580000e+02 1.760967e-28
5.590000e+02 2.112169e-28
5.600000e+02 2.531779e-28
5.610000e+02 3.032863e-28
5.620000e+02 3.630874e-28
5.630000e+02 4.344123e-28
5.640000e+02 5.194303e-28
5.650000e+02 6.207064e-28
5.660000e+02 7.412858e-28
5.670000e+02 8.847519e-28
5.680000e+02 1.055353e-27
5.690000e+02 1.258098e-27
5.700000e+02 1.498904e-27
5.710000e+02 1.784750e-27
5.720000e+02 2.123860e-27
5.730000e+02 2.525980e-27
5.740000e+02 3.002425e-27
5.750000e+02 3.569031e-27
5.760000e+02 4.220656e-27
5.770000e+02 5.027808e-27
5.780000e+02 5.962419e-27
5.790000e+02 7.066693e-27
5.800000e+02 8.370681e-27
5.810000e+02 9.909477e-27
5.820000e+02 1.172366e-26
5.830000e+02 1.385661e-26
5.840000e+02 1.618128e-26
5.850000e+02 1.930005e-26
5.860000e+02 2.284827e-26
5.870000e+02 2.696977e-26
5.880000e+02 3.181047e-26
5.890000e+02 3.749628e-26
5.900000e+02 4.417683e-26
5.910000e+02 5.201783e-26
5.920000e+02 6.121805e-26
5.930000e+02 7.200733e-26
5.940000e+02 8.465376e-26
5.950000e+02 9.946941e-26
5.960000e+02 1.168175e-25
5.970000e+02 1.371205e-25
5.980000e+02 1.608698e-25
5.990000e+02 1.886373e-25
6.000000e+02 2.210843e-25
6.010000e+02 2.589278e-25
6.020000e+02 3.032297e-25
6.030000e+02 3.548523e-25
6.040000e+02 4.150571e-25
6.050000e+02 4.852365e-25
6.060000e+02 5.670030e-25
6.070000e+02 6.622245e-25
6.080000e+02 7.730603e-25
6.090000e+02 9.020095e-25
6.100000e+02 1.051958e-24
6.110000e+02 1.226252e-24
6.120000e+02 1.428738e-24
6.130000e+02 1.663911e-24
6.140000e+02 1.936828e-24
6.150000e+02 2.253451e-24
6.160000e+02 2.620606e-24
6.170000e+02 3.046167e-24
6.180000e+02 3.539194e-24
6.190000e+02 4.110133e-24
6.200000e+02 4.770994e-24
6.210000e+02 5.535565e-24
6.220000e+02 6.419746e-24
6.230000e+02 7.441801e-24
6.240000e+02 8.622688e-24
6.250000e+02 9.986485e-24
6.260000e+02 1.156098e-23
6.270000e+02 1.337758e-23
6.280000e+02 1.547288e-23
6.290000e+02 1.788846e-23
6.300000e+02 2.067191e-23
6.310000e+02 2.335630e-23
6.320000e+02 2.757049e-23
6.330000e+02 3.179437e-23
6.340000e+02 3.670760e-23
6.350000e+02 4.230561e-23
6.360000e+02 4.878763e-23
6.370000e+02 5.621304e-23
6.380000e+02 6.473921e-23
6.390000e+02 7.452691e-23
6.400000e+02 8.575868e-23
6.410000e+02 9.864229e-23
6.420000e+02 1.134146e-22
6.430000e+02 1.303458e-22
6.440000e+02 1.497433e-22
6.450000e+02 1.719574e-22
6.460000e+02 1.973873e-22
6.470000e+02 2.264866e-22
6.480000e+02 2.597716e-22
6.490000e+02 2.978293e-22
6.500000e+02 3.413028e-22
6.510000e+02 3.910232e-22
6.520000e+02 4.477796e-22
6.530000e+02 5.125722e-22
6.540000e+02 5.864987e-22
6.550000e+02 6.708567e-22
6.560000e+02 7.670398e-22
6.570000e+02 8.766165e-22
6.580000e+02 1.001585e-21
6.590000e+02 1.143865e-21
6.600000e+02 1.305852e-21
6.610000e+02 1.490233e-21
6.620000e+02 1.700000e-21
6.630000e+02 1.938568e-21
6.640000e+02 2.209793e-21
6.650000e+02 2.518022e-21
6.660000e+02 2.868205e-21
6.670000e+02 3.265882e-21
6.680000e+02 3.717339e-21
6.690000e+02 4.229662e-21
6.700000e+02 4.810851e-21
6.710000e+02 5.469923e-21
6.720000e+02 6.217053e-21
6.730000e+02 7.063705e-21
6.740000e+02 8.022852e-21
6.750000e+02 9.108944e-21
6.760000e+02 1.033841e-20
6.770000e+02 1.172971e-20
6.780000e+02 1.330358e-20
6.790000e+02 1.508338e-20
6.800000e+02 1.709539e-20
6.810000e+02 1.936905e-20
6.820000e+02 2.193756e-20
6.830000e+02 2.483816e-20
6.840000e+02 2.811270e-20
6.850000e+02 3.180804e-20
6.860000e+02 3.597719e-20
6.870000e+02 4.067898e-20
6.880000e+02 4.597983e-20
6.890000e+02 5.195409e-20
6.900000e+02 5.868552e-20
6.910000e+02 6.626671e-20
6.920000e+02 7.480263e-20
6.930000e+02 8.441038e-20
6.940000e+02 9.522106e-20
6.950000e+02 1.073814e-19
6.960000e+02 1.210555e-19
6.970000e+02 1.364232e-19
6.980000e+02 1.537006e-19
6.990000e+02 1.731062e-19
7.000000e+02 1.948997e-19
7.010000e+02 2.193674e-19
7.020000e+02 2.468288e-19
7.030000e+02 2.776406e-19
7.040000e+02 3.122009e-19
7.050000e+02 3.509544e-19
7.060000e+02 3.943974e-19
7.070000e+02 4.430786e-19
7.080000e+02 4.976148e-19
7.090000e+02 5.586886e-19
7.100000e+02 6.270745e-19
7.110000e+02 7.036124e-19
7.120000e+02 7.892531e-19
7.130000e+02 8.850503e-19
7.140000e+02 9.921770e-19
7.150000e+02 1.111937e-18
7.160000e+02 1.245781e-18
7.170000e+02 1.395313e-18
7.180000e+02 1.562314e-18
7.190000e+02 1.748862e-18
7.200000e+02 1.957066e-18
7.210000e+02 2.189433e-18
7.220000e+02 2.448658e-18
7.230000e+02 2.737780e-18
7.240000e+02 3.060156e-18
7.250000e+02 3.419507e-18
7.260000e+02 3.819961e-18
7.270000e+02 4.266095e-18
7.280000e+02 4.762977e-18
7.290000e+02 5.316236e-18
7.300000e+02 5.932074e-18
7.310000e+02 6.617390e-18
7.320000e+02 7.379812e-18
7.330000e+02 8.227781e-18
7.340000e+02 9.170641e-18
7.350000e+02 1.021871e-17
7.360000e+02 1.138312e-17
7.370000e+02 1.267744e-17
7.380000e+02 1.411466e-17
7.390000e+02 1.571052e-17
7.400000e+02 1.748198e-17
7.410000e+02 1.944811e-17
7.420000e+02 2.162933e-17
7.430000e+02 2.404894e-17
7.440000e+02 2.673196e-17
7.450000e+02 2.970640e-17
7.460000e+02 3.300303e-17
7.470000e+02 3.665580e-17
7.480000e+02 4.070214e-17
7.490000e+02 4.518327e-17
7.500000e+02 5.014464e-17
7.510000e+02 5.563641e-17
7.520000e+02 6.171349e-17
7.530000e+02 6.843664e-17
7.540000e+02 7.587266e-17
7.550000e+02 8.409505e-17
7.560000e+02 9.318466e-17
7.570000e+02 1.032270e-16
7.580000e+02 1.143301e-16
7.590000e+02 1.265903e-16
7.600000e+02 1.401319e-16
7.610000e+02 1.550821e-16
7.620000e+02 1.715845e-16
7.630000e+02 1.897953e-16
7.640000e+02 2.098868e-16
7.650000e+02 2.320473e-16
7.660000e+02 2.564846e-16
7.670000e+02 2.834255e-16
7.680000e+02 3.131156e-16
7.690000e+02 3.418156e-16
7.700000e+02 3.818394e-16
7.710000e+02 4.215902e-16
7.720000e+02 4.653077e-16
7.730000e+02 5.134357e-16
7.740000e+02 5.664048e-16
7.750000e+02 6.246892e-16
7.760000e+02 6.886634e-16
7.770000e+02 7.593261e-16
7.780000e+02 8.368671e-16
7.790000e+02 9.221089e-16
7.800000e+02 1.015795e-15
7.810000e+02 1.118737e-15
7.820000e+02 1.231825e-15
7.830000e+02 1.356029e-15
7.840000e+02 1.492411e-15
7.850000e+02 1.642130e-15
7.860000e+02 1.806453e-15
7.870000e+02 1.986921e-15
7.880000e+02 2.184747e-15
7.890000e+02 2.401723e-15
7.900000e+02 2.639648e-15
7.910000e+02 2.900488e-15
7.920000e+02 3.186385e-15
7.930000e+02 3.499678e-15
7.940000e+02 3.842919e-15
7.950000e+02 4.218875e-15
7.960000e+02 4.630583e-15
7.970000e+02 5.081343e-15
7.980000e+02 5.574751e-15
7.990000e+02 6.114724e-15
8.000000e+02 6.705531e-15
8.010000e+02 7.351806e-15
8.020000e+02 8.058637e-15
8.030000e+02 8.831493e-15
8.040000e+02 9.676377e-15
8.050000e+02 1.059980e-14
8.060000e+02 1.160886e-14
8.070000e+02 1.271125e-14
8.080000e+02 1.391536e-14
8.090000e+02 1.523029e-14
8.100000e+02 1.666594e-14
8.110000e+02 1.823306e-14
8.120000e+02 1.994334e-14
8.130000e+02 2.180951e-14
8.140000e+02 2.384527e-14
8.150000e+02 2.606560e-14
8.160000e+02 2.848677e-14
8.170000e+02 3.112637e-14
8.180000e+02 3.400355e-14
8.190000e+02 3.713903e-14
8.200000e+02 4.055532e-14
8.210000e+02 4.427681e-14
8.220000e+02 4.832993e-14
8.230000e+02 5.274337e-14
8.240000e+02 5.754817e-14
8.250000e+02 6.277803e-14
8.260000e+02 6.846937e-14
8.270000e+02 7.466170e-14
8.280000e+02 8.139779e-14
8.290000e+02 8.872392e-14
8.300000e+02 9.669024e-14
8.310000e+02 1.053510e-13
8.320000e+02 1.147651e-13
8.330000e+02 1.249955e-13
8.340000e+02 1.361113e-13
8.350000e+02 1.478500e-13
8.360000e+02 1.613001e-13
8.370000e+02 1.755434e-13
8.380000e+02 1.910034e-13
8.390000e+02 2.077896e-13
8.400000e+02 2.260050e-13
8.410000e+02 2.457701e-13
8.420000e+02 2.672060e-13
8.430000e+02 2.904705e-13
8.440000e+02 3.156928e-13
8.450000e+02 3.430402e-13
8.460000e+02 3.726863e-13
8.470000e+02 4.048183e-13
8.480000e+02 4.396381e-13
8.490000e+02 4.773636e-13
8.500000e+02 5.182298e-13
8.510000e+02 5.624906e-13
8.520000e+02 6.104166e-13
8.530000e+02 6.623061e-13
8.540000e+02 7.184797e-13
8.550000e+02 7.792672e-13
8.560000e+02 8.450431e-13
8.570000e+02 9.162039e-13
8.580000e+02 9.867003e-13
8.590000e+02 1.076420e-12
8.600000e+02 1.166431e-12
8.610000e+02 1.262036e-12
8.620000e+02 1.368922e-12
8.630000e+02 1.482591e-12
8.640000e+02 1.605409e-12
8.650000e+02 1.738031e-12
8.660000e+02 1.881424e-12
8.670000e+02 2.036203e-12
8.680000e+02 2.203329e-12
8.690000e+02 2.383751e-12
8.700000e+02 2.578472e-12
8.710000e+02 2.788661e-12
8.720000e+02 3.015432e-12
8.730000e+02 3.260078e-12
8.740000e+02 3.523963e-12
8.750000e+02 3.808549e-12
8.760000e+02 4.115410e-12
8.770000e+02 4.446223e-12
8.780000e+02 4.802783e-12
8.790000e+02 5.187141e-12
8.800000e+02 5.601240e-12
8.810000e+02 6.047382e-12
8.820000e+02 6.527974e-12
8.830000e+02 7.045547e-12
8.840000e+02 7.602864e-12
8.850000e+02 8.202958e-12
8.860000e+02 8.848898e-12
8.870000e+02 9.544121e-12
8.880000e+02 1.029225e-11
8.890000e+02 1.109716e-11
8.900000e+02 1.196310e-11
8.910000e+02 1.289447e-11
8.920000e+02 1.389251e-11
8.930000e+02 1.497301e-11
8.940000e+02 1.613077e-11
8.950000e+02 1.737528e-11
8.960000e+02 1.871274e-11
8.970000e+02 2.014991e-11
8.980000e+02 2.169393e-11
8.990000e+02 2.335256e-11
9.000000e+02 2.513396e-11
9.010000e+02 2.704694e-11
9.020000e+02 2.910076e-11
9.030000e+02 3.130365e-11
9.040000e+02 3.367230e-11
9.050000e+02 3.620859e-11
9.060000e+02 3.893778e-11
9.070000e+02 4.186132e-11
9.080000e+02 4.499813e-11
9.090000e+02 4.836203e-11
9.100000e+02 5.196932e-11
9.110000e+02 5.583855e-11
9.120000e+02 6.000518e-11
9.130000e+02 5.544535e-11
9.140000e+02 5.820766e-10
9.150000e+02 1.343644e-03
9.160000e+02 2.091898e-03
9.170000e+02 1.495243e-04
9.180000e+02 2.245494e-03
9.190000e+02 2.515952e-03
9.200000e+02 2.645331e-03
9.210000e+02 1.047340e-10
9.220000e+02 2.516563e-03
9.230000e+02 3.465320e-04
9.240000e+02 2.697797e-04
9.250000e+02 1.412639e-03
9.260000e+02 3.284969e-03
9.270000e+02 1.348621e-04
9.280000e+02 3.714126e-03
9.290000e+02 3.871678e-03
9.300000e+02 3.937695e-03
9.310000e+02 2.323642e-04
9.320000e+02 4.411276e-03
9.330000e+02 4.600177e-03
9.340000e+02 2.813571e-03
9.350000e+02 7.025928e-07
9.360000e+02 2.955731e-04
9.370000e+02 2.213683e-07
9.380000e+02 1.401971e-04
9.390000e+02 8.558415e-04
9.400000e+02 5.992024e-03
9.410000e+02 1.239145e-05
9.420000e+02 6.181026e-03
9.430000e+02 1.273835e-03
9.440000e+02 5.463133e-03
9.450000e+02 7.302193e-03
9.460000e+02 6.469268e-03
9.470000e+02 1.121312e-05
9.480000e+02 1.662216e-03
9.490000e+02 7.886940e-03
9.500000e+02 6.323680e-07
9.510000e+02 7.461743e-03
9.520000e+02 8.501150e-03
9.530000e+02 1.208789e-04
9.540000e+02 1.300254e-05
9.550000e+02 3.173827e-03
9.560000e+02 2.113137e-03
9.570000e+02 1.205467e-04
9.580000e+02 3.277324e-06
9.590000e+02 1.349774e-02
9.600000e+02 8.987263e-07
9.610000e+02 1.149213e-02
9.620000e+02 8.080078e-03
9.630000e+02 2.214242e-03
9.640000e+02 4.097819e-07
9.650000e+02 3.510807e-05
9.660000e+02 4.118036e-03
9.670000e+02 3.618840e-04
9.680000e+02 1.655184e-04
9.690000e+02 1.422255e-02
9.700000e+02 1.289247e-02
9.710000e+02 4.991275e-04
9.720000e+02 2.573002e-04
9.730000e+02 9.065721e-03
9.740000e+02 1.465517e-02
9.750000e+02 6.646933e-03
9.760000e+02 2.591466e-02
9.770000e+02 2.522487e-02
9.780000e+02 1.913181e-02
9.790000e+02 3.151372e-02
9.800000e+02 3.280320e-02
9.810000e+02 1.991392e-02
9.820000e+02 4.414201e-03
9.830000e+02 3.694282e-02
9.840000e+02 2.460607e-04
9.850000e+02 1.198364e-02
9.860000e+02 1.320464e-02
9.870000e+02 4.430651e-02
9.880000e+02 7.836148e-05
9.890000e+02 3.353273e-02
9.900000e+02 1.694803e-04
9.910000e+02 1.681230e-03
9.920000e+02 1.407902e-05
9.930000e+02 3.381894e-02
9.940000e+02 5.960464e-07
9.950000e+02 5.932384e-04
9.960000e+02 3.421158e-04
9.970000e+02 1.731142e-05
9.980000e+02 5.756859e-02
9.990000e+02 1.516262e-03
1.000000e+03 6.188027e-02
1.001000e+03 8.633091e-02
1.002000e+03 8.949879e-02
1.003000e+03 6.347678e-03
1.004000e+03 1.346618e-04
1.005000e+03 2.473778e-02
1.006000e+03 1.059808e-01
1.007000e+03 1.120784e-01
1.008000e+03 1.090441e-01
1.009000e+03 7.596554e-03
1.010000e+03 1.206120e-01
1.011000e+03 1.326217e-01
1.012000e+03 1.325200e-01
1.013000e+03 1.363249e-01
1.014000e+03 4.004687e-05
1.015000e+03 1.897663e-04
1.016000e+03 2.005489e-02
1.017000e+03 3.346801e-05
1.018000e+03 9.593517e-03
1.019000e+03 1.923293e-04
1.020000e+03 1.858402e-01
1.021000e+03 8.823425e-04
1.022000e+03 1.136100e-02
1.023000e+03 5.172789e-04
1.024000e+03 8.043187e-02
1.025000e+03 3.127736e-05
1.026000e+03 3.154651e-04
1.027000e+03 4.674634e-02
1.028000e+03 2.795458e-05
1.029000e+03 6.920099e-05
1.030000e+03 1.236074e-01
1.031000e+03 1.401388e-01
1.032000e+03 1.547876e-01
1.033000e+03 3.964603e-04
1.034000e+03 1.808029e-01
1.035000e+03 1.266599e-05
1.036000e+03 1.517236e-04
1.037000e+03 3.634499e-01
1.038000e+03 4.055144e-01
1.039000e+03 3.773254e-01
1.040000e+03 4.335916e-01
1.041000e+03 4.170033e-01
1.042000e+03 4.787006e-01
1.043000e+03 2.733003e-01
1.044000e+03 5.317097e-01
1.045000e+03 5.001545e-01
1.046000e+03 5.143763e-01
1.047000e+03 3.466592e-01
1.048000e+03 5.545318e-03
1.049000e+03 3.962232e-01
1.050000e+03 1.934946e-01
1.051000e+03 8.502728e-02
1.052000e+03 6.990434e-01
1.053000e+03 7.514337e-01
1.054000e+03 2.433658e-04
1.055000e+03 7.627988e-01
1.056000e+03 8.395012e-01
1.057000e+03 6.488190e-01
1.058000e+03 1.285350e-01
1.059000e+03 6.079984e-02
1.060000e+03 7.094741e-03
1.061000e+03 8.750419e-01
1.062000e+03 4.731158e-02
1.063000e+03 1.025600e-03
1.064000e+03 2.598763e-05
1.065000e+03 4.215240e-04
1.066000e+03 1.482685e-01
1.067000e+03 2.891813e-02
1.068000e+03 1.350805e+00
1.069000e+03 4.889531e-03
1.070000e+03 8.143272e-01
1.071000e+03 1.471455e+00
1.072000e+03 1.551477e+00
1.073000e+03 1.097083e-03
1.074000e+03 1.062281e+00
1.075000e+03 8.261789e-01
1.076000e+03 1.785412e+00
1.077000e+03 1.235723e-03
1.078000e+03 1.235369e-01
1.079000e+03 7.376011e-01
1.080000e+03 1.082157e+00
1.081000e+03 1.985244e+00
1.082000e+03 1.861189e+00
1.083000e+03 1.606517e+00
1.084000e+03 2.185508e+00
1.085000e+03 4.059248e-01
1.086000e+03 2.570558e+00
1.087000e+03 7.685852e-02
1.088000e+03 2.723796e+00
1.089000e+03 2.804485e+00
1.090000e+03 5.550792e-01
1.091000e+03 7.525787e-01
1.092000e+03 2.748805e+00
1.093000e+03 3.182778e+00
1.094000e+03 2.646396e+00
1.095000e+03 3.417249e+00
1.096000e+03 6.025910e-02
1.097000e+03 3.340752e+00
1.098000e+03 3.663875e+00
1.099000e+03 1.683571e+00
1.100000e+03 1.458891e-02
1.101000e+03 4.840416e-02
1.102000e+03 1.125258e+00
1.103000e+03 4.607249e+00
1.104000e+03 4.676095e+00
1.105000e+03 4.610537e+00
1.106000e+03 3.423405e+00
1.107000e+03 2.319050e-02
1.108000e+03 5.079353e+00
1.109000e+03 5.148449e-01
1.110000e+03 4.546382e+00
1.111000e+03 5.470871e+00
1.112000e+03 4.971860e+00
1.113000e+03 4.416889e+00
1.114000e+03 3.829916e+00
1.115000e+03 6.671925e-01
1.116000e+03 2.613714e-01
1.117000e+03 5.668396e+00
1.118000e+03 8.206797e-01
1.119000e+03 5.749677e+00
1.120000e+03 3.387442e-01
1.121000e+03 6.698978e+00
1.122000e+03 1.536110e+00
1.123000e+03 6.888725e+00
1.124000e+03 7.230900e+00
1.125000e+03 6.577664e+00
1.126000e+03 7.641356e+00
1.127000e+03 7.576871e+00
1.128000e+03 5.286438e+00
1.129000e+03 7.393954e+00
1.130000e+03 8.132320e+00
1.131000e+03 7.184140e+00
1.132000e+03 3.240914e-01
1.133000e+03 3.219162e+00
1.134000e+03 8.212807e+00
1.135000e+03 2.240767e-01
1.136000e+03 5.311685e+00
1.137000e+03 9.322465e+00
1.138000e+03 8.557777e+00
1.139000e+03 9.789395e+00
1.140000e+03 6.786337e+00
1.141000e+03 1.014925e+01
1.142000e+03 1.019401e+01
1.143000e+03 8.856220e+00
1.144000e+03 1.012957e+01
1.145000e+03 1.797676e-01
1.146000e+03 1.119540e+01
1.147000e+03 1.137185e+01
1.148000e+03 2.218923e+00
1.149000e+03 1.137427e+01
1.150000e+03 1.170606e+01
1.151000e+03 1.232999e+01
1.152000e+03 1.251438e+01
1.153000e+03 1.139792e+01
1.154000e+03 1.265574e+01
1.155000e+03 1.286459e+01
1.156000e+03 1.332005e+01
1.157000e+03 1.295408e+01
1.158000e+03 1.104027e+01
1.159000e+03 1.418998e+01
1.160000e+03 1.345225e+01
1.161000e+03 1.471370e+01
1.162000e+03 6.106936e+00
1.163000e+03 1.169380e+01
1.164000e+03 1.190948e-02
1.165000e+03 1.569293e+01
1.166000e+03 1.588948e+01
1.167000e+03 1.629820e+01
1.168000e+03 1.699783e+01
1.169000e+03 1.690118e+01
1.170000e+03 1.684831e+01
1.171000e+03 1.795995e+01
1.172000e+03 1.763513e+01
1.173000e+03 1.889562e+01
1.174000e+03 1.227560e+00
1.175000e+03 1.183701e-02
1.176000e+03 3.319740e-03
1.177000e+03 2.066245e+01
1.178000e+03 2.101781e+01
1.179000e+03 2.143099e+01
1.180000e+03 1.971167e+01
1.181000e+03 2.202165e+01
1.182000e+03 2.260470e+01
1.183000e+03 2.261975e+01
1.184000e+03 2.302621e+01
1.185000e+03 2.381455e+01
1.186000e+03 7.659602e+00
1.187000e+03 2.453873e+01
1.188000e+03 2.291490e+01
1.189000e+03 1.972029e+01
1.190000e+03 2.624610e+01
1.191000e+03 2.660089e+01
1.192000e+03 2.680834e+01
1.193000e+03 8.114977e+00
1.194000e+03 2.207963e+01
1.195000e+03 2.759871e+01
1.196000e+03 2.804393e+01
1.197000e+03 4.775452e+01
1.198000e+03 2.261719e+01
1.199000e+03 4.635508e+01
1.200000e+03 3.213274e+01
1.201000e+03 4.380246e+01
1.202000e+03 4.127955e+01
1.203000e+03 5.537843e+01
1.204000e+03 3.563559e+01
1.205000e+03 4.676290e+01
1.206000e+03 4.520720e+01
1.207000e+03 1.914875e+00
1.208000e+03 3.068667e+01
1.209000e+03 2.178496e+01
1.210000e+03 1.818752e-02
1.211000e+03 9.244801e+00
1.212000e+03 4.332310e+00
1.213000e+03 1.713891e+00
1.214000e+03 4.359229e-01
1.215000e+03 4.210723e-02
1.216000e+03 9.058376e-03
1.217000e+03 2.527044e-01
1.218000e+03 1.323293e+00
1.219000e+03 3.913094e+00
1.220000e+03 8.570086e+00
1.221000e+03 1.626531e+01
1.222000e+03 2.791505e+01
1.223000e+03 3.865848e+01
1.224000e+03 4.363198e+01
1.225000e+03 2.696991e+01
1.226000e+03 7.603207e+01
1.227000e+03 8.728733e+01
1.228000e+03 8.592574e+01
1.229000e+03 1.095186e+02
1.230000e+03 6.648325e+01
1.231000e+03 7.304924e+01
1.232000e+03 1.356018e+02
1.233000e+03 1.458796e+02
1.234000e+03 9.538916e+01
1.235000e+03 1.612228e+02
1.236000e+03 1.432821e+02
1.237000e+03 1.753878e+02
1.238000e+03 1.819492e+02
1.239000e+03 1.839741e+02
1.240000e+03 2.049667e+01
1.241000e+03 1.799399e+02
1.242000e+03 2.058613e+02
1.243000e+03 2.121414e+02
1.244000e+03 2.172974e+02
1.245000e+03 2.240207e+02
1.246000e+03 2.272131e+02
1.247000e+03 2.324091e+02
1.248000e+03 1.207966e+02
1.249000e+03 2.497991e+02
1.250000e+03 1.935706e+02
1.251000e+03 2.627910e+02
1.252000e+03 2.538433e+02
1.253000e+03 2.754849e+02
1.254000e+03 2.742814e+02
1.255000e+03 1.871494e+02
1.256000e+03 2.920956e+02
1.257000e+03 2.015018e+02
1.258000e+03 2.849889e+02
1.259000e+03 3.166035e+02
1.260000e+03 3.265916e+02
1.261000e+03 7.431183e+00
1.262000e+03 3.427880e+02
1.263000e+03 2.928279e+02
1.264000e+03 3.529222e+02
1.265000e+03 1.987991e+00
1.266000e+03 3.769553e+02
1.267000e+03 3.797487e+02
