# wavelength_A flux
5.000000e+02 1.775754e-38
5.010000e+02 2.314550e-38
5.020000e+02 3.013585e-38
5.030000e+02 3.919546e-38
5.040000e+02 5.092449e-38
5.050000e+02 6.610910e-38
5.060000e+02 8.571032e-38
5.070000e+02 1.110069e-37
5.080000e+02 1.436213e-37
5.090000e+02 1.856258e-37
5.100000e+02 2.396244e-37
5.110000e+02 3.091329e-37
5.120000e+02 3.983234e-37
5.130000e+02 5.127343e-37
5.140000e+02 6.593447e-37
5.150000e+02 8.470331e-37
5.160000e+02 1.087073e-36
5.170000e+02 1.393766e-36
5.180000e+02 1.785239e-36
5.190000e+02 2.284444e-36
5.200000e+02 2.920417e-36
5.210000e+02 3.729855e-36
5.220000e+02 4.759083e-36
5.230000e+02 6.066574e-36
5.240000e+02 7.725967e-36
5.250000e+02 9.830020e-36
5.260000e+02 1.249541e-35
5.270000e+02 1.586877e-35
5.280000e+02 2.013424e-35
5.290000e+02 2.552281e-35
5.300000e+02 3.232404e-35
5.310000e+02 4.090050e-35
5.320000e+02 5.170586e-35
5.330000e+02 6.530723e-35
5.340000e+02 8.241293e-35
5.350000e+02 1.039068e-34
5.360000e+02 1.308910e-34
5.370000e+02 1.647315e-34
5.380000e+02 2.071576e-34
5.390000e+02 2.602737e-34
5.400000e+02 3.267271e-34
5.410000e+02 4.097958e-34
5.420000e+02 5.135462e-34
5.430000e+02 6.430181e-34
5.440000e+02 8.044527e-34
5.450000e+02 1.005573e-33
5.460000e+02 1.255927e-33
5.470000e+02 1.567310e-33
5.480000e+02 1.954282e-33
5.490000e+02 2.434800e-33
5.500000e+02 3.030993e-33
5.510000e+02 3.770111e-33
5.520000e+02 4.685682e-33
5.530000e+02 5.818929e-33
5.540000e+02 7.220488e-33
5.550000e+02 8.952519e-33
5.560000e+02 1.109127e-32
5.570000e+02 1.373017e-32
5.580000e+02 1.698366e-32
5.590000e+02 2.099180e-32
5.600000e+02 2.592580e-32
5.610000e+02 3.199493e-32
5.620000e+02 3.945463e-32
5.630000e+02 4.861662e-32
5.640000e+02 5.986088e-32
5.650000e+02 7.365034e-32
5.660000e+02 9.054855e-32
5.670000e+02 1.112411e-31
5.680000e+02 1.365612e-31
5.690000e+02 1.675211e-31
5.700000e+02 2.053496e-31
5.710000e+02 2.515370e-31
5.720000e+02 3.078896e-31
5.730000e+02 3.765956e-31
5.740000e+02 4.603032e-31
5.750000e+02 5.622157e-31
5.760000e+02 6.862048e-31
5.770000e+02 8.369474e-31
5.780000e+02 1.020088e-30
5.790000e+02 1.242435e-30
5.800000e+02 1.512195e-30
5.810000e+02 1.839255e-30
5.820000e+02 2.235515e-30
5.830000e+02 2.715288e-30
5.840000e+02 3.295783e-30
5.850000e+02 3.997676e-30
5.860000e+02 4.845783e-30
5.870000e+02 5.869881e-30
5.880000e+02 7.105671e-30
5.890000e+02 8.595931e-30
5.900000e+02 1.039188e-29
5.910000e+02 1.255482e-29
5.920000e+02 1.515804e-29
5.930000e+02 1.828914e-29
5.940000e+02 2.205276e-29
5.950000e+02 2.657378e-29
5.960000e+02 3.200116e-29
5.970000e+02 3.851250e-29
5.980000e+02 4.631936e-29
5.990000e+02 5.567365e-29
6.000000e+02 6.687510e-29
6.010000e+02 8.028017e-29
6.020000e+02 9.631247e-29
6.030000e+02 1.154751e-28
6.040000e+02 1.383654e-28
6.050000e+02 1.656918e-28
6.060000e+02 1.982944e-28
6.070000e+02 2.371683e-28
6.080000e+02 2.834924e-28
6.090000e+02 3.386614e-28
6.100000e+02 4.043254e-28
6.110000e+02 4.824349e-28
6.120000e+02 5.752939e-28
6.130000e+02 6.856234e-28
6.140000e+02 8.166342e-28
6.150000e+02 9.721129e-28
6.160000e+02 1.156523e-27
6.170000e+02 1.375124e-27
6.180000e+02 1.634106e-27
6.190000e+02 1.940756e-27
6.200000e+02 2.303642e-27
6.210000e+02 2.732837e-27
6.220000e+02 3.240173e-27
6.230000e+02 3.839544e-27
6.240000e+02 4.547254e-27
6.250000e+02 5.382427e-27
6.260000e+02 6.367480e-27
6.270000e+02 7.528677e-27
6.280000e+02 8.896773e-27
6.290000e+02 1.050776e-26
6.300000e+02 1.240375e-26
6.310000e+02 1.463397e-26
6.320000e+02 1.725594e-26
6.330000e+02 2.033684e-26
6.340000e+02 2.395508e-26
6.350000e+02 2.820218e-26
6.360000e+02 3.318481e-26
6.370000e+02 3.902732e-26
6.380000e+02 4.587458e-26
6.390000e+02 5.389524e-26
6.400000e+02 6.328556e-26
6.410000e+02 7.427386e-26
6.420000e+02 8.712554e-26
6.430000e+02 1.021490e-25
6.440000e+02 1.197024e-25
6.450000e+02 1.402016e-25
6.460000e+02 1.641290e-25
6.470000e+02 1.920440e-25
6.480000e+02 2.245953e-25
6.490000e+02 2.625341e-25
6.500000e+02 3.067306e-25
6.510000e+02 3.581920e-25
6.520000e+02 4.180833e-25
6.530000e+02 4.877519e-25
6.540000e+02 5.687553e-25
6.550000e+02 6.628923e-25
6.560000e+02 7.722408e-25
6.570000e+02 8.991985e-25
6.580000e+02 1.046532e-24
6.590000e+02 1.217431e-24
6.600000e+02 1.415573e-24
6.610000e+02 1.645193e-24
6.620000e+02 1.911171e-24
6.630000e+02 2.219120e-24
6.640000e+02 2.575500e-24
6.650000e+02 2.987742e-24
6.660000e+02 3.464384e-24
6.670000e+02 4.015237e-24
6.680000e+02 4.651572e-24
6.690000e+02 5.386323e-24
6.700000e+02 6.234335e-24
6.710000e+02 7.212631e-24
6.720000e+02 8.340730e-24
6.730000e+02 9.641000e-24
6.740000e+02 1.113906e-23
6.750000e+02 1.286425e-23
6.760000e+02 1.485014e-23
6.770000e+02 1.713515e-23
6.780000e+02 1.976319e-23
6.790000e+02 2.278447e-23
6.800000e+02 2.625635e-23
6.810000e+02 3.024435e-23
6.820000e+02 3.482325e-23
6.830000e+02 4.007841e-23
6.840000e+02 4.610717e-23
6.850000e+02 5.302055e-23
6.860000e+02 6.094505e-23
6.870000e+02 7.002480e-23
6.880000e+02 8.042396e-23
6.890000e+02 9.232937e-23
6.900000e+02 1.059536e-22
6.910000e+02 1.215387e-22
6.920000e+02 1.393594e-22
6.930000e+02 1.597283e-22
6.940000e+02 1.830005e-22
6.950000e+02 2.095792e-22
6.960000e+02 2.399222e-22
6.970000e+02 2.745489e-22
6.980000e+02 3.140485e-22
6.990000e+02 3.590891e-22
7.000000e+02 4.104280e-22
7.010000e+02 4.689233e-22
7.020000e+02 5.355467e-22
7.030000e+02 6.113984e-22
7.040000e+02 6.977237e-22
7.050000e+02 7.959312e-22
7.060000e+02 9.076141e-22
7.070000e+02 1.034573e-21
7.080000e+02 1.178844e-21
7.090000e+02 1.342725e-21
7.100000e+02 1.528813e-21
7.110000e+02 1.740038e-21
7.120000e+02 1.979707e-21
7.130000e+02 2.251551e-21
7.140000e+02 2.559774e-21
7.150000e+02 2.909119e-21
7.160000e+02 3.304927e-21
7.170000e+02 3.753216e-21
7.180000e+02 4.260760e-21
7.190000e+02 4.835187e-21
7.200000e+02 5.485075e-21
7.210000e+02 6.220078e-21
7.220000e+02 7.051047e-21
7.230000e+02 7.990180e-21
7.240000e+02 9.051184e-21
7.250000e+02 1.024945e-20
7.260000e+02 1.160227e-20
7.270000e+02 1.312905e-20
7.280000e+02 1.485156e-20
7.290000e+02 1.679421e-20
7.300000e+02 1.898440e-20
7.310000e+02 2.145282e-20
7.320000e+02 2.423387e-20
7.330000e+02 2.736609e-20
7.340000e+02 3.089263e-20
7.350000e+02 3.486179e-20
7.360000e+02 3.932763e-20
7.370000e+02 4.435064e-20
7.380000e+02 4.999845e-20
7.390000e+02 5.634668e-20
7.400000e+02 6.347983e-20
7.410000e+02 7.149235e-20
7.420000e+02 8.048969e-20
7.430000e+02 9.058963e-20
7.440000e+02 1.019236e-19
7.450000e+02 1.146383e-19
7.460000e+02 1.288973e-19
7.470000e+02 1.448831e-19
7.480000e+02 1.627991e-19
7.490000e+02 1.828719e-19
7.500000e+02 2.053543e-19
7.510000e+02 2.305273e-19
7.520000e+02 2.587043e-19
7.530000e+02 2.902339e-19
7.540000e+02 3.255040e-19
7.550000e+02 3.649460e-19
7.560000e+02 4.090400e-19
7.570000e+02 4.583195e-19
7.580000e+02 5.133773e-19
7.590000e+02 5.748724e-19
7.600000e+02 6.435364e-19
7.610000e+02 7.201821e-19
7.620000e+02 8.057112e-19
7.630000e+02 9.011251e-19
7.640000e+02 1.007534e-18
7.650000e+02 1.126170e-18
7.660000e+02 1.258399e-18
7.670000e+02 1.405734e-18
7.680000e+02 1.569854e-18
7.690000e+02 1.752616e-18
7.700000e+02 1.956080e-18
7.710000e+02 2.182523e-18
7.720000e+02 2.434469e-18
7.730000e+02 2.714709e-18
7.740000e+02 3.026331e-18
7.750000e+02 3.372750e-18
7.760000e+02 3.757741e-18
7.770000e+02 4.185480e-18
7.780000e+02 4.660577e-18
7.790000e+02 5.188127e-18
7.800000e+02 5.773758e-18
7.810000e+02 6.423682e-18
7.820000e+02 7.144756e-18
7.830000e+02 7.944549e-18
7.840000e+02 8.831410e-18
7.850000e+02 9.814544e-18
7.860000e+02 1.090411e-17
7.870000e+02 1.211129e-17
7.880000e+02 1.344842e-17
7.890000e+02 1.492910e-17
7.900000e+02 1.656829e-17
7.910000e+02 1.838246e-17
7.920000e+02 2.038977e-17
7.930000e+02 2.261018e-17
7.940000e+02 2.506566e-17
7.950000e+02 2.778038e-17
7.960000e+02 3.078092e-17
7.970000e+02 3.409650e-17
7.980000e+02 3.775924e-17
7.990000e+02 4.180443e-17
8.000000e+02 4.627086e-17
8.010000e+02 5.120111e-17
8.020000e+02 5.664193e-17
8.030000e+02 6.264468e-17
8.040000e+02 6.926568e-17
8.050000e+02 7.656677e-17
8.060000e+02 8.461574e-17
8.070000e+02 9.348696e-17
8.080000e+02 1.032620e-16
8.090000e+02 1.140302e-16
8.100000e+02 1.258895e-16
8.110000e+02 1.389472e-16
8.120000e+02 1.533208e-16
8.130000e+02 1.691392e-16
8.140000e+02 1.865431e-16
8.150000e+02 2.056868e-16
8.160000e+02 2.267392e-16
8.170000e+02 2.498848e-16
8.180000e+02 2.753256e-16
8.190000e+02 3.032824e-16
8.200000e+02 3.339967e-16
8.210000e+02 3.677324e-16
8.220000e+02 4.047779e-16
8.230000e+02 4.454481e-16
8.240000e+02 4.900871e-16
8.250000e+02 5.390707e-16
8.260000e+02 5.928090e-16
8.270000e+02 6.517498e-16
8.280000e+02 7.163816e-16
8.290000e+02 7.872373e-16
8.300000e+02 8.648984e-16
8.310000e+02 9.499987e-16
8.320000e+02 1.043229e-15
8.330000e+02 1.145344e-15
8.340000e+02 1.257163e-15
8.350000e+02 1.379581e-15
8.360000e+02 1.513572e-15
8.370000e+02 1.660198e-15
8.380000e+02 1.820613e-15
8.390000e+02 1.996075e-15
8.400000e+02 2.187952e-15
8.410000e+02 2.397734e-15
8.420000e+02 2.627039e-15
8.430000e+02 2.877630e-15
8.440000e+02 3.151422e-15
8.450000e+02 3.450498e-15
8.460000e+02 3.777120e-15
8.470000e+02 4.133748e-15
8.480000e+02 4.523054e-15
8.490000e+02 4.947941e-15
8.500000e+02 5.411560e-15
8.510000e+02 5.917332e-15
8.520000e+02 6.468974e-15
8.530000e+02 7.070516e-15
8.540000e+02 7.726332e-15
8.550000e+02 8.441169e-15
8.560000e+02 9.220172e-15
8.570000e+02 1.006892e-14
8.580000e+02 1.099347e-14
8.590000e+02 1.200038e-14
8.600000e+02 1.309676e-14
8.610000e+02 1.429030e-14
8.620000e+02 1.558935e-14
8.630000e+02 1.700295e-14
8.640000e+02 1.854089e-14
8.650000e+02 2.021374e-14
8.660000e+02 2.203299e-14
8.670000e+02 2.401103e-14
8.680000e+02 2.616130e-14
8.690000e+02 2.849833e-14
8.700000e+02 3.103780e-14
8.710000e+02 3.379673e-14
8.720000e+02 3.679346e-14
8.730000e+02 4.004785e-14
8.740000e+02 4.358135e-14
8.750000e+02 4.741715e-14
8.760000e+02 5.158028e-14
8.770000e+02 5.609780e-14
8.780000e+02 6.099890e-14
8.790000e+02 6.631513e-14
8.800000e+02 7.208053e-14
8.810000e+02 7.833185e-14
8.820000e+02 8.510871e-14
8.830000e+02 9.245390e-14
8.840000e+02 1.004136e-13
8.850000e+02 1.090374e-13
8.860000e+02 1.183792e-13
8.870000e+02 1.284967e-13
8.880000e+02 1.394522e-13
8.890000e+02 1.513130e-13
8.900000e+02 1.641514e-13
8.910000e+02 1.780455e-13
8.920000e+02 1.930792e-13
8.930000e+02 2.093429e-13
8.940000e+02 2.269341e-13
8.950000e+02 2.459577e-13
8.960000e+02 2.665264e-13
8.970000e+02 2.887617e-13
8.980000e+02 3.127942e-13
8.990000e+02 3.387645e-13
9.000000e+02 3.668238e-13
9.010000e+02 3.971345e-13
9.020000e+02 4.298715e-13
9.030000e+02 4.652226e-13
9.040000e+02 5.033898e-13
9.050000e+02 5.445900e-13
9.060000e+02 5.890563e-13
9.070000e+02 6.370392e-13
9.080000e+02 6.888077e-13
9.090000e+02 7.446506e-13
9.100000e+02 8.048780e-13
9.110000e+02 8.698228e-13
9.120000e+02 9.398424e-13
9.130000e+02 1.015320e-12
9.140000e+02 1.108225e-12
9.150000e+02 4.509768e-10
9.160000e+02 4.873194e-09
9.170000e+02 1.003390e-09
9.180000e+02 5.989439e-10
9.190000e+02 1.771493e-08
9.200000e+02 6.796416e-08
9.210000e+02 1.871851e-12
9.220000e+02 9.775501e-08
9.230000e+02 2.155677e-10
9.240000e+02 3.717069e-09
9.250000e+02 5.746659e-08
9.260000e+02 9.065033e-10
9.270000e+02 2.941459e-09
9.280000e+02 6.234259e-07
9.290000e+02 5.733556e-07
9.300000e+02 7.993169e-08
9.310000e+02 5.947094e-10
9.320000e+02 4.142683e-07
9.330000e+02 1.005123e-06
9.340000e+02 3.873944e-07
9.350000e+02 4.570816e-10
9.360000e+02 1.662059e-08
9.370000e+02 1.125444e-10
9.380000e+02 1.662793e-10
9.390000e+02 4.191686e-08
9.400000e+02 1.198245e-06
9.410000e+02 1.074672e-08
9.420000e+02 2.252969e-06
9.430000e+02 1.408430e-07
9.440000e+02 2.543707e-06
9.450000e+02 2.506458e-06
9.460000e+02 1.613275e-06
9.470000e+02 6.433538e-10
9.480000e+02 3.206481e-07
9.490000e+02 2.641464e-08
9.500000e+02 1.196036e-10
9.510000e+02 2.317086e-07
9.520000e+02 1.279800e-06
9.530000e+02 1.454086e-08
9.540000e+02 7.600054e-10
9.550000e+02 3.475357e-07
9.560000e+02 1.385652e-06
9.570000e+02 5.013453e-08
9.580000e+02 2.124807e-10
9.590000e+02 6.714539e-06
9.600000e+02 7.032668e-10
9.610000e+02 4.548279e-06
9.620000e+02 2.294914e-06
9.630000e+02 1.199155e-07
9.640000e+02 3.896048e-09
9.650000e+02 2.486559e-09
9.660000e+02 4.323201e-07
9.670000e+02 2.795423e-08
9.680000e+02 1.666467e-08
9.690000e+02 1.722890e-06
9.700000e+02 1.377965e-06
9.710000e+02 3.078324e-08
9.720000e+02 2.734975e-09
9.730000e+02 3.400454e-09
9.740000e+02 3.170833e-07
9.750000e+02 5.697006e-07
9.760000e+02 5.648171e-06
9.770000e+02 7.625845e-06
9.780000e+02 6.192931e-06
9.790000e+02 1.486174e-05
9.800000e+02 1.698468e-05
9.810000e+02 5.947243e-06
9.820000e+02 6.938062e-07
9.830000e+02 2.123361e-05
9.840000e+02 2.522341e-07
9.850000e+02 2.325695e-06
9.860000e+02 2.868779e-06
9.870000e+02 2.652068e-05
9.880000e+02 8.189090e-09
9.890000e+02 2.160208e-05
9.900000e+02 6.164691e-06
9.910000e+02 5.176285e-07
9.920000e+02 1.338291e-09
9.930000e+02 2.486830e-05
9.940000e+02 5.256879e-10
9.950000e+02 7.186833e-07
9.960000e+02 4.566391e-08
9.970000e+02 1.929210e-08
9.980000e+02 3.802784e-05
9.990000e+02 7.558292e-07
1.000000e+03 4.939607e-05
1.001000e+03 4.592569e-05
1.002000e+03 5.821802e-05
1.003000e+03 8.901879e-07
1.004000e+03 1.336957e-08
1.005000e+03 6.533224e-06
1.006000e+03 6.738968e-05
1.007000e+03 7.088386e-05
1.008000e+03 6.567346e-05
1.009000e+03 8.972861e-07
1.010000e+03 7.028750e-05
1.011000e+03 7.863927e-05
1.012000e+03 7.525357e-05
1.013000e+03 7.439037e-05
1.014000e+03 5.275069e-09
1.015000e+03 2.655725e-08
1.016000e+03 4.694615e-06
1.017000e+03 3.725290e-09
1.018000e+03 1.165929e-06
1.019000e+03 2.505840e-08
1.020000e+03 4.734908e-05
1.021000e+03 6.783957e-07
1.022000e+03 2.434565e-06
1.023000e+03 8.699226e-08
1.024000e+03 1.172315e-06
1.025000e+03 3.459427e-09
1.026000e+03 3.354435e-09
1.027000e+03 4.622466e-07
1.028000e+03 2.868546e-08
1.029000e+03 8.802090e-09
1.030000e+03 2.247389e-05
1.031000e+03 6.529698e-05
1.032000e+03 1.432102e-04
1.033000e+03 5.912152e-07
1.034000e+03 1.100950e-04
1.035000e+03 1.335866e-08
1.036000e+03 2.497109e-08
1.037000e+03 6.473878e-04
1.038000e+03 8.225755e-04
1.039000e+03 7.335251e-04
1.040000e+03 9.496299e-04
1.041000e+03 9.817607e-04
1.042000e+03 1.103275e-03
1.043000e+03 6.469060e-04
1.044000e+03 1.338697e-03
1.045000e+03 2.259860e-08
1.046000e+03 9.358137e-04
1.047000e+03 4.703724e-04
1.048000e+03 1.858338e-06
1.049000e+03 5.222442e-04
1.050000e+03 7.667311e-05
1.051000e+03 1.978362e-05
1.052000e+03 1.836574e-03
1.053000e+03 2.065775e-03
1.054000e+03 4.447065e-08
1.055000e+03 1.818639e-03
1.056000e+03 2.241570e-03
1.057000e+03 1.029043e-03
1.058000e+03 2.595774e-05
1.059000e+03 5.644979e-06
1.060000e+03 2.065208e-06
1.061000e+03 2.095824e-03
1.062000e+03 9.266023e-06
1.063000e+03 1.949387e-06
1.064000e+03 3.608875e-08
1.065000e+03 7.543713e-08
1.066000e+03 4.047456e-04
1.067000e+03 1.383169e-05
1.068000e+03 3.823090e-03
1.069000e+03 1.810830e-06
1.070000e+03 6.384994e-04
1.071000e+03 3.850307e-03
1.072000e+03 4.352982e-03
1.073000e+03 2.458692e-07
1.074000e+03 1.894120e-03
1.075000e+03 1.193464e-03
1.076000e+03 2.205425e-03
1.077000e+03 1.928536e-06
1.078000e+03 2.977671e-05
1.079000e+03 3.927262e-04
1.080000e+03 1.525600e-03
1.081000e+03 5.383619e-03
1.082000e+03 4.244108e-03
1.083000e+03 2.922332e-03
1.084000e+03 6.343415e-03
1.085000e+03 4.491326e-04
1.086000e+03 7.548498e-03
1.087000e+03 3.560353e-05
1.088000e+03 8.124556e-03
1.089000e+03 8.335889e-03
1.090000e+03 3.496975e-04
1.091000e+03 7.059667e-04
1.092000e+03 8.028391e-03
1.093000e+03 9.168932e-03
1.094000e+03 5.680529e-03
1.095000e+03 1.044918e-02
1.096000e+03 1.945435e-04
1.097000e+03 1.027046e-02
1.098000e+03 1.068079e-02
1.099000e+03 1.471756e-03
1.100000e+03 4.510817e-06
1.101000e+03 1.699549e-05
1.102000e+03 1.102266e-03
1.103000e+03 1.372517e-02
1.104000e+03 1.438084e-02
1.105000e+03 1.481479e-02
1.106000e+03 5.802873e-03
1.107000e+03 1.183525e-05
1.108000e+03 1.515337e-02
1.109000e+03 3.937911e-04
1.110000e+03 1.647517e-02
1.111000e+03 1.642311e-02
1.112000e+03 1.386534e-02
1.113000e+03 1.425286e-02
1.114000e+03 8.384666e-03
1.115000e+03 3.448213e-04
1.116000e+03 7.555699e-05
1.117000e+03 2.182714e-02
1.118000e+03 7.296223e-04
1.119000e+03 1.618149e-02
1.120000e+03 1.573823e-04
1.121000e+03 2.394315e-02
1.122000e+03 2.483028e-02
1.123000e+03 3.332175e-02
1.124000e+03 3.889728e-02
1.125000e+03 3.340701e-02
1.126000e+03 3.488011e-02
1.127000e+03 3.222871e-02
1.128000e+03 2.591725e-02
1.129000e+03 2.607461e-02
1.130000e+03 2.956053e-02
1.131000e+03 2.473450e-02
1.132000e+03 2.522562e-04
1.133000e+03 6.009569e-03
1.134000e+03 2.453964e-02
1.135000e+03 7.780752e-03
1.136000e+03 9.757811e-03
1.137000e+03 2.174773e-02
1.138000e+03 2.190435e-02
1.139000e+03 2.591173e-02
1.140000e+03 2.528901e-02
1.141000e+03 2.369246e-02
1.142000e+03 2.553913e-02
1.143000e+03 2.021350e-02
1.144000e+03 2.449028e-02
1.145000e+03 1.082085e-04
1.146000e+03 2.659408e-02
1.147000e+03 2.674865e-02
1.148000e+03 2.125658e-03
1.149000e+03 2.607444e-02
1.150000e+03 2.582971e-02
1.151000e+03 2.622362e-02
1.152000e+03 2.568651e-02
1.153000e+03 2.525931e-02
1.154000e+03 2.463532e-02
1.155000e+03 2.415633e-02
1.156000e+03 1.857278e-02
1.157000e+03 2.328099e-02
1.158000e+03 2.121276e-02
1.159000e+03 2.383386e-02
1.160000e+03 2.188800e-02
1.161000e+03 2.204451e-02
1.162000e+03 6.829975e-03
1.163000e+03 1.466562e-02
1.164000e+03 3.075041e-05
1.165000e+03 1.257305e-02
1.166000e+03 6.333932e-03
1.167000e+03 3.962339e-03
1.168000e+03 2.472073e-02
1.169000e+03 2.504345e-02
1.170000e+03 4.132610e-03
1.171000e+03 1.118304e-02
1.172000e+03 8.820686e-03
1.173000e+03 7.405108e-03
1.174000e+03 8.235071e-04
1.175000e+03 3.024563e-05
1.176000e+03 9.044074e-06
1.177000e+03 3.168892e-02
1.178000e+03 2.992799e-02
1.179000e+03 2.842915e-02
1.180000e+03 2.564212e-02
1.181000e+03 2.562683e-02
1.182000e+03 2.471762e-02
1.183000e+03 2.314571e-02
1.184000e+03 2.228556e-02
1.185000e+03 2.147384e-02
1.186000e+03 4.745769e-03
1.187000e+03 2.022624e-02
1.188000e+03 1.888404e-02
1.189000e+03 1.918153e-02
1.190000e+03 1.855540e-02
1.191000e+03 1.741231e-02
1.192000e+03 1.556366e-02
1.193000e+03 1.522284e-02
1.194000e+03 1.476513e-02
1.195000e+03 1.400485e-02
1.196000e+03 2.119519e-01
1.197000e+03 2.033111e-01
1.198000e+03 3.641902e-02
1.199000e+03 1.790891e-01
1.200000e+03 8.697125e-02
1.201000e+03 1.475387e-01
1.202000e+03 1.250454e-01
1.203000e+03 1.128750e-01
1.204000e+03 6.125861e-02
1.205000e+03 7.631716e-02
1.206000e+03 5.914489e-02
1.207000e+03 6.166425e-03
1.208000e+03 2.650744e-02
1.209000e+03 1.895296e-02
1.210000e+03 5.334988e-05
1.211000e+03 5.887161e-03
1.212000e+03 2.636197e-03
1.213000e+03 9.863485e-04
1.214000e+03 2.519845e-04
1.215000e+03 4.027781e-05
1.216000e+03 3.540322e-05
1.217000e+03 1.522614e-04
1.218000e+03 7.849082e-04
1.219000e+03 2.479925e-03
1.220000e+03 5.988154e-03
1.221000e+03 1.295484e-02
1.222000e+03 2.492310e-02
1.223000e+03 4.103072e-02
1.224000e+03 5.957261e-02
1.225000e+03 3.121326e-02
1.226000e+03 1.281197e-01
1.227000e+03 1.715038e-01
1.228000e+03 1.832633e-01
1.229000e+03 2.678095e-01
1.230000e+03 1.779077e-01
1.231000e+03 1.856172e-01
1.232000e+03 4.240498e-01
1.233000e+03 4.824160e-01
1.234000e+03 4.101303e-01
1.235000e+03 5.919155e-01
1.236000e+03 5.186592e-01
1.237000e+03 6.998231e-01
1.238000e+03 7.534030e-01
1.239000e+03 7.810697e-01
1.240000e+03 1.171194e-01
1.241000e+03 8.267450e-01
1.242000e+03 9.551625e-01
1.243000e+03 1.008955e+00
1.244000e+03 1.061811e+00
1.245000e+03 1.101739e+00
1.246000e+03 1.139127e+00
1.247000e+03 1.187420e+00
1.248000e+03 7.698155e-01
1.249000e+03 1.286365e+00
1.250000e+03 1.171162e+00
1.251000e+03 1.407824e+00
1.252000e+03 1.384028e+00
1.253000e+03 1.483068e+00
1.254000e+03 1.479606e+00
1.255000e+03 3.809197e-01
1.256000e+03 1.409470e+00
1.257000e+03 1.109704e+00
1.258000e+03 1.509874e+00
1.259000e+03 1.578416e+00
1.260000e+03 1.734139e+00
1.261000e+03 4.847932e-02
1.262000e+03 1.805144e+00
1.263000e+03 1.579402e+00
1.264000e+03 1.763329e+00
1.265000e+03 4.246038e-01
1.266000e+03 2.109445e+00
1.267000e+03 2.209725e+00
