# wavelength_A flux
5.000000e+02 2.274117e-38
5.010000e+02 2.962656e-38
5.020000e+02 3.855523e-38
5.030000e+02 5.012126e-38
5.040000e+02 6.508785e-38
5.050000e+02 8.445070e-38
5.060000e+02 1.094371e-37
5.070000e+02 1.416681e-37
5.080000e+02 1.832027e-37
5.090000e+02 2.366702e-37
5.100000e+02 3.053829e-37
5.110000e+02 3.937646e-37
5.120000e+02 5.071331e-37
5.130000e+02 6.524892e-37
5.140000e+02 8.386667e-37
5.150000e+02 1.076897e-36
5.160000e+02 1.381432e-36
5.170000e+02 1.770350e-36
5.180000e+02 2.266545e-36
5.190000e+02 2.899001e-36
5.200000e+02 3.704360e-36
5.210000e+02 4.728914e-36
5.220000e+02 6.031077e-36
5.230000e+02 7.684535e-36
5.240000e+02 9.782062e-36
5.250000e+02 1.244045e-35
5.260000e+02 1.580654e-35
5.270000e+02 2.006483e-35
5.280000e+02 2.544683e-35
5.290000e+02 3.224290e-35
5.300000e+02 4.081679e-35
5.310000e+02 5.162384e-35
5.320000e+02 6.523350e-35
5.330000e+02 8.235729e-35
5.340000e+02 1.038835e-34
5.350000e+02 1.309203e-34
5.360000e+02 1.648483e-34
5.370000e+02 2.073804e-34
5.380000e+02 2.606763e-34
5.390000e+02 3.273746e-34
5.400000e+02 4.107850e-34
5.410000e+02 5.150060e-34
5.420000e+02 6.451198e-34
5.430000e+02 8.074223e-34
5.440000e+02 1.009707e-33
5.450000e+02 1.261614e-33
5.460000e+02 1.575057e-33
5.470000e+02 1.964745e-33
5.480000e+02 2.448829e-33
5.490000e+02 3.049686e-33
5.500000e+02 3.794880e-33
5.510000e+02 4.718340e-33
5.520000e+02 5.861795e-33
5.530000e+02 7.276525e-33
5.540000e+02 9.025504e-33
5.550000e+02 1.118600e-32
5.560000e+02 1.385274e-32
5.570000e+02 1.714179e-32
5.580000e+02 2.119523e-32
5.590000e+02 2.618685e-32
5.600000e+02 3.232910e-32
5.610000e+02 3.988142e-32
5.620000e+02 4.916051e-32
5.630000e+02 6.055257e-32
5.640000e+02 7.452826e-32
5.650000e+02 9.166072e-32
5.660000e+02 1.126474e-31
5.670000e+02 1.383365e-31
5.680000e+02 1.697584e-31
5.690000e+02 2.081645e-31
5.700000e+02 2.550730e-31
5.710000e+02 3.123249e-31
5.720000e+02 3.821507e-31
5.730000e+02 4.672509e-31
5.740000e+02 5.708931e-31
5.750000e+02 6.970280e-31
5.760000e+02 8.504291e-31
5.770000e+02 1.036860e-30
5.780000e+02 1.263274e-30
5.790000e+02 1.538057e-30
5.800000e+02 1.871311e-30
5.810000e+02 2.275202e-30
5.820000e+02 2.764367e-30
5.830000e+02 3.356411e-30
5.840000e+02 4.072483e-30
5.850000e+02 4.937990e-30
5.860000e+02 5.983415e-30
5.870000e+02 7.245319e-30
5.880000e+02 8.767524e-30
5.890000e+02 1.060252e-29
5.900000e+02 1.281312e-29
5.910000e+02 1.547449e-29
5.920000e+02 1.867646e-29
5.930000e+02 2.252637e-29
5.940000e+02 2.715236e-29
5.950000e+02 3.270733e-29
5.960000e+02 3.937362e-29
5.970000e+02 4.736850e-29
5.980000e+02 5.695072e-29
5.990000e+02 6.842828e-29
6.000000e+02 8.216754e-29
6.010000e+02 9.860397e-29
6.020000e+02 1.182550e-28
6.030000e+02 1.417349e-28
6.040000e+02 1.697726e-28
6.050000e+02 2.032326e-28
6.060000e+02 2.431394e-28
6.070000e+02 2.907067e-28
6.080000e+02 3.473709e-28
6.090000e+02 4.148318e-28
6.100000e+02 4.950990e-28
6.110000e+02 5.905474e-28
6.120000e+02 7.039819e-28
6.130000e+02 8.387131e-28
6.140000e+02 9.986469e-28
6.150000e+02 1.188388e-27
6.160000e+02 1.413362e-27
6.170000e+02 1.679960e-27
6.180000e+02 1.995702e-27
6.190000e+02 2.369437e-27
6.200000e+02 2.811568e-27
6.210000e+02 3.334319e-27
6.220000e+02 3.952044e-27
6.230000e+02 4.681596e-27
6.240000e+02 5.542742e-27
6.250000e+02 6.558660e-27
6.260000e+02 7.756514e-27
6.270000e+02 9.168117e-27
6.280000e+02 1.083071e-26
6.290000e+02 1.278786e-26
6.300000e+02 1.509054e-26
6.310000e+02 1.779828e-26
6.320000e+02 2.098065e-26
6.330000e+02 2.471888e-26
6.340000e+02 2.910775e-26
6.350000e+02 3.425780e-26
6.360000e+02 4.029790e-26
6.370000e+02 4.737821e-26
6.380000e+02 5.567358e-26
6.390000e+02 6.538754e-26
6.400000e+02 7.675687e-26
6.410000e+02 9.005691e-26
6.420000e+02 1.056076e-25
6.430000e+02 1.237808e-25
6.440000e+02 1.450079e-25
6.450000e+02 1.697898e-25
6.460000e+02 1.987076e-25
6.470000e+02 2.324346e-25
6.480000e+02 2.717515e-25
6.490000e+02 3.175621e-25
6.500000e+02 3.709131e-25
6.510000e+02 4.330153e-25
6.520000e+02 5.052694e-25
6.530000e+02 5.892945e-25
6.540000e+02 6.869615e-25
6.550000e+02 8.004311e-25
6.560000e+02 9.321978e-25
6.570000e+02 1.085140e-24
6.580000e+02 1.262576e-24
6.590000e+02 1.468335e-24
6.600000e+02 1.706824e-24
6.610000e+02 1.983124e-24
6.620000e+02 2.303080e-24
6.630000e+02 2.673420e-24
6.640000e+02 3.101883e-24
6.650000e+02 3.597366e-24
6.660000e+02 4.170092e-24
6.670000e+02 4.831805e-24
6.680000e+02 5.595988e-24
6.690000e+02 6.478115e-24
6.700000e+02 7.495936e-24
6.710000e+02 8.669806e-24
6.720000e+02 1.002305e-23
6.730000e+02 1.158240e-23
6.740000e+02 1.337846e-23
6.750000e+02 1.544627e-23
6.760000e+02 1.782589e-23
6.770000e+02 2.056319e-23
6.780000e+02 2.371057e-23
6.790000e+02 2.732793e-23
6.800000e+02 3.148366e-23
6.810000e+02 3.625589e-23
6.820000e+02 4.173375e-23
6.830000e+02 4.801895e-23
6.840000e+02 5.522747e-23
6.850000e+02 6.349151e-23
6.860000e+02 7.296170e-23
6.870000e+02 8.380962e-23
6.880000e+02 9.623060e-23
6.890000e+02 1.104470e-22
6.900000e+02 1.267116e-22
6.910000e+02 1.453120e-22
6.920000e+02 1.665752e-22
6.930000e+02 1.908725e-22
6.940000e+02 2.186259e-22
6.950000e+02 2.503143e-22
6.960000e+02 2.864813e-22
6.970000e+02 3.277436e-22
6.980000e+02 3.748006e-22
6.990000e+02 4.284451e-22
7.000000e+02 4.895755e-22
7.010000e+02 5.592094e-22
7.020000e+02 6.384991e-22
7.030000e+02 7.287488e-22
7.040000e+02 8.314343e-22
7.050000e+02 9.482246e-22
7.060000e+02 1.081007e-21
7.070000e+02 1.231914e-21
7.080000e+02 1.403355e-21
7.090000e+02 1.598052e-21
7.100000e+02 1.819076e-21
7.110000e+02 2.069895e-21
7.120000e+02 2.354420e-21
7.130000e+02 2.677061e-21
7.140000e+02 3.042791e-21
7.150000e+02 3.457214e-21
7.160000e+02 3.926641e-21
7.170000e+02 4.458181e-21
7.180000e+02 5.059836e-21
7.190000e+02 5.740608e-21
7.200000e+02 6.510630e-21
7.210000e+02 7.381290e-21
7.220000e+02 8.365392e-21
7.230000e+02 9.477327e-21
7.240000e+02 1.073326e-20
7.250000e+02 1.215134e-20
7.260000e+02 1.375194e-20
7.270000e+02 1.555793e-20
7.280000e+02 1.759497e-20
7.290000e+02 1.989181e-20
7.300000e+02 2.248072e-20
7.310000e+02 2.539783e-20
7.320000e+02 2.868363e-20
7.330000e+02 3.238347e-20
7.340000e+02 3.654813e-20
7.350000e+02 4.123443e-20
7.360000e+02 4.650593e-20
7.370000e+02 5.243374e-20
7.380000e+02 5.909738e-20
7.390000e+02 6.658571e-20
7.400000e+02 7.499802e-20
7.410000e+02 8.444523e-20
7.420000e+02 9.505121e-20
7.430000e+02 1.069542e-19
7.440000e+02 1.203086e-19
7.450000e+02 1.352864e-19
7.460000e+02 1.520796e-19
7.470000e+02 1.709023e-19
7.480000e+02 1.919931e-19
7.490000e+02 2.156177e-19
7.500000e+02 2.420723e-19
7.510000e+02 2.716864e-19
7.520000e+02 3.048271e-19
7.530000e+02 3.419028e-19
7.540000e+02 3.833679e-19
7.550000e+02 4.297276e-19
7.560000e+02 4.815439e-19
7.570000e+02 5.394411e-19
7.580000e+02 6.041132e-19
7.590000e+02 6.763309e-19
7.600000e+02 7.569503e-19
7.610000e+02 8.469215e-19
7.620000e+02 9.472993e-19
7.630000e+02 1.059254e-18
7.640000e+02 1.184083e-18
7.650000e+02 1.323226e-18
7.660000e+02 1.478278e-18
7.670000e+02 1.651008e-18
7.680000e+02 1.843374e-18
7.690000e+02 2.057547e-18
7.700000e+02 2.295928e-18
7.710000e+02 2.561177e-18
7.720000e+02 2.856238e-18
7.730000e+02 3.184366e-18
7.740000e+02 3.549162e-18
7.750000e+02 3.954609e-18
7.760000e+02 4.405108e-18
7.770000e+02 4.905523e-18
7.780000e+02 5.461230e-18
7.790000e+02 6.078163e-18
7.800000e+02 6.762876e-18
7.810000e+02 7.522605e-18
7.820000e+02 8.365335e-18
7.830000e+02 9.299873e-18
7.840000e+02 1.033594e-17
7.850000e+02 1.148424e-17
7.860000e+02 1.275659e-17
7.870000e+02 1.416602e-17
7.880000e+02 1.572685e-17
7.890000e+02 1.745489e-17
7.900000e+02 1.936754e-17
7.910000e+02 2.148395e-17
7.920000e+02 2.382520e-17
7.930000e+02 2.641449e-17
7.940000e+02 2.927734e-17
7.950000e+02 3.244182e-17
7.960000e+02 3.593878e-17
7.970000e+02 3.980214e-17
7.980000e+02 4.406919e-17
7.990000e+02 4.878086e-17
8.000000e+02 5.398216e-17
8.010000e+02 5.972247e-17
8.020000e+02 6.605603e-17
8.030000e+02 7.304235e-17
8.040000e+02 8.074675e-17
8.050000e+02 8.924088e-17
8.060000e+02 9.860330e-17
8.070000e+02 1.089202e-16
8.080000e+02 1.202860e-16
8.090000e+02 1.328042e-16
8.100000e+02 1.465882e-16
8.110000e+02 1.617622e-16
8.120000e+02 1.784624e-16
8.130000e+02 1.968375e-16
8.140000e+02 2.170507e-16
8.150000e+02 2.392804e-16
8.160000e+02 2.637218e-16
8.170000e+02 2.905884e-16
8.180000e+02 3.201137e-16
8.190000e+02 3.525530e-16
8.200000e+02 3.881852e-16
8.210000e+02 4.273154e-16
8.220000e+02 4.702766e-16
8.230000e+02 5.174327e-16
8.240000e+02 5.691811e-16
8.250000e+02 6.259556e-16
8.260000e+02 6.882297e-16
8.270000e+02 7.565201e-16
8.280000e+02 8.313906e-16
8.290000e+02 9.134562e-16
8.300000e+02 1.003388e-15
8.310000e+02 1.101916e-15
8.320000e+02 1.209838e-15
8.330000e+02 1.328022e-15
8.340000e+02 1.457415e-15
8.350000e+02 1.599047e-15
8.360000e+02 1.754042e-15
8.370000e+02 1.923621e-15
8.380000e+02 2.109116e-15
8.390000e+02 2.311973e-15
8.400000e+02 2.533770e-15
8.410000e+02 2.776220e-15
8.420000e+02 3.041188e-15
8.430000e+02 3.330701e-15
8.440000e+02 3.646963e-15
8.450000e+02 3.992370e-15
8.460000e+02 4.369525e-15
8.470000e+02 4.781258e-15
8.480000e+02 5.230640e-15
8.490000e+02 5.721007e-15
8.500000e+02 6.255985e-15
8.510000e+02 6.839503e-15
8.520000e+02 7.475832e-15
8.530000e+02 8.169603e-15
8.540000e+02 8.925841e-15
8.550000e+02 9.749996e-15
8.560000e+02 1.064798e-14
8.570000e+02 1.162619e-14
8.580000e+02 1.269159e-14
8.590000e+02 1.385169e-14
8.600000e+02 1.511467e-14
8.610000e+02 1.648934e-14
8.620000e+02 1.798528e-14
8.630000e+02 1.961286e-14
8.640000e+02 2.138329e-14
8.650000e+02 2.330873e-14
8.660000e+02 2.540231e-14
8.670000e+02 2.767826e-14
8.680000e+02 3.015196e-14
8.690000e+02 3.284006e-14
8.700000e+02 3.576055e-14
8.710000e+02 3.893289e-14
8.720000e+02 4.237810e-14
8.730000e+02 4.611892e-14
8.740000e+02 5.017992e-14
8.750000e+02 5.458761e-14
8.760000e+02 5.937067e-14
8.770000e+02 6.456004e-14
8.780000e+02 7.018913e-14
8.790000e+02 7.629403e-14
8.800000e+02 8.291366e-14
8.810000e+02 9.009005e-14
8.820000e+02 9.786852e-14
8.830000e+02 1.062980e-13
8.840000e+02 1.154311e-13
8.850000e+02 1.253249e-13
8.860000e+02 1.360405e-13
8.870000e+02 1.476440e-13
8.880000e+02 1.602068e-13
8.890000e+02 1.738054e-13
8.900000e+02 1.885226e-13
8.910000e+02 2.044475e-13
8.920000e+02 2.216758e-13
8.930000e+02 2.403108e-13
8.940000e+02 2.604637e-13
8.950000e+02 2.822542e-13
8.960000e+02 3.058108e-13
8.970000e+02 3.312722e-13
8.980000e+02 3.587874e-13
8.990000e+02 3.885165e-13
9.000000e+02 4.206320e-13
9.010000e+02 4.553191e-13
9.020000e+02 4.927771e-13
9.030000e+02 5.332200e-13
9.040000e+02 5.768778e-13
9.050000e+02 6.239979e-13
9.060000e+02 6.748457e-13
9.070000e+02 7.297063e-13
9.080000e+02 7.888863e-13
9.090000e+02 8.527143e-13
9.100000e+02 9.215433e-13
9.110000e+02 9.957525e-13
9.120000e+02 1.075748e-12
9.130000e+02 1.161967e-12
9.140000e+02 1.276701e-12
9.150000e+02 3.408847e-10
9.160000e+02 2.536775e-09
9.170000e+02 2.495333e-10
9.180000e+02 4.471742e-10
9.190000e+02 7.576817e-09
9.200000e+02 2.295383e-08
9.210000e+02 2.139678e-12
9.220000e+02 2.599028e-08
9.230000e+02 1.302565e-10
9.240000e+02 4.629079e-10
9.250000e+02 7.705309e-09
9.260000e+02 6.875132e-10
9.270000e+02 4.620100e-10
9.280000e+02 1.630694e-07
9.290000e+02 1.544197e-07
9.300000e+02 3.005676e-08
9.310000e+02 3.150868e-10
9.320000e+02 1.211009e-07
9.330000e+02 7.721408e-08
9.340000e+02 1.965446e-08
9.350000e+02 2.624568e-10
9.360000e+02 2.057155e-09
9.370000e+02 7.844780e-11
9.380000e+02 1.566135e-10
9.390000e+02 6.636664e-09
9.400000e+02 2.955146e-07
9.410000e+02 1.338182e-08
9.420000e+02 5.892199e-07
9.430000e+02 1.345066e-08
9.440000e+02 6.775393e-07
9.450000e+02 6.632265e-07
9.460000e+02 2.314800e-07
9.470000e+02 1.394653e-10
9.480000e+02 1.815053e-07
9.490000e+02 1.539767e-08
9.500000e+02 1.799157e-10
9.510000e+02 7.586159e-08
9.520000e+02 2.927167e-07
9.530000e+02 2.401698e-09
9.540000e+02 1.539775e-10
9.550000e+02 3.070340e-08
9.560000e+02 1.014313e-06
9.570000e+02 1.011313e-08
9.580000e+02 5.648815e-11
9.590000e+02 1.042268e-06
9.600000e+02 5.844072e-10
9.610000e+02 5.157461e-07
9.620000e+02 1.793044e-07
9.630000e+02 1.319654e-08
9.640000e+02 2.807070e-09
9.650000e+02 5.562697e-10
9.660000e+02 3.595380e-08
9.670000e+02 4.291223e-09
9.680000e+02 2.879915e-09
9.690000e+02 2.047928e-07
9.700000e+02 2.909243e-07
9.710000e+02 6.634596e-09
9.720000e+02 1.258983e-09
9.730000e+02 3.129720e-09
9.740000e+02 1.164458e-07
9.750000e+02 7.623200e-08
9.760000e+02 1.607921e-06
9.770000e+02 1.484754e-06
9.780000e+02 8.126070e-07
9.790000e+02 4.515043e-06
9.800000e+02 4.865148e-06
9.810000e+02 4.987583e-07
9.820000e+02 6.686628e-08
9.830000e+02 5.856087e-06
9.840000e+02 1.147799e-07
9.850000e+02 1.850013e-07
9.860000e+02 2.675676e-07
9.870000e+02 7.030650e-06
9.880000e+02 2.078650e-09
9.890000e+02 3.010411e-06
9.900000e+02 4.490519e-06
9.910000e+02 7.363486e-08
9.920000e+02 4.645506e-10
9.930000e+02 9.097213e-06
9.940000e+02 5.371135e-10
9.950000e+02 3.415803e-07
9.960000e+02 1.114404e-08
9.970000e+02 8.256107e-08
9.980000e+02 8.222798e-06
9.990000e+02 1.128610e-07
1.000000e+03 1.724775e-05
1.001000e+03 1.497652e-05
1.002000e+03 1.775121e-05
1.003000e+03 1.145977e-07
1.004000e+03 3.252353e-09
1.005000e+03 6.212340e-07
1.006000e+03 1.847086e-05
1.007000e+03 2.233508e-05
1.008000e+03 1.524577e-05
1.009000e+03 1.509582e-07
1.010000e+03 1.490133e-05
1.011000e+03 1.599494e-05
1.012000e+03 1.959408e-05
1.013000e+03 1.907551e-05
1.014000e+03 1.895387e-09
1.015000e+03 7.259587e-09
1.016000e+03 7.116269e-07
1.017000e+03 1.698936e-09
1.018000e+03 1.688722e-07
1.019000e+03 6.233677e-09
1.020000e+03 1.539400e-05
1.021000e+03 3.271689e-07
1.022000e+03 5.490165e-07
1.023000e+03 2.235333e-08
1.024000e+03 8.169564e-07
1.025000e+03 2.523326e-09
1.026000e+03 3.676440e-09
1.027000e+03 3.413317e-07
1.028000e+03 2.363458e-08
1.029000e+03 3.787136e-09
1.030000e+03 2.786166e-06
1.031000e+03 9.403007e-06
1.032000e+03 4.846621e-05
1.033000e+03 3.186396e-07
1.034000e+03 1.131596e-05
1.035000e+03 1.356238e-08
1.036000e+03 7.901690e-09
1.037000e+03 1.173744e-04
1.038000e+03 2.865146e-04
1.039000e+03 1.498039e-04
1.040000e+03 1.148913e-04
1.041000e+03 3.441204e-04
1.042000e+03 3.382268e-04
1.043000e+03 2.359528e-04
1.044000e+03 5.439557e-04
1.045000e+03 1.709217e-08
1.046000e+03 1.233648e-04
1.047000e+03 4.910788e-05
1.048000e+03 3.761816e-07
1.049000e+03 4.405269e-05
1.050000e+03 6.390430e-06
1.051000e+03 2.743618e-06
1.052000e+03 5.401099e-04
1.053000e+03 6.963288e-04
1.054000e+03 1.743319e-08
1.055000e+03 7.019632e-04
1.056000e+03 8.185001e-04
1.057000e+03 1.540778e-04
1.058000e+03 2.837213e-06
1.059000e+03 1.798617e-06
1.060000e+03 5.206093e-07
1.061000e+03 3.887038e-04
1.062000e+03 1.384519e-06
1.063000e+03 1.171708e-05
1.064000e+03 3.911555e-08
1.065000e+03 3.096648e-08
1.066000e+03 3.979788e-04
1.067000e+03 2.520730e-06
1.068000e+03 1.594895e-03
1.069000e+03 4.506435e-07
1.070000e+03 4.573097e-05
1.071000e+03 1.044638e-03
1.072000e+03 1.931643e-03
1.073000e+03 7.578637e-08
1.074000e+03 2.179089e-04
1.075000e+03 1.119471e-04
1.076000e+03 1.590917e-03
1.077000e+03 9.627838e-07
1.078000e+03 4.267786e-06
1.079000e+03 3.001248e-05
1.080000e+03 1.799716e-04
1.081000e+03 1.390034e-03
1.082000e+03 7.505761e-04
1.083000e+03 3.621402e-04
1.084000e+03 3.396587e-03
1.085000e+03 4.978222e-05
1.086000e+03 3.360102e-03
1.087000e+03 6.811460e-06
1.088000e+03 4.034410e-03
1.089000e+03 4.250237e-03
1.090000e+03 3.819547e-05
1.091000e+03 7.153861e-05
1.092000e+03 4.462564e-03
1.093000e+03 4.914025e-03
1.094000e+03 7.222176e-04
1.095000e+03 5.537939e-03
1.096000e+03 1.197966e-04
1.097000e+03 4.177461e-03
1.098000e+03 5.641785e-03
1.099000e+03 1.555029e-04
1.100000e+03 1.178036e-06
1.101000e+03 4.218533e-06
1.102000e+03 1.199264e-04
1.103000e+03 7.395364e-03
1.104000e+03 7.621612e-03
1.105000e+03 8.142871e-03
1.106000e+03 8.458696e-04
1.107000e+03 3.031455e-06
1.108000e+03 5.742394e-03
1.109000e+03 5.769916e-05
1.110000e+03 9.638405e-03
1.111000e+03 8.414428e-03
1.112000e+03 3.237588e-03
1.113000e+03 6.918995e-03
1.114000e+03 1.543386e-03
1.115000e+03 5.711161e-05
1.116000e+03 1.437151e-05
1.117000e+03 1.144660e-02
1.118000e+03 1.047433e-04
1.119000e+03 3.227962e-03
1.120000e+03 2.854411e-05
1.121000e+03 1.097502e-02
1.122000e+03 1.718174e-02
1.123000e+03 1.870006e-02
1.124000e+03 2.268567e-02
1.125000e+03 1.561451e-02
1.126000e+03 2.279874e-02
1.127000e+03 1.531088e-02
1.128000e+03 1.431475e-02
1.129000e+03 8.351495e-03
1.130000e+03 1.691251e-02
1.131000e+03 1.344068e-02
1.132000e+03 5.081808e-05
1.133000e+03 8.989042e-04
1.134000e+03 1.015274e-02
1.135000e+03 1.168821e-02
1.136000e+03 1.683660e-03
1.137000e+03 1.193076e-02
1.138000e+03 7.903224e-03
1.139000e+03 1.453157e-02
1.140000e+03 1.368510e-02
1.141000e+03 1.391615e-02
1.142000e+03 1.416682e-02
1.143000e+03 7.487518e-03
1.144000e+03 1.387215e-02
1.145000e+03 2.875831e-05
1.146000e+03 1.484698e-02
1.147000e+03 1.488612e-02
1.148000e+03 3.452329e-04
1.149000e+03 1.358789e-02
1.150000e+03 1.295408e-02
1.151000e+03 1.445518e-02
1.152000e+03 1.312684e-02
1.153000e+03 1.400869e-02
1.154000e+03 1.388760e-02
1.155000e+03 1.268712e-02
1.156000e+03 1.042085e-02
1.157000e+03 1.278220e-02
1.158000e+03 8.257797e-03
1.159000e+03 1.325480e-02
1.160000e+03 9.822579e-03
1.161000e+03 1.219470e-02
1.162000e+03 1.546327e-03
1.163000e+03 5.270666e-03
1.164000e+03 2.752338e-05
1.165000e+03 6.908991e-03
1.166000e+03 3.679889e-03
1.167000e+03 2.458724e-03
1.168000e+03 1.394966e-02
1.169000e+03 1.420473e-02
1.170000e+03 2.494551e-03
1.171000e+03 6.513718e-03
1.172000e+03 5.070876e-03
1.173000e+03 4.512654e-03
1.174000e+03 2.035657e-04
1.175000e+03 2.319040e-05
1.176000e+03 8.547679e-06
1.177000e+03 1.825808e-02
1.178000e+03 1.728384e-02
1.179000e+03 1.639689e-02
1.180000e+03 1.431000e-02
1.181000e+03 1.491082e-02
1.182000e+03 1.443920e-02
1.183000e+03 1.294616e-02
1.184000e+03 1.232676e-02
1.185000e+03 1.214224e-02
1.186000e+03 1.150382e-03
1.187000e+03 1.204133e-02
1.188000e+03 1.052307e-02
1.189000e+03 1.162931e-02
1.190000e+03 1.132141e-02
1.191000e+03 1.064154e-02
1.192000e+03 9.700127e-03
1.193000e+03 9.530772e-03
1.194000e+03 9.324966e-03
1.195000e+03 8.919052e-03
1.196000e+03 1.438015e-01
1.197000e+03 1.396763e-01
1.198000e+03 5.445138e-03
1.199000e+03 1.191160e-01
1.200000e+03 2.185950e-02
1.201000e+03 9.445613e-02
1.202000e+03 7.063830e-02
1.203000e+03 6.970231e-02
1.204000e+03 2.025028e-02
1.205000e+03 4.616769e-02
1.206000e+03 3.602482e-02
1.207000e+03 4.736833e-03
1.208000e+03 1.702388e-02
1.209000e+03 1.254801e-02
1.210000e+03 4.777452e-05
1.211000e+03 4.486947e-03
1.212000e+03 2.184247e-03
1.213000e+03 9.069372e-04
1.214000e+03 2.533024e-04
1.215000e+03 4.404947e-05
1.216000e+03 3.916255e-05
1.217000e+03 1.576697e-04
1.218000e+03 7.451405e-04
1.219000e+03 2.140177e-03
1.220000e+03 4.335511e-03
1.221000e+03 9.562532e-03
1.222000e+03 1.692069e-02
1.223000e+03 2.595064e-02
1.224000e+03 3.728018e-02
1.225000e+03 8.253075e-03
1.226000e+03 8.049285e-02
1.227000e+03 1.096892e-01
1.228000e+03 7.577343e-02
1.229000e+03 1.737900e-01
1.230000e+03 1.605506e-01
1.231000e+03 5.038534e-02
1.232000e+03 2.940259e-01
1.233000e+03 3.417090e-01
1.234000e+03 3.172962e-01
1.235000e+03 4.299620e-01
1.236000e+03 2.008256e-01
1.237000e+03 5.276039e-01
1.238000e+03 5.744098e-01
1.239000e+03 5.462602e-01
1.240000e+03 1.061199e-01
1.241000e+03 5.967074e-01
1.242000e+03 7.526836e-01
1.243000e+03 8.128334e-01
1.244000e+03 8.645948e-01
1.245000e+03 9.037673e-01
1.246000e+03 8.993099e-01
1.247000e+03 9.812520e-01
1.248000e+03 7.797490e-01
1.249000e+03 1.092535e+00
1.250000e+03 8.999988e-01
1.251000e+03 1.189962e+00
1.252000e+03 1.167519e+00
1.253000e+03 1.257451e+00
1.254000e+03 1.239697e+00
1.255000e+03 3.087099e-01
1.256000e+03 1.098677e+00
1.257000e+03 8.010260e-01
1.258000e+03 1.200395e+00
1.259000e+03 1.303336e+00
1.260000e+03 1.464943e+00
1.261000e+03 2.996957e-02
1.262000e+03 1.523912e+00
1.263000e+03 1.442173e+00
1.264000e+03 1.350378e+00
1.265000e+03 9.511596e-01
1.266000e+03 1.817073e+00
1.267000e+03 1.846693e+00
