# wavelength_A flux
5.000000e+02 2.236001e-29
5.010000e+02 2.795038e-29
5.020000e+02 3.490669e-29
5.030000e+02 4.355494e-29
5.040000e+02 5.429703e-29
5.050000e+02 6.769591e-29
5.060000e+02 8.423914e-29
5.070000e+02 1.047312e-28
5.080000e+02 1.300968e-28
5.090000e+02 1.614636e-28
5.100000e+02 2.000471e-28
5.110000e+02 2.480652e-28
5.120000e+02 3.070772e-28
5.130000e+02 3.798146e-28
5.140000e+02 4.693783e-28
5.150000e+02 5.795746e-28
5.160000e+02 7.150441e-28
5.170000e+02 8.814477e-28
5.180000e+02 1.085679e-27
5.190000e+02 1.336132e-27
5.200000e+02 1.643022e-27
5.210000e+02 2.018761e-27
5.220000e+02 2.478409e-27
5.230000e+02 3.040316e-27
5.240000e+02 3.726624e-27
5.250000e+02 4.564233e-27
5.260000e+02 5.585701e-27
5.270000e+02 6.830417e-27
5.280000e+02 8.345997e-27
5.290000e+02 1.018996e-26
5.300000e+02 1.243176e-26
5.310000e+02 1.515513e-26
5.320000e+02 1.846103e-26
5.330000e+02 2.247104e-26
5.340000e+02 2.733149e-26
5.350000e+02 3.321836e-26
5.360000e+02 4.034311e-26
5.370000e+02 4.894822e-26
5.380000e+02 5.937300e-26
5.390000e+02 7.194837e-26
5.400000e+02 8.712374e-26
5.410000e+02 1.054234e-25
5.420000e+02 1.274752e-25
5.430000e+02 1.540291e-25
5.440000e+02 1.859819e-25
5.450000e+02 2.244042e-25
5.460000e+02 2.705735e-25
5.470000e+02 3.260134e-25
5.480000e+02 3.925391e-25
5.490000e+02 4.723127e-25
5.500000e+02 5.679067e-25
5.510000e+02 6.823809e-25
5.520000e+02 8.193711e-25
5.530000e+02 9.831960e-25
5.540000e+02 1.178981e-24
5.550000e+02 1.412806e-24
5.560000e+02 1.691875e-24
5.570000e+02 2.024726e-24
5.580000e+02 2.421462e-24
5.590000e+02 2.894038e-24
5.600000e+02 3.456587e-24
5.610000e+02 4.125806e-24
5.620000e+02 4.921412e-24
5.630000e+02 5.866673e-24
5.640000e+02 6.989026e-24
5.650000e+02 8.320809e-24
5.660000e+02 9.900112e-24
5.670000e+02 1.177177e-23
5.680000e+02 1.398852e-23
5.690000e+02 1.661238e-23
5.700000e+02 1.971621e-23
5.710000e+02 2.338556e-23
5.720000e+02 2.772083e-23
5.730000e+02 3.283979e-23
5.740000e+02 3.888047e-23
5.750000e+02 4.600459e-23
5.760000e+02 5.440144e-23
5.770000e+02 6.429260e-23
5.780000e+02 7.593709e-23
5.790000e+02 8.963770e-23
5.800000e+02 1.057481e-22
5.810000e+02 1.246812e-22
5.820000e+02 1.469188e-22
5.830000e+02 1.730225e-22
5.840000e+02 2.036468e-22
5.850000e+02 2.395553e-22
5.860000e+02 2.816349e-22
5.870000e+02 3.309186e-22
5.880000e+02 3.886078e-22
5.890000e+02 4.560984e-22
5.900000e+02 5.350120e-22
5.910000e+02 6.272315e-22
5.920000e+02 7.349413e-22
5.930000e+02 8.606750e-22
5.940000e+02 1.007369e-21
5.950000e+02 1.178426e-21
5.960000e+02 1.377784e-21
5.970000e+02 1.610002e-21
5.980000e+02 1.880354e-21
5.990000e+02 2.194934e-21
6.000000e+02 2.560787e-21
6.010000e+02 2.986047e-21
6.020000e+02 3.480104e-21
6.030000e+02 4.053790e-21
6.040000e+02 4.719597e-21
6.050000e+02 5.491921e-21
6.060000e+02 6.387347e-21
6.070000e+02 7.424969e-21
6.080000e+02 8.626765e-21
6.090000e+02 1.001801e-20
6.100000e+02 1.162776e-20
6.110000e+02 1.348942e-20
6.120000e+02 1.564133e-20
6.130000e+02 1.812754e-20
6.140000e+02 2.099855e-20
6.150000e+02 2.431233e-20
6.160000e+02 2.813529e-20
6.170000e+02 3.254355e-20
6.180000e+02 3.762428e-20
6.190000e+02 4.347727e-20
6.200000e+02 5.021669e-20
6.210000e+02 5.797313e-20
6.220000e+02 6.689585e-20
6.230000e+02 7.715542e-20
6.240000e+02 8.894663e-20
6.250000e+02 1.024919e-19
6.260000e+02 1.180448e-19
6.270000e+02 1.358950e-19
6.280000e+02 1.563722e-19
6.290000e+02 1.798524e-19
6.300000e+02 2.067639e-19
6.310000e+02 2.375941e-19
6.320000e+02 2.728981e-19
6.330000e+02 3.133066e-19
6.340000e+02 3.595373e-19
6.350000e+02 4.124058e-19
6.360000e+02 4.728386e-19
6.370000e+02 5.418876e-19
6.380000e+02 6.207469e-19
6.390000e+02 7.107713e-19
6.400000e+02 8.134974e-19
6.410000e+02 9.306668e-19
6.420000e+02 1.064253e-18
6.430000e+02 1.216492e-18
6.440000e+02 1.389914e-18
6.450000e+02 1.587384e-18
6.460000e+02 1.812142e-18
6.470000e+02 2.067852e-18
6.480000e+02 2.358655e-18
6.490000e+02 2.689232e-18
6.500000e+02 3.064868e-18
6.510000e+02 3.491529e-18
6.520000e+02 3.975948e-18
6.530000e+02 4.525722e-18
6.540000e+02 5.149416e-18
6.550000e+02 5.856684e-18
6.560000e+02 6.658404e-18
6.570000e+02 7.566827e-18
6.580000e+02 8.595748e-18
6.590000e+02 9.760690e-18
6.600000e+02 1.107911e-17
6.610000e+02 1.257066e-17
6.620000e+02 1.425741e-17
6.630000e+02 1.616416e-17
6.640000e+02 1.831877e-17
6.650000e+02 2.075255e-17
6.660000e+02 2.350060e-17
6.670000e+02 2.660232e-17
6.680000e+02 3.010191e-17
6.690000e+02 3.404891e-17
6.700000e+02 3.849886e-17
6.710000e+02 4.351397e-17
6.720000e+02 4.916391e-17
6.730000e+02 5.552669e-17
6.740000e+02 6.268960e-17
6.750000e+02 7.075031e-17
6.760000e+02 7.981803e-17
6.770000e+02 9.001485e-17
6.780000e+02 1.014772e-16
6.790000e+02 1.143576e-16
6.800000e+02 1.288262e-16
6.810000e+02 1.450729e-16
6.820000e+02 1.633101e-16
6.830000e+02 1.837740e-16
6.840000e+02 2.067287e-16
6.850000e+02 2.324682e-16
6.860000e+02 2.613203e-16
6.870000e+02 2.936501e-16
6.880000e+02 3.298644e-16
6.890000e+02 3.704157e-16
6.900000e+02 4.158081e-16
6.910000e+02 4.666019e-16
6.920000e+02 5.234208e-16
6.930000e+02 5.869577e-16
6.940000e+02 6.579832e-16
6.950000e+02 7.373531e-16
6.960000e+02 8.260182e-16
6.970000e+02 9.250340e-16
6.980000e+02 1.035572e-15
6.990000e+02 1.158933e-15
7.000000e+02 1.296560e-15
7.010000e+02 1.450050e-15
7.020000e+02 1.621178e-15
7.030000e+02 1.811908e-15
7.040000e+02 2.024416e-15
7.050000e+02 2.261115e-15
7.060000e+02 2.524672e-15
7.070000e+02 2.818043e-15
7.080000e+02 3.144495e-15
7.090000e+02 3.507646e-15
7.100000e+02 3.911492e-15
7.110000e+02 4.360455e-15
7.120000e+02 4.859418e-15
7.130000e+02 5.413779e-15
7.140000e+02 6.029496e-15
7.150000e+02 6.713152e-15
7.160000e+02 7.472009e-15
7.170000e+02 8.314082e-15
7.180000e+02 9.248212e-15
7.190000e+02 1.028415e-14
7.200000e+02 1.143265e-14
7.210000e+02 1.270555e-14
7.220000e+02 1.411592e-14
7.230000e+02 1.567812e-14
7.240000e+02 1.740800e-14
7.250000e+02 1.932298e-14
7.260000e+02 2.144225e-14
7.270000e+02 2.378692e-14
7.280000e+02 2.638020e-14
7.290000e+02 2.924763e-14
7.300000e+02 3.241727e-14
7.310000e+02 3.591995e-14
7.320000e+02 3.978957e-14
7.330000e+02 4.406336e-14
7.340000e+02 4.878216e-14
7.350000e+02 5.399087e-14
7.360000e+02 5.973871e-14
7.370000e+02 6.607971e-14
7.380000e+02 7.307313e-14
7.390000e+02 8.078394e-14
7.400000e+02 8.928338e-14
7.410000e+02 9.864953e-14
7.420000e+02 1.089679e-13
7.430000e+02 1.203323e-13
7.440000e+02 1.328452e-13
7.450000e+02 1.466190e-13
7.460000e+02 1.617767e-13
7.470000e+02 1.784528e-13
7.480000e+02 1.967944e-13
7.490000e+02 2.169627e-13
7.500000e+02 2.391335e-13
7.510000e+02 2.634993e-13
7.520000e+02 2.902702e-13
7.530000e+02 3.196761e-13
7.540000e+02 3.519676e-13
7.550000e+02 3.874189e-13
7.560000e+02 4.263290e-13
7.570000e+02 4.690243e-13
7.580000e+02 5.158609e-13
7.590000e+02 5.672274e-13
7.600000e+02 6.235475e-13
7.610000e+02 6.852832e-13
7.620000e+02 7.529381e-13
7.630000e+02 8.270610e-13
7.640000e+02 9.082498e-13
7.650000e+02 9.971559e-13
7.660000e+02 1.094489e-12
7.670000e+02 1.201020e-12
7.680000e+02 1.317590e-12
7.690000e+02 1.445115e-12
7.700000e+02 1.584588e-12
7.710000e+02 1.737093e-12
7.720000e+02 1.903806e-12
7.730000e+02 2.086006e-12
7.740000e+02 2.285085e-12
7.750000e+02 2.502553e-12
7.760000e+02 2.740053e-12
7.770000e+02 2.999367e-12
7.780000e+02 3.282432e-12
7.790000e+02 3.591350e-12
7.800000e+02 3.928402e-12
7.810000e+02 4.296065e-12
7.820000e+02 4.697025e-12
7.830000e+02 5.134195e-12
7.840000e+02 5.610734e-12
7.850000e+02 6.130067e-12
7.860000e+02 6.695908e-12
7.870000e+02 7.312279e-12
7.880000e+02 7.983540e-12
7.890000e+02 8.714411e-12
7.900000e+02 9.510006e-12
7.910000e+02 1.037586e-11
7.920000e+02 1.131797e-11
7.930000e+02 1.234281e-11
7.940000e+02 1.345741e-11
7.950000e+02 1.466935e-11
7.960000e+02 1.598685e-11
7.970000e+02 1.741878e-11
7.980000e+02 1.897474e-11
7.990000e+02 2.066509e-11
8.000000e+02 2.250106e-11
8.010000e+02 2.449474e-11
8.020000e+02 2.665921e-11
8.030000e+02 2.900861e-11
8.040000e+02 3.155817e-11
8.050000e+02 3.432437e-11
8.060000e+02 3.732497e-11
8.070000e+02 4.057913e-11
8.080000e+02 4.410754e-11
8.090000e+02 4.793250e-11
8.100000e+02 5.207806e-11
8.110000e+02 5.657016e-11
8.120000e+02 6.143675e-11
8.130000e+02 6.670795e-11
8.140000e+02 7.241622e-11
8.150000e+02 7.859652e-11
8.160000e+02 8.528651e-11
8.170000e+02 9.252674e-11
8.180000e+02 1.003609e-10
8.190000e+02 1.088359e-10
8.200000e+02 1.180024e-10
8.210000e+02 1.279147e-10
8.220000e+02 1.386315e-10
8.230000e+02 1.502156e-10
8.240000e+02 1.627349e-10
8.250000e+02 1.762620e-10
8.260000e+02 1.908752e-10
8.270000e+02 2.066586e-10
8.280000e+02 2.237025e-10
8.290000e+02 2.421041e-10
8.300000e+02 2.619676e-10
8.310000e+02 2.834050e-10
8.320000e+02 3.065364e-10
8.330000e+02 3.314909e-10
8.340000e+02 3.584072e-10
8.350000e+02 3.874337e-10
8.360000e+02 4.187299e-10
8.370000e+02 4.524670e-10
8.380000e+02 4.888285e-10
8.390000e+02 5.280109e-10
8.400000e+02 5.702253e-10
8.410000e+02 6.156978e-10
8.420000e+02 6.646706e-10
8.430000e+02 7.174034e-10
8.440000e+02 7.741743e-10
8.450000e+02 8.352813e-10
8.460000e+02 9.010435e-10
8.470000e+02 9.718024e-10
8.480000e+02 1.047924e-09
8.490000e+02 1.129799e-09
8.500000e+02 1.217848e-09
8.510000e+02 1.312518e-09
8.520000e+02 1.414288e-09
8.530000e+02 1.523673e-09
8.540000e+02 1.641220e-09
8.550000e+02 1.767516e-09
8.560000e+02 1.903188e-09
8.570000e+02 2.048906e-09
8.580000e+02 2.205387e-09
8.590000e+02 2.373396e-09
8.600000e+02 2.553751e-09
8.610000e+02 2.747325e-09
8.620000e+02 2.955052e-09
8.630000e+02 3.177926e-09
8.640000e+02 3.417012e-09
8.650000e+02 3.673444e-09
8.660000e+02 3.948434e-09
8.670000e+02 4.243274e-09
8.680000e+02 4.559344e-09
8.690000e+02 4.898115e-09
8.700000e+02 5.261156e-09
8.710000e+02 5.650140e-09
8.720000e+02 6.066851e-09
8.730000e+02 6.513190e-09
8.740000e+02 6.991185e-09
8.750000e+02 7.502996e-09
8.760000e+02 8.050924e-09
8.770000e+02 8.637421e-09
8.780000e+02 9.265101e-09
8.790000e+02 9.936742e-09
8.800000e+02 1.065531e-08
8.810000e+02 1.142395e-08
8.820000e+02 1.224603e-08
8.830000e+02 1.312512e-08
8.840000e+02 1.406501e-08
8.850000e+02 1.506976e-08
8.860000e+02 1.614367e-08
8.870000e+02 1.729131e-08
8.880000e+02 1.851755e-08
8.890000e+02 1.982758e-08
8.900000e+02 2.122688e-08
8.910000e+02 2.272132e-08
8.920000e+02 2.431711e-08
8.930000e+02 2.602086e-08
8.940000e+02 2.783959e-08
8.950000e+02 2.978075e-08
8.960000e+02 3.185228e-08
8.970000e+02 3.406257e-08
8.980000e+02 3.642058e-08
8.990000e+02 3.893578e-08
9.000000e+02 4.161825e-08
9.010000e+02 4.447867e-08
9.020000e+02 4.752839e-08
9.030000e+02 5.077945e-08
9.040000e+02 5.424462e-08
9.050000e+02 5.793743e-08
9.060000e+02 6.187227e-08
9.070000e+02 6.606438e-08
9.080000e+02 7.052990e-08
9.090000e+02 7.528597e-08
9.100000e+02 8.035074e-08
9.110000e+02 8.574348e-08
9.120000e+02 9.148456e-08
9.130000e+02 9.759560e-08
9.140000e+02 1.045637e-07
9.150000e+02 2.159924e-05
9.160000e+02 1.322005e-04
9.170000e+02 6.819611e-06
9.180000e+02 2.769589e-05
9.190000e+02 3.665571e-04
9.200000e+02 1.008906e-03
9.210000e+02 1.628552e-07
9.220000e+02 5.471993e-04
9.230000e+02 5.610497e-06
9.240000e+02 1.348357e-05
9.250000e+02 1.048663e-04
9.260000e+02 3.867978e-05
9.270000e+02 1.060161e-05
9.280000e+02 5.247478e-03
9.290000e+02 5.260101e-03
9.300000e+02 1.198494e-03
9.310000e+02 9.187412e-06
9.320000e+02 4.186897e-03
9.330000e+02 6.637233e-04
9.340000e+02 1.849988e-04
9.350000e+02 1.214164e-05
9.360000e+02 2.874412e-05
9.370000e+02 3.468613e-06
9.380000e+02 8.648067e-06
9.390000e+02 7.308371e-05
9.400000e+02 4.937558e-03
9.410000e+02 5.379601e-04
9.420000e+02 1.567685e-02
9.430000e+02 1.162174e-04
9.440000e+02 1.749584e-02
9.450000e+02 1.645853e-02
9.460000e+02 2.074180e-03
9.470000e+02 4.199275e-06
9.480000e+02 5.404589e-03
9.490000e+02 5.797874e-04
9.500000e+02 1.176482e-05
9.510000e+02 1.145860e-03
9.520000e+02 3.062384e-03
9.530000e+02 2.548780e-05
9.540000e+02 4.647452e-06
9.550000e+02 3.046878e-04
9.560000e+02 2.327125e-02
9.570000e+02 1.332513e-04
9.580000e+02 2.168934e-06
9.590000e+02 1.643020e-02
9.600000e+02 2.424454e-05
9.610000e+02 2.677167e-03
9.620000e+02 9.109985e-04
9.630000e+02 2.018195e-04
9.640000e+02 2.356025e-05
9.650000e+02 1.300685e-05
9.660000e+02 3.261566e-04
9.670000e+02 6.007683e-05
9.680000e+02 3.907271e-05
9.690000e+02 1.985561e-03
9.700000e+02 1.900219e-03
9.710000e+02 8.107816e-05
9.720000e+02 3.452180e-05
9.730000e+02 1.190566e-04
9.740000e+02 1.632661e-03
9.750000e+02 6.117072e-04
9.760000e+02 1.736821e-02
9.770000e+02 9.968237e-03
9.780000e+02 3.538305e-03
9.790000e+02 7.318186e-02
9.800000e+02 7.484842e-02
9.810000e+02 2.550274e-03
9.820000e+02 4.450046e-04
9.830000e+02 6.151449e-02
9.840000e+02 2.441574e-03
9.850000e+02 1.172924e-03
9.860000e+02 1.791011e-03
9.870000e+02 7.349835e-02
9.880000e+02 3.577024e-05
9.890000e+02 1.270300e-02
9.900000e+02 1.752118e-02
9.910000e+02 4.054841e-04
9.920000e+02 1.301272e-05
9.930000e+02 1.385223e-01
9.940000e+02 1.856592e-05
9.950000e+02 7.019450e-03
9.960000e+02 1.301169e-04
9.970000e+02 5.640623e-03
9.980000e+02 4.142467e-02
9.990000e+02 7.309655e-04
1.000000e+03 2.135188e-01
1.001000e+03 1.872364e-01
1.002000e+03 1.734503e-01
1.003000e+03 8.307174e-04
1.004000e+03 6.031990e-05
1.005000e+03 2.750158e-03
1.006000e+03 1.357755e-01
1.007000e+03 2.070929e-01
1.008000e+03 7.304056e-02
1.009000e+03 1.272525e-03
1.010000e+03 7.833364e-02
1.011000e+03 1.299216e-01
1.012000e+03 9.722847e-02
1.013000e+03 8.649260e-02
1.014000e+03 4.019216e-05
1.015000e+03 9.985268e-05
1.016000e+03 3.184199e-03
1.017000e+03 4.214048e-05
1.018000e+03 1.265161e-03
1.019000e+03 9.478629e-05
1.020000e+03 1.531398e-01
1.021000e+03 1.924112e-03
1.022000e+03 2.907872e-03
1.023000e+03 2.080761e-04
1.024000e+03 1.472352e-02
1.025000e+03 6.049377e-05
1.026000e+03 9.363308e-05
1.027000e+03 5.062614e-03
1.028000e+03 5.152188e-04
1.029000e+03 8.037686e-05
1.030000e+03 1.408690e-02
1.031000e+03 2.212769e-02
1.032000e+03 2.614687e-01
1.033000e+03 4.877165e-03
1.034000e+03 3.374562e-02
1.035000e+03 3.310293e-04
1.036000e+03 1.279861e-04
1.037000e+03 2.742280e-01
1.038000e+03 1.334194e+00
1.039000e+03 2.976979e-01
1.040000e+03 3.426728e-01
1.041000e+03 1.773289e+00
1.042000e+03 1.032574e+00
1.043000e+03 9.292172e-01
1.044000e+03 2.797941e+00
1.045000e+03 3.122770e-04
1.046000e+03 3.468374e-01
1.047000e+03 7.953537e-02
1.048000e+03 1.865938e-03
1.049000e+03 9.028655e-02
1.050000e+03 2.638614e-02
1.051000e+03 1.384568e-02
1.052000e+03 1.218243e+00
1.053000e+03 2.397692e+00
1.054000e+03 2.733469e-04
1.055000e+03 2.766427e+00
1.056000e+03 2.981459e+00
1.057000e+03 2.384242e-01
1.058000e+03 1.489086e-02
1.059000e+03 7.777095e-03
1.060000e+03 2.847314e-03
1.061000e+03 4.159107e-01
1.062000e+03 7.827373e-03
1.063000e+03 2.090344e-01
1.064000e+03 6.284714e-04
1.065000e+03 4.611015e-04
1.066000e+03 5.863407e-01
1.067000e+03 8.172376e-03
1.068000e+03 5.769150e+00
1.069000e+03 2.144592e-03
1.070000e+03 1.346998e-01
1.071000e+03 2.653351e+00
1.072000e+03 4.974077e+00
1.073000e+03 8.153915e-04
1.074000e+03 2.458341e-01
1.075000e+03 1.368694e-01
1.076000e+03 5.455324e+00
1.077000e+03 7.404417e-03
1.078000e+03 1.946402e-02
1.079000e+03 8.962878e-02
1.080000e+03 3.223553e-01
1.081000e+03 1.523899e+00
1.082000e+03 8.619089e-01
1.083000e+03 4.328518e-01
1.084000e+03 1.070980e+01
1.085000e+03 1.038713e-01
1.086000e+03 9.197050e+00
1.087000e+03 2.073383e-02
1.088000e+03 1.276875e+01
1.089000e+03 1.307275e+01
1.090000e+03 8.151976e-02
1.091000e+03 1.144552e-01
1.092000e+03 1.158920e+01
1.093000e+03 1.327486e+01
1.094000e+03 1.215844e+00
1.095000e+03 1.615825e+01
1.096000e+03 1.090160e+00
1.097000e+03 4.791539e+00
1.098000e+03 1.588794e+01
1.099000e+03 3.183098e-01
1.100000e+03 6.662399e-03
1.101000e+03 1.806785e-02
1.102000e+03 1.880736e-01
1.103000e+03 1.667179e+01
1.104000e+03 2.093419e+01
1.105000e+03 1.944527e+01
1.106000e+03 9.773901e-01
1.107000e+03 1.030636e-02
1.108000e+03 6.587537e+00
1.109000e+03 1.072969e-01
1.110000e+03 2.407196e+01
1.111000e+03 1.566996e+01
1.112000e+03 2.964150e+00
1.113000e+03 1.836712e+01
1.114000e+03 1.674659e+00
1.115000e+03 1.425466e-01
1.116000e+03 6.470913e-02
1.117000e+03 1.740808e+01
1.118000e+03 1.766448e-01
1.119000e+03 3.772929e+00
1.120000e+03 8.282375e-02
1.121000e+03 1.390346e+01
1.122000e+03 3.068803e+01
1.123000e+03 2.560186e+01
1.124000e+03 2.930371e+01
1.125000e+03 1.492077e+01
1.126000e+03 4.880942e+01
1.127000e+03 2.089961e+01
1.128000e+03 2.784411e+01
1.129000e+03 9.120052e+00
1.130000e+03 3.217732e+01
1.131000e+03 3.353222e+01
1.132000e+03 1.497023e-01
1.133000e+03 8.369827e-01
1.134000e+03 1.010729e+01
1.135000e+03 2.180281e+01
1.136000e+03 1.874224e+00
1.137000e+03 2.579989e+01
1.138000e+03 8.167983e+00
1.139000e+03 3.631831e+01
1.140000e+03 3.580271e+01
1.141000e+03 3.392815e+01
1.142000e+03 3.832247e+01
1.143000e+03 1.232266e+01
1.144000e+03 3.796438e+01
1.145000e+03 7.763481e-02
1.146000e+03 4.090534e+01
1.147000e+03 3.790630e+01
1.148000e+03 5.288486e-01
1.149000e+03 2.832194e+01
1.150000e+03 2.121771e+01
1.151000e+03 4.039151e+01
1.152000e+03 3.334426e+01
1.153000e+03 3.730620e+01
1.154000e+03 4.068910e+01
1.155000e+03 2.542883e+01
1.156000e+03 3.342853e+01
1.157000e+03 3.786315e+01
1.158000e+03 1.262140e+01
1.159000e+03 3.837267e+01
1.160000e+03 1.407792e+01
1.161000e+03 3.540375e+01
1.162000e+03 2.113470e+00
1.163000e+03 6.571392e+00
1.164000e+03 1.827221e-01
1.165000e+03 2.158823e+01
1.166000e+03 1.256719e+01
1.167000e+03 9.654742e+00
1.168000e+03 4.179373e+01
1.169000e+03 4.302687e+01
1.170000e+03 8.743737e+00
1.171000e+03 2.277601e+01
1.172000e+03 1.350645e+01
1.173000e+03 1.774464e+01
1.174000e+03 4.469471e-01
1.175000e+03 1.272001e-01
1.176000e+03 5.506802e-02
1.177000e+03 5.276826e+01
1.178000e+03 5.080534e+01
1.179000e+03 4.737935e+01
1.180000e+03 3.088594e+01
1.181000e+03 4.574863e+01
1.182000e+03 4.304479e+01
1.183000e+03 3.089400e+01
1.184000e+03 2.723223e+01
1.185000e+03 3.125159e+01
1.186000e+03 2.156686e+00
1.187000e+03 3.594941e+01
1.188000e+03 2.108685e+01
1.189000e+03 3.802204e+01
1.190000e+03 3.713962e+01
1.191000e+03 3.240503e+01
1.192000e+03 3.237093e+01
1.193000e+03 2.855892e+01
1.194000e+03 3.125567e+01
1.195000e+03 3.001603e+01
1.196000e+03 1.886328e+02
1.197000e+03 2.213264e+02
1.198000e+03 6.687820e+00
1.199000e+03 2.030320e+02
1.200000e+03 1.917937e+01
1.201000e+03 1.734867e+02
1.202000e+03 8.276423e+01
1.203000e+03 1.368973e+02
1.204000e+03 1.791513e+01
1.205000e+03 1.008389e+02
1.206000e+03 8.833678e+01
1.207000e+03 1.812900e+01
1.208000e+03 5.037400e+01
1.209000e+03 4.036414e+01
1.210000e+03 2.340336e-01
1.211000e+03 1.692931e+01
1.212000e+03 8.404722e+00
1.213000e+03 4.109442e+00
1.214000e+03 1.260813e+00
1.215000e+03 2.319527e-01
1.216000e+03 1.951261e-01
1.217000e+03 7.959953e-01
1.218000e+03 3.375167e+00
1.219000e+03 8.695658e+00
1.220000e+03 1.076970e+01
1.221000e+03 3.204250e+01
1.222000e+03 4.782953e+01
1.223000e+03 6.061168e+01
1.224000e+03 9.489343e+01
1.225000e+03 9.767044e+00
1.226000e+03 1.728175e+02
1.227000e+03 2.120782e+02
1.228000e+03 6.255859e+01
1.229000e+03 2.611715e+02
1.230000e+03 2.198864e+02
1.231000e+03 3.963702e+01
1.232000e+03 4.264226e+02
1.233000e+03 4.736570e+02
1.234000e+03 4.197781e+02
1.235000e+03 5.188381e+02
1.236000e+03 1.052311e+02
1.237000e+03 6.218446e+02
1.238000e+03 6.291834e+02
1.239000e+03 4.730604e+02
1.240000e+03 3.095097e+02
1.241000e+03 4.886862e+02
1.242000e+03 7.096462e+02
1.243000e+03 8.273440e+02
1.244000e+03 8.727324e+02
1.245000e+03 8.765740e+02
1.246000e+03 7.585234e+02
1.247000e+03 8.717355e+02
1.248000e+03 8.223646e+02
1.249000e+03 1.042964e+03
1.250000e+03 7.878718e+02
1.251000e+03 1.090412e+03
1.252000e+03 1.006926e+03
1.253000e+03 1.148127e+03
1.254000e+03 1.077884e+03
1.255000e+03 5.168931e+02
1.256000e+03 9.635785e+02
1.257000e+03 8.978640e+02
1.258000e+03 7.589540e+02
1.259000e+03 9.672086e+02
1.260000e+03 1.297601e+03
1.261000e+03 7.153601e+01
1.262000e+03 1.361976e+03
1.263000e+03 1.299696e+03
1.264000e+03 9.272791e+02
1.265000e+03 1.814291e+02
1.266000e+03 1.512494e+03
1.267000e+03 1.236209e+03
