# wavelength_A flux
5.000000e+02 6.650407e-18
5.010000e+02 7.885291e-18
5.020000e+02 9.342947e-18
5.030000e+02 1.106238e-17
5.040000e+02 1.308921e-17
5.050000e+02 1.561589e-17
5.060000e+02 1.845151e-17
5.070000e+02 2.178726e-17
5.080000e+02 2.570873e-17
5.090000e+02 3.031571e-17
5.100000e+02 3.572442e-17
5.110000e+02 4.207030e-17
5.120000e+02 4.951081e-17
5.130000e+02 5.822913e-17
5.140000e+02 6.843812e-17
5.150000e+02 8.038470e-17
5.160000e+02 9.435673e-17
5.170000e+02 1.106847e-16
5.180000e+02 1.297591e-16
5.190000e+02 1.520225e-16
5.200000e+02 1.779940e-16
5.210000e+02 2.082723e-16
5.220000e+02 2.435414e-16
5.230000e+02 2.846276e-16
5.240000e+02 3.324301e-16
5.250000e+02 3.880241e-16
5.260000e+02 4.526405e-16
5.270000e+02 5.276989e-16
5.280000e+02 6.148353e-16
5.290000e+02 7.158715e-16
5.300000e+02 8.331609e-16
5.310000e+02 9.690128e-16
5.320000e+02 1.126357e-15
5.330000e+02 1.308487e-15
5.340000e+02 1.519187e-15
5.350000e+02 1.762798e-15
5.360000e+02 2.044300e-15
5.370000e+02 2.357805e-15
5.380000e+02 2.744661e-15
5.390000e+02 3.177569e-15
5.400000e+02 3.676718e-15
5.410000e+02 4.251756e-15
5.420000e+02 4.914287e-15
5.430000e+02 5.676797e-15
5.440000e+02 6.554012e-15
5.450000e+02 7.562662e-15
5.460000e+02 8.721227e-15
5.470000e+02 1.005323e-14
5.480000e+02 1.158169e-14
5.490000e+02 1.333544e-14
5.500000e+02 1.534661e-14
5.510000e+02 1.765180e-14
5.520000e+02 2.029263e-14
5.530000e+02 2.331640e-14
5.540000e+02 2.677687e-14
5.550000e+02 3.073510e-14
5.560000e+02 3.526037e-14
5.570000e+02 4.043132e-14
5.580000e+02 4.633711e-14
5.590000e+02 5.307882e-14
5.600000e+02 6.077093e-14
5.610000e+02 6.954312e-14
5.620000e+02 7.954211e-14
5.630000e+02 9.093393e-14
5.640000e+02 1.039063e-13
5.650000e+02 1.186713e-13
5.660000e+02 1.354689e-13
5.670000e+02 1.545693e-13
5.680000e+02 1.762783e-13
5.690000e+02 2.009403e-13
5.700000e+02 2.289438e-13
5.710000e+02 2.607269e-13
5.720000e+02 2.967828e-13
5.730000e+02 3.376670e-13
5.740000e+02 3.840048e-13
5.750000e+02 4.365025e-13
5.760000e+02 4.959194e-13
5.770000e+02 5.632264e-13
5.780000e+02 6.393434e-13
5.790000e+02 7.254186e-13
5.800000e+02 8.227115e-13
5.810000e+02 9.326353e-13
5.820000e+02 1.056774e-12
5.830000e+02 1.196901e-12
5.840000e+02 1.354853e-12
5.850000e+02 1.533313e-12
5.860000e+02 1.734401e-12
5.870000e+02 1.960961e-12
5.880000e+02 2.216155e-12
5.890000e+02 2.503464e-12
5.900000e+02 2.826850e-12
5.910000e+02 3.190627e-12
5.920000e+02 3.599701e-12
5.930000e+02 4.059509e-12
5.940000e+02 4.576135e-12
5.950000e+02 5.156355e-12
5.960000e+02 5.807741e-12
5.970000e+02 6.538714e-12
5.980000e+02 7.358669e-12
5.990000e+02 8.278066e-12
6.000000e+02 9.308551e-12
6.010000e+02 1.046234e-11
6.020000e+02 1.175609e-11
6.030000e+02 1.320359e-11
6.040000e+02 1.482343e-11
6.050000e+02 1.663539e-11
6.060000e+02 1.866148e-11
6.070000e+02 2.092615e-11
6.080000e+02 2.345648e-11
6.090000e+02 2.628257e-11
6.100000e+02 2.943776e-11
6.110000e+02 3.295910e-11
6.120000e+02 3.688753e-11
6.130000e+02 4.126849e-11
6.140000e+02 4.615227e-11
6.150000e+02 5.159457e-11
6.160000e+02 5.765700e-11
6.170000e+02 6.440774e-11
6.180000e+02 7.192218e-11
6.190000e+02 8.028366e-11
6.200000e+02 8.958430e-11
6.210000e+02 9.992582e-11
6.220000e+02 1.114206e-10
6.230000e+02 1.241926e-10
6.240000e+02 1.383789e-10
6.250000e+02 1.541302e-10
6.260000e+02 1.716133e-10
6.270000e+02 1.910115e-10
6.280000e+02 2.125273e-10
6.290000e+02 2.363835e-10
6.300000e+02 2.628254e-10
6.310000e+02 2.920823e-10
6.320000e+02 3.245748e-10
6.330000e+02 3.605033e-10
6.340000e+02 4.002788e-10
6.350000e+02 4.442854e-10
6.360000e+02 4.929556e-10
6.370000e+02 5.467927e-10
6.380000e+02 6.062929e-10
6.390000e+02 6.720423e-10
6.400000e+02 7.446733e-10
6.410000e+02 8.248799e-10
6.420000e+02 9.134232e-10
6.430000e+02 1.011138e-09
6.440000e+02 1.118940e-09
6.450000e+02 1.237831e-09
6.460000e+02 1.368911e-09
6.470000e+02 1.513382e-09
6.480000e+02 1.672564e-09
6.490000e+02 1.847897e-09
6.500000e+02 2.040958e-09
6.510000e+02 2.253479e-09
6.520000e+02 2.487344e-09
6.530000e+02 2.744616e-09
6.540000e+02 3.027553e-09
6.550000e+02 3.338619e-09
6.560000e+02 3.680505e-09
6.570000e+02 4.056113e-09
6.580000e+02 4.468768e-09
6.590000e+02 4.921854e-09
6.600000e+02 5.419222e-09
6.610000e+02 5.965066e-09
6.620000e+02 6.563901e-09
6.630000e+02 7.220689e-09
6.640000e+02 7.940827e-09
6.650000e+02 8.730182e-09
6.660000e+02 9.595186e-09
6.670000e+02 1.054278e-08
6.680000e+02 1.158057e-08
6.690000e+02 1.271680e-08
6.700000e+02 1.396046e-08
6.710000e+02 1.532131e-08
6.720000e+02 1.680999e-08
6.730000e+02 1.843803e-08
6.740000e+02 2.021797e-08
6.750000e+02 2.216346e-08
6.760000e+02 2.428929e-08
6.770000e+02 2.661153e-08
6.780000e+02 2.914764e-08
6.790000e+02 3.191654e-08
6.800000e+02 3.493877e-08
6.810000e+02 3.823662e-08
6.820000e+02 4.183424e-08
6.830000e+02 4.575783e-08
6.840000e+02 5.003577e-08
6.850000e+02 5.469871e-08
6.860000e+02 5.978025e-08
6.870000e+02 6.531614e-08
6.880000e+02 7.134566e-08
6.890000e+02 7.791096e-08
6.900000e+02 8.505781e-08
6.910000e+02 9.283573e-08
6.920000e+02 1.012982e-07
6.930000e+02 1.105032e-07
6.940000e+02 1.205131e-07
6.950000e+02 1.313957e-07
6.960000e+02 1.432239e-07
6.970000e+02 1.560760e-07
6.980000e+02 1.700395e-07
6.990000e+02 1.852040e-07
7.000000e+02 2.016696e-07
7.010000e+02 2.195437e-07
7.020000e+02 2.389417e-07
7.030000e+02 2.599884e-07
7.040000e+02 2.828183e-07
7.050000e+02 3.075765e-07
7.060000e+02 3.344191e-07
7.070000e+02 3.635151e-07
7.080000e+02 3.950453e-07
7.090000e+02 4.292045e-07
7.100000e+02 4.662060e-07
7.110000e+02 5.062736e-07
7.120000e+02 5.496522e-07
7.130000e+02 5.966041e-07
7.140000e+02 6.474119e-07
7.150000e+02 7.023791e-07
7.160000e+02 7.618328e-07
7.170000e+02 8.261226e-07
7.180000e+02 8.956251e-07
7.190000e+02 9.707557e-07
7.200000e+02 1.051938e-06
7.210000e+02 1.139645e-06
7.220000e+02 1.234380e-06
7.230000e+02 1.336681e-06
7.240000e+02 1.447129e-06
7.250000e+02 1.566346e-06
7.260000e+02 1.694997e-06
7.270000e+02 1.833802e-06
7.280000e+02 1.983525e-06
7.290000e+02 2.144991e-06
7.300000e+02 2.319082e-06
7.310000e+02 2.506744e-06
7.320000e+02 2.708992e-06
7.330000e+02 2.926911e-06
7.340000e+02 3.161664e-06
7.350000e+02 3.414498e-06
7.360000e+02 3.686745e-06
7.370000e+02 3.979837e-06
7.380000e+02 4.295300e-06
7.390000e+02 4.634769e-06
7.400000e+02 4.999987e-06
7.410000e+02 5.392848e-06
7.420000e+02 5.815321e-06
7.430000e+02 6.269582e-06
7.440000e+02 6.757891e-06
7.450000e+02 7.282701e-06
7.460000e+02 7.846624e-06
7.470000e+02 8.452451e-06
7.480000e+02 9.103163e-06
7.490000e+02 9.801945e-06
7.500000e+02 1.055219e-05
7.510000e+02 1.135753e-05
7.520000e+02 1.222184e-05
7.530000e+02 1.314925e-05
7.540000e+02 1.414417e-05
7.550000e+02 1.521129e-05
7.560000e+02 1.635563e-05
7.570000e+02 1.758237e-05
7.580000e+02 1.889773e-05
7.590000e+02 2.030722e-05
7.600000e+02 2.181759e-05
7.610000e+02 2.343565e-05
7.620000e+02 2.516878e-05
7.630000e+02 2.702478e-05
7.640000e+02 2.901200e-05
7.650000e+02 3.113931e-05
7.660000e+02 3.341615e-05
7.670000e+02 3.585258e-05
7.680000e+02 3.845918e-05
7.690000e+02 4.124763e-05
7.700000e+02 4.422973e-05
7.710000e+02 4.741845e-05
7.720000e+02 5.082748e-05
7.730000e+02 5.447135e-05
7.740000e+02 5.836554e-05
7.750000e+02 6.252647e-05
7.760000e+02 6.696809e-05
7.770000e+02 7.171949e-05
7.780000e+02 7.678984e-05
7.790000e+02 8.220355e-05
7.800000e+02 8.798285e-05
7.810000e+02 9.415134e-05
7.820000e+02 1.007340e-04
7.830000e+02 1.077575e-04
7.840000e+02 1.152499e-04
7.850000e+02 1.232412e-04
7.860000e+02 1.317630e-04
7.870000e+02 1.408492e-04
7.880000e+02 1.505352e-04
7.890000e+02 1.608588e-04
7.900000e+02 1.718603e-04
7.910000e+02 1.835820e-04
7.920000e+02 1.960690e-04
7.930000e+02 2.093689e-04
7.940000e+02 2.235323e-04
7.950000e+02 2.386127e-04
7.960000e+02 2.546668e-04
7.970000e+02 2.717544e-04
7.980000e+02 2.899392e-04
7.990000e+02 3.092883e-04
8.000000e+02 3.298729e-04
8.010000e+02 3.517678e-04
8.020000e+02 3.750537e-04
8.030000e+02 3.998138e-04
8.040000e+02 4.261376e-04
8.050000e+02 4.541191e-04
8.060000e+02 4.838579e-04
8.070000e+02 5.154593e-04
8.080000e+02 5.490345e-04
8.090000e+02 5.847011e-04
8.100000e+02 6.225833e-04
8.110000e+02 6.628121e-04
8.120000e+02 7.055264e-04
8.130000e+02 7.508725e-04
8.140000e+02 7.990049e-04
8.150000e+02 8.500866e-04
8.160000e+02 9.042902e-04
8.170000e+02 9.617971e-04
8.180000e+02 1.022800e-03
8.190000e+02 1.087500e-03
8.200000e+02 1.156112e-03
8.210000e+02 1.228860e-03
8.220000e+02 1.305983e-03
8.230000e+02 1.387730e-03
8.240000e+02 1.474367e-03
8.250000e+02 1.566171e-03
8.260000e+02 1.663436e-03
8.270000e+02 1.766471e-03
8.280000e+02 1.875603e-03
8.290000e+02 1.991175e-03
8.300000e+02 2.113548e-03
8.310000e+02 2.243105e-03
8.320000e+02 2.380245e-03
8.330000e+02 2.525393e-03
8.340000e+02 2.678992e-03
8.350000e+02 2.841433e-03
8.360000e+02 3.013441e-03
8.370000e+02 3.195310e-03
8.380000e+02 3.387638e-03
8.390000e+02 3.591051e-03
8.400000e+02 3.806104e-03
8.410000e+02 4.033451e-03
8.420000e+02 4.273735e-03
8.430000e+02 4.527730e-03
8.440000e+02 4.796105e-03
8.450000e+02 5.079661e-03
8.460000e+02 5.379213e-03
8.470000e+02 5.695621e-03
8.480000e+02 6.029785e-03
8.490000e+02 6.382654e-03
8.500000e+02 6.755224e-03
8.510000e+02 7.148540e-03
8.520000e+02 7.563696e-03
8.530000e+02 8.001857e-03
8.540000e+02 8.464236e-03
8.550000e+02 8.952083e-03
8.560000e+02 9.466744e-03
8.570000e+02 1.000962e-02
8.580000e+02 1.058218e-02
8.590000e+02 1.118597e-02
8.600000e+02 1.182261e-02
8.610000e+02 1.249379e-02
8.620000e+02 1.320130e-02
8.630000e+02 1.394699e-02
8.640000e+02 1.473285e-02
8.650000e+02 1.556088e-02
8.660000e+02 1.643331e-02
8.670000e+02 1.735233e-02
8.680000e+02 1.832034e-02
8.690000e+02 1.933980e-02
8.700000e+02 2.041331e-02
8.710000e+02 2.154361e-02
8.720000e+02 2.273353e-02
8.730000e+02 2.398606e-02
8.740000e+02 2.530434e-02
8.750000e+02 2.669163e-02
8.760000e+02 2.815137e-02
8.770000e+02 2.968713e-02
8.780000e+02 3.130272e-02
8.790000e+02 3.300202e-02
8.800000e+02 3.478917e-02
8.810000e+02 3.666848e-02
8.820000e+02 3.864444e-02
8.830000e+02 4.072180e-02
8.840000e+02 4.290546e-02
8.850000e+02 4.520061e-02
8.860000e+02 4.761263e-02
8.870000e+02 5.014716e-02
8.880000e+02 5.281012e-02
8.890000e+02 5.560767e-02
8.900000e+02 5.854626e-02
8.910000e+02 6.163263e-02
8.920000e+02 6.485183e-02
8.930000e+02 6.827723e-02
8.940000e+02 7.185052e-02
8.950000e+02 7.560172e-02
8.960000e+02 7.953925e-02
8.970000e+02 8.367186e-02
8.980000e+02 8.800873e-02
8.990000e+02 9.255942e-02
9.000000e+02 9.733392e-02
9.010000e+02 1.023426e-01
9.020000e+02 1.075965e-01
9.030000e+02 1.131068e-01
9.040000e+02 1.188855e-01
9.050000e+02 1.249449e-01
9.060000e+02 1.312980e-01
9.070000e+02 1.379576e-01
9.080000e+02 1.449395e-01
9.090000e+02 1.522567e-01
9.100000e+02 1.599250e-01
9.110000e+02 1.679606e-01
9.120000e+02 1.763809e-01
9.130000e+02 1.847253e-01
9.140000e+02 1.967543e-01
9.150000e+02 1.362971e+00
9.160000e+02 1.965488e+00
9.170000e+02 2.048979e+00
9.180000e+02 2.122001e+00
9.190000e+02 2.230115e+00
9.200000e+02 2.323590e+00
9.210000e+02 2.718016e-01
9.220000e+02 2.515496e+00
9.230000e+02 2.593225e+00
9.240000e+02 2.609403e+00
9.250000e+02 2.762157e+00
9.260000e+02 2.931043e+00
9.270000e+02 2.983945e+00
9.280000e+02 3.198088e+00
9.290000e+02 3.287181e+00
9.300000e+02 3.384953e+00
9.310000e+02 3.449720e+00
9.320000e+02 3.747453e+00
9.330000e+02 3.889998e+00
9.340000e+02 4.048017e+00
9.350000e+02 4.079792e-01
9.360000e+02 3.766198e+00
9.370000e+02 4.671563e-01
9.380000e+02 1.183764e+00
9.390000e+02 4.817274e+00
9.400000e+02 5.116386e+00
9.410000e+02 7.009325e-01
9.420000e+02 5.531539e+00
9.430000e+02 5.698267e+00
9.440000e+02 4.152979e+00
9.450000e+02 6.202188e+00
9.460000e+02 6.435730e+00
9.470000e+02 3.933748e+00
9.480000e+02 3.466864e+00
9.490000e+02 7.112350e+00
9.500000e+02 8.623796e-01
9.510000e+02 7.589234e+00
9.520000e+02 8.105179e+00
9.530000e+02 7.710402e+00
9.540000e+02 5.770577e+00
9.550000e+02 9.030315e+00
9.560000e+02 3.750072e+00
9.570000e+02 3.313225e+00
9.580000e+02 7.277032e+00
9.590000e+02 1.070000e+01
9.600000e+02 1.322886e+00
9.610000e+02 1.149369e+01
9.620000e+02 1.192706e+01
9.630000e+02 1.228980e+01
9.640000e+02 1.975629e+00
9.650000e+02 1.041682e+01
9.660000e+02 1.377526e+01
9.670000e+02 1.370547e+01
9.680000e+02 1.382692e+01
9.690000e+02 1.530641e+01
9.700000e+02 1.598147e+01
9.710000e+02 1.573024e+01
9.720000e+02 1.418189e+01
9.730000e+02 1.447124e+01
9.740000e+02 1.810798e+01
9.750000e+02 1.903355e+01
9.760000e+02 2.007638e+01
9.770000e+02 2.086791e+01
9.780000e+02 2.148866e+01
9.790000e+02 2.250127e+01
9.800000e+02 2.330978e+01
9.810000e+02 2.410426e+01
9.820000e+02 2.457226e+01
9.830000e+02 2.599362e+01
9.840000e+02 6.321183e+00
9.850000e+02 2.761968e+01
9.860000e+02 2.864859e+01
9.870000e+02 3.001532e+01
9.880000e+02 2.694861e+01
9.890000e+02 2.634680e+01
9.900000e+02 5.263941e+00
9.910000e+02 3.216937e+01
9.920000e+02 1.968121e+01
9.930000e+02 3.280453e+01
9.940000e+02 6.675159e+00
9.950000e+02 6.534938e+00
9.960000e+02 3.759991e+01
9.970000e+02 6.357010e+00
9.980000e+02 4.394604e+01
9.990000e+02 4.041804e+01
1.000000e+03 4.707612e+01
1.001000e+03 4.916819e+01
1.002000e+03 5.087971e+01
1.003000e+03 4.972506e+01
1.004000e+03 4.807374e+01
1.005000e+03 5.243547e+01
1.006000e+03 5.838700e+01
1.007000e+03 6.029096e+01
1.008000e+03 6.224697e+01
1.009000e+03 6.261548e+01
1.010000e+03 6.686000e+01
1.011000e+03 6.917527e+01
1.012000e+03 7.151156e+01
1.013000e+03 7.393295e+01
1.014000e+03 4.614249e+01
1.015000e+03 6.536519e+01
1.016000e+03 7.978774e+01
1.017000e+03 5.129560e+01
1.018000e+03 8.510445e+01
1.019000e+03 7.550176e+01
1.020000e+03 9.247100e+01
1.021000e+03 2.187557e+01
1.022000e+03 7.104527e+01
1.023000e+03 8.476652e+01
1.024000e+03 7.386143e+01
1.025000e+03 3.854886e+01
1.026000e+03 2.070282e+01
1.027000e+03 8.106112e+01
1.028000e+03 2.160497e+01
1.029000e+03 7.679099e+01
1.030000e+03 1.233039e+02
1.031000e+03 1.315293e+02
1.032000e+03 1.350318e+02
1.033000e+03 2.750791e+01
1.034000e+03 1.469458e+02
1.035000e+03 3.112913e+01
1.036000e+03 8.963663e+01
1.037000e+03 1.599467e+02
1.038000e+03 1.689336e+02
1.039000e+03 1.720977e+02
1.040000e+03 1.802995e+02
1.041000e+03 1.795113e+02
1.042000e+03 1.922102e+02
1.043000e+03 1.765087e+02
1.044000e+03 2.052731e+02
1.045000e+03 2.114668e+02
1.046000e+03 2.190138e+02
1.047000e+03 2.250983e+02
1.048000e+03 2.156497e+02
1.049000e+03 2.214322e+02
1.050000e+03 2.467884e+02
1.051000e+03 2.531219e+02
1.052000e+03 2.650998e+02
1.053000e+03 2.730053e+02
1.054000e+03 1.733010e+02
1.055000e+03 2.723440e+02
1.056000e+03 3.008383e+02
1.057000e+03 3.094967e+02
1.058000e+03 3.168486e+02
1.059000e+03 3.194656e+02
1.060000e+03 3.138888e+02
1.061000e+03 3.510617e+02
1.062000e+03 3.553051e+02
1.063000e+03 7.462435e+01
1.064000e+03 9.525967e+01
1.065000e+03 2.661317e+02
1.066000e+03 1.780675e+02
1.067000e+03 3.972944e+02
1.068000e+03 4.365884e+02
1.069000e+03 3.730604e+02
1.070000e+03 4.620522e+02
1.071000e+03 4.787324e+02
1.072000e+03 4.934651e+02
1.073000e+03 3.815530e+02
1.074000e+03 5.222297e+02
1.075000e+03 5.368952e+02
1.076000e+03 5.565280e+02
1.077000e+03 3.973619e+02
1.078000e+03 5.815115e+02
1.079000e+03 6.047851e+02
1.080000e+03 6.245439e+02
1.081000e+03 6.462249e+02
1.082000e+03 6.645418e+02
1.083000e+03 6.843292e+02
1.084000e+03 7.058368e+02
1.085000e+03 3.568513e+02
1.086000e+03 7.489945e+02
1.087000e+03 7.394008e+02
1.088000e+03 7.885662e+02
1.089000e+03 8.168773e+02
1.090000e+03 8.302733e+02
1.091000e+03 8.521059e+02
1.092000e+03 8.869409e+02
1.093000e+03 9.144707e+02
1.094000e+03 9.411855e+02
1.095000e+03 9.695004e+02
1.096000e+03 9.300891e+02
1.097000e+03 9.832145e+02
1.098000e+03 1.026499e+03
1.099000e+03 1.080634e+03
1.100000e+03 9.401879e+02
1.101000e+03 9.671893e+02
1.102000e+03 2.905655e+03
1.103000e+03 1.212187e+04
1.104000e+03 3.923491e+03
1.105000e+03 1.145295e+03
1.106000e+03 2.852512e+04
1.107000e+03 8.900595e+03
1.108000e+03 2.981232e+04
1.109000e+03 1.678344e+04
1.110000e+03 9.572687e+03
1.111000e+03 3.509332e+03
1.112000e+03 2.885323e+04
1.113000e+03 3.377665e+04
1.114000e+03 8.408213e+02
1.115000e+03 2.799543e+04
1.116000e+03 2.695677e+04
1.117000e+03 9.387617e+02
1.118000e+03 1.990815e+04
1.119000e+03 3.746630e+04
1.120000e+03 2.916153e+04
1.121000e+03 3.779461e+04
1.122000e+03 6.810605e+02
1.123000e+03 2.952957e+03
1.124000e+03 4.149086e+04
1.125000e+03 2.659803e+04
1.126000e+03 4.335392e+04
1.127000e+03 4.218144e+04
1.128000e+03 2.056230e+04
1.129000e+03 4.425276e+04
1.130000e+03 3.835484e+04
1.131000e+03 4.742013e+04
1.132000e+03 8.374297e+02
1.133000e+03 3.792195e+04
1.134000e+03 4.646524e+04
1.135000e+03 8.551797e+02
1.136000e+03 4.881128e+04
1.137000e+03 5.332948e+04
1.138000e+03 5.347838e+04
1.139000e+03 5.415546e+04
1.140000e+03 1.047422e+03
1.141000e+03 5.761779e+04
1.142000e+03 5.870968e+04
1.143000e+03 5.894056e+04
1.144000e+03 6.081922e+04
1.145000e+03 2.794870e+04
1.146000e+03 6.341919e+04
1.147000e+03 6.333054e+04
1.148000e+03 5.439916e+04
1.149000e+03 6.677602e+04
1.150000e+03 6.757164e+04
1.151000e+03 6.897788e+04
1.152000e+03 7.095784e+04
1.153000e+03 2.676116e+04
1.154000e+03 6.005343e+04
1.155000e+03 7.437842e+04
1.156000e+03 1.794434e+04
1.157000e+03 7.732735e+04
1.158000e+03 1.737717e+03
1.159000e+03 6.881267e+04
1.160000e+03 8.086166e+04
1.161000e+03 8.387307e+04
1.162000e+03 2.433648e+04
1.163000e+03 8.378925e+04
1.164000e+03 2.013953e+03
1.165000e+03 9.042608e+04
1.166000e+03 9.228776e+04
1.167000e+03 9.427045e+04
1.168000e+03 9.714641e+04
1.169000e+03 9.582965e+04
1.170000e+03 1.012112e+05
1.171000e+03 1.038852e+05
1.172000e+03 1.050304e+05
1.173000e+03 1.088252e+05
1.174000e+03 8.239167e+04
1.175000e+03 2.856656e+03
1.176000e+03 3.271305e+03
1.177000e+03 1.187766e+05
1.178000e+03 1.202302e+05
1.179000e+03 1.237681e+05
1.180000e+03 1.041227e+05
1.181000e+03 1.286865e+05
1.182000e+03 1.323708e+05
1.183000e+03 1.345467e+05
1.184000e+03 1.369143e+05
1.185000e+03 1.395258e+05
1.186000e+03 1.311784e+05
1.187000e+03 1.445359e+05
1.188000e+03 1.445617e+05
1.189000e+03 4.547500e+03
1.190000e+03 1.861928e+04
1.191000e+03 1.502245e+05
1.192000e+03 1.520116e+05
1.193000e+03 5.475070e+03
1.194000e+03 5.076797e+03
1.195000e+03 1.353733e+05
1.196000e+03 1.565226e+05
1.197000e+03 3.072351e+05
1.198000e+03 2.869743e+05
1.199000e+03 2.940523e+05
1.200000e+03 2.442812e+05
1.201000e+03 2.671439e+05
1.202000e+03 2.594391e+05
1.203000e+03 3.839627e+05
1.204000e+03 3.154788e+05
1.205000e+03 2.922318e+05
1.206000e+03 2.738885e+05
1.207000e+03 1.256448e+04
1.208000e+03 1.645022e+05
1.209000e+03 1.074738e+05
1.210000e+03 8.140418e+03
1.211000e+03 4.611046e+04
1.212000e+03 2.414891e+04
1.213000e+03 1.296531e+04
1.214000e+03 8.146228e+03
1.215000e+03 8.951522e+03
1.216000e+03 1.013701e+04
1.217000e+03 8.406297e+03
1.218000e+03 1.197586e+04
1.219000e+03 2.356037e+04
1.220000e+03 4.633629e+04
1.221000e+03 8.342048e+04
1.222000e+03 1.361879e+05
1.223000e+03 2.031928e+05
1.224000e+03 2.837368e+05
1.225000e+03 3.486168e+05
1.226000e+03 4.863582e+05
1.227000e+03 5.882708e+05
1.228000e+03 6.990124e+05
1.229000e+03 8.434847e+05
1.230000e+03 7.639832e+05
1.231000e+03 1.014914e+06
1.232000e+03 1.232864e+06
1.233000e+03 1.365285e+06
1.234000e+03 6.682027e+05
1.235000e+03 1.620554e+06
1.236000e+03 1.641320e+06
1.237000e+03 1.868340e+06
1.238000e+03 1.987344e+06
1.239000e+03 2.093887e+06
1.240000e+03 1.556351e+06
1.241000e+03 2.815830e+06
1.242000e+03 2.156658e+06
1.243000e+03 2.814571e+06
1.244000e+03 1.586040e+06
1.245000e+03 2.208102e+06
1.246000e+03 3.913197e+06
1.247000e+03 4.012018e+06
1.248000e+03 1.585765e+06
1.249000e+03 2.214304e+06
1.250000e+03 4.310882e+06
1.251000e+03 4.776701e+06
1.252000e+03 4.848451e+06
1.253000e+03 5.102765e+06
1.254000e+03 5.214978e+06
1.255000e+03 4.954120e+06
1.256000e+03 5.438091e+06
1.257000e+03 5.450733e+06
1.258000e+03 5.579228e+06
1.259000e+03 5.833234e+06
1.260000e+03 5.103788e+06
1.261000e+03 3.214309e+04
1.262000e+03 1.239307e+06
1.263000e+03 6.193456e+06
1.264000e+03 6.020688e+06
1.265000e+03 3.533588e+04
1.266000e+03 6.877418e+06
1.267000e+03 7.075359e+06
