# wavelength_A flux
5.000000e+02 4.381049e-16
5.010000e+02 5.161411e-16
5.020000e+02 6.076700e-16
5.030000e+02 7.149535e-16
5.040000e+02 8.406173e-16
5.050000e+02 7.746628e-16
5.060000e+02 9.106518e-16
5.070000e+02 1.069808e-15
5.080000e+02 1.255957e-15
5.090000e+02 1.473536e-15
5.100000e+02 1.727691e-15
5.110000e+02 2.024376e-15
5.120000e+02 2.370493e-15
5.130000e+02 2.774023e-15
5.140000e+02 3.244195e-15
5.150000e+02 3.792018e-15
5.160000e+02 4.428771e-15
5.170000e+02 5.172031e-15
5.180000e+02 6.030877e-15
5.190000e+02 7.031188e-15
5.200000e+02 8.192439e-15
5.210000e+02 9.539870e-15
5.220000e+02 1.111437e-14
5.230000e+02 1.291263e-14
5.240000e+02 1.500884e-14
5.250000e+02 1.743396e-14
5.260000e+02 2.024030e-14
5.270000e+02 2.348463e-14
5.280000e+02 2.723313e-14
5.290000e+02 3.164605e-14
5.300000e+02 3.655708e-14
5.310000e+02 4.231890e-14
5.320000e+02 4.896094e-14
5.330000e+02 5.661343e-14
5.340000e+02 6.542529e-14
5.350000e+02 7.556712e-14
5.360000e+02 8.723834e-14
5.370000e+02 1.143380e-13
5.380000e+02 1.160771e-13
5.390000e+02 1.337353e-13
5.400000e+02 1.540356e-13
5.410000e+02 1.775162e-13
5.420000e+02 2.040492e-13
5.430000e+02 2.346155e-13
5.440000e+02 2.696526e-13
5.450000e+02 3.097579e-13
5.460000e+02 3.563679e-13
5.470000e+02 4.081052e-13
5.480000e+02 4.680685e-13
5.490000e+02 5.365567e-13
5.500000e+02 6.147531e-13
5.510000e+02 7.039841e-13
5.520000e+02 8.057557e-13
5.530000e+02 9.217719e-13
5.540000e+02 1.053960e-12
5.550000e+02 1.204501e-12
5.560000e+02 1.375856e-12
5.570000e+02 1.570808e-12
5.580000e+02 1.792497e-12
5.590000e+02 2.044469e-12
5.600000e+02 2.330722e-12
5.610000e+02 2.655762e-12
5.620000e+02 3.024669e-12
5.630000e+02 3.443164e-12
5.640000e+02 3.917687e-12
5.650000e+02 4.455501e-12
5.660000e+02 5.064715e-12
5.670000e+02 5.754537e-12
5.680000e+02 6.535252e-12
5.690000e+02 7.418429e-12
5.700000e+02 8.417096e-12
5.710000e+02 9.545714e-12
5.720000e+02 1.082075e-11
5.730000e+02 1.226051e-11
5.740000e+02 1.388553e-11
5.750000e+02 1.571614e-11
5.760000e+02 1.779511e-11
5.770000e+02 2.011313e-11
5.780000e+02 2.273825e-11
5.790000e+02 2.569466e-11
5.800000e+02 2.902279e-11
5.810000e+02 3.276789e-11
5.820000e+02 3.698094e-11
5.830000e+02 4.172206e-11
5.840000e+02 4.719135e-11
5.850000e+02 5.305530e-11
5.860000e+02 5.972979e-11
5.870000e+02 6.725725e-11
5.880000e+02 7.570569e-11
5.890000e+02 8.518661e-11
5.900000e+02 9.580224e-11
5.910000e+02 1.077036e-10
5.920000e+02 1.210334e-10
5.930000e+02 1.359572e-10
5.940000e+02 1.526588e-10
5.950000e+02 1.713423e-10
5.960000e+02 1.922344e-10
5.970000e+02 2.155871e-10
5.980000e+02 2.416797e-10
5.990000e+02 2.708222e-10
6.000000e+02 3.033583e-10
6.010000e+02 3.396758e-10
6.020000e+02 3.801766e-10
6.030000e+02 4.253485e-10
6.040000e+02 4.757023e-10
6.050000e+02 5.318113e-10
6.060000e+02 5.943206e-10
6.070000e+02 6.638972e-10
6.080000e+02 7.413504e-10
6.090000e+02 8.275254e-10
6.100000e+02 9.233692e-10
6.110000e+02 1.029925e-09
6.120000e+02 1.148348e-09
6.130000e+02 1.279912e-09
6.140000e+02 1.426020e-09
6.150000e+02 1.588221e-09
6.160000e+02 1.768224e-09
6.170000e+02 1.967908e-09
6.180000e+02 2.189348e-09
6.190000e+02 2.434828e-09
6.200000e+02 2.706852e-09
6.210000e+02 3.008194e-09
6.220000e+02 3.341893e-09
6.230000e+02 3.711293e-09
6.240000e+02 4.120071e-09
6.250000e+02 4.572269e-09
6.260000e+02 5.072326e-09
6.270000e+02 5.625119e-09
6.280000e+02 6.235993e-09
6.290000e+02 6.910830e-09
6.300000e+02 7.656073e-09
6.310000e+02 8.537351e-09
6.320000e+02 9.386718e-09
6.330000e+02 1.038905e-08
6.340000e+02 1.149304e-08
6.350000e+02 1.271311e-08
6.360000e+02 1.405337e-08
6.370000e+02 1.553203e-08
6.380000e+02 1.716084e-08
6.390000e+02 1.895424e-08
6.400000e+02 2.092822e-08
6.410000e+02 2.310027e-08
6.420000e+02 2.548950e-08
6.430000e+02 2.811677e-08
6.440000e+02 3.100490e-08
6.450000e+02 3.417891e-08
6.460000e+02 3.766561e-08
6.470000e+02 4.149515e-08
6.480000e+02 4.569939e-08
6.490000e+02 5.031399e-08
6.500000e+02 5.537764e-08
6.510000e+02 6.093121e-08
6.520000e+02 6.702144e-08
6.530000e+02 7.369774e-08
6.540000e+02 8.101446e-08
6.550000e+02 8.903009e-08
6.560000e+02 9.780932e-08
6.570000e+02 1.074370e-07
6.580000e+02 1.179436e-07
6.590000e+02 1.294573e-07
6.600000e+02 1.420529e-07
6.610000e+02 1.558272e-07
6.620000e+02 1.708870e-07
6.630000e+02 1.873474e-07
6.640000e+02 2.053331e-07
6.650000e+02 2.249813e-07
6.660000e+02 2.464354e-07
6.670000e+02 2.698589e-07
6.680000e+02 2.954238e-07
6.690000e+02 3.233183e-07
6.700000e+02 3.537460e-07
6.710000e+02 3.869276e-07
6.720000e+02 4.231025e-07
6.730000e+02 4.625297e-07
6.740000e+02 5.054897e-07
6.750000e+02 5.522862e-07
6.760000e+02 6.032479e-07
6.770000e+02 6.587305e-07
6.780000e+02 7.191188e-07
6.790000e+02 7.848286e-07
6.800000e+02 8.563098e-07
6.810000e+02 9.340487e-07
6.820000e+02 1.018571e-06
6.830000e+02 1.110441e-06
6.840000e+02 1.210277e-06
6.850000e+02 1.318738e-06
6.860000e+02 1.436537e-06
6.870000e+02 1.564448e-06
6.880000e+02 1.703301e-06
6.890000e+02 1.853993e-06
6.900000e+02 2.017493e-06
6.910000e+02 2.194840e-06
6.920000e+02 2.387163e-06
6.930000e+02 2.595672e-06
6.940000e+02 2.821673e-06
6.950000e+02 3.066570e-06
6.960000e+02 3.331879e-06
6.970000e+02 3.619898e-06
6.980000e+02 3.930370e-06
6.990000e+02 4.267195e-06
7.000000e+02 4.631733e-06
7.010000e+02 5.026166e-06
7.020000e+02 5.452842e-06
7.030000e+02 5.914285e-06
7.040000e+02 6.413209e-06
7.050000e+02 6.952528e-06
7.060000e+02 7.535372e-06
7.070000e+02 8.165105e-06
7.080000e+02 8.845338e-06
7.090000e+02 9.579977e-06
7.100000e+02 1.037309e-05
7.110000e+02 1.122923e-05
7.120000e+02 1.215317e-05
7.130000e+02 1.315002e-05
7.140000e+02 1.422531e-05
7.150000e+02 1.538494e-05
7.160000e+02 1.663523e-05
7.170000e+02 1.798338e-05
7.180000e+02 1.943784e-05
7.190000e+02 2.100032e-05
7.200000e+02 2.268604e-05
7.210000e+02 2.450150e-05
7.220000e+02 2.645627e-05
7.230000e+02 2.856050e-05
7.240000e+02 3.082520e-05
7.250000e+02 3.326204e-05
7.260000e+02 3.588352e-05
7.270000e+02 3.870303e-05
7.280000e+02 4.173485e-05
7.290000e+02 4.499427e-05
7.300000e+02 4.849763e-05
7.310000e+02 5.226237e-05
7.320000e+02 5.630712e-05
7.330000e+02 6.065178e-05
7.340000e+02 6.531761e-05
7.350000e+02 7.032729e-05
7.360000e+02 7.570564e-05
7.370000e+02 8.147662e-05
7.380000e+02 8.766966e-05
7.390000e+02 9.431355e-05
7.400000e+02 1.014402e-04
7.410000e+02 1.090813e-04
7.420000e+02 1.172746e-04
7.430000e+02 1.260562e-04
7.440000e+02 1.354679e-04
7.450000e+02 1.455523e-04
7.460000e+02 1.563554e-04
7.470000e+02 1.679260e-04
7.480000e+02 1.803162e-04
7.490000e+02 1.935814e-04
7.500000e+02 2.077806e-04
7.510000e+02 2.229765e-04
7.520000e+02 2.392358e-04
7.530000e+02 2.566296e-04
7.540000e+02 2.752334e-04
7.550000e+02 2.951277e-04
7.560000e+02 3.163975e-04
7.570000e+02 3.391430e-04
7.580000e+02 3.634329e-04
7.590000e+02 3.894061e-04
7.600000e+02 4.171362e-04
7.610000e+02 4.467617e-04
7.620000e+02 4.784013e-04
7.630000e+02 5.121849e-04
7.640000e+02 5.482497e-04
7.650000e+02 5.867438e-04
7.660000e+02 6.278196e-04
7.670000e+02 6.716462e-04
7.680000e+02 7.184281e-04
7.690000e+02 7.682632e-04
7.700000e+02 8.214241e-04
7.710000e+02 8.781105e-04
7.720000e+02 9.385337e-04
7.730000e+02 1.002932e-03
7.740000e+02 1.071554e-03
7.750000e+02 1.144661e-03
7.760000e+02 1.222755e-03
7.770000e+02 1.305469e-03
7.780000e+02 1.393775e-03
7.790000e+02 1.487791e-03
7.800000e+02 1.587865e-03
7.810000e+02 1.694366e-03
7.820000e+02 1.807692e-03
7.830000e+02 1.928256e-03
7.840000e+02 2.056499e-03
7.850000e+02 2.192886e-03
7.860000e+02 2.337912e-03
7.870000e+02 2.492035e-03
7.880000e+02 2.655921e-03
7.890000e+02 2.830097e-03
7.900000e+02 3.015177e-03
7.910000e+02 3.211810e-03
7.920000e+02 3.420682e-03
7.930000e+02 3.642519e-03
7.940000e+02 3.878088e-03
7.950000e+02 4.128193e-03
7.960000e+02 4.393692e-03
7.970000e+02 4.675482e-03
7.980000e+02 4.974515e-03
7.990000e+02 5.291795e-03
8.000000e+02 5.628380e-03
8.010000e+02 5.985395e-03
8.020000e+02 6.363994e-03
8.030000e+02 6.765443e-03
8.040000e+02 7.191045e-03
8.050000e+02 7.642180e-03
8.060000e+02 8.120303e-03
8.070000e+02 8.626950e-03
8.080000e+02 9.163737e-03
8.090000e+02 9.732369e-03
8.100000e+02 1.033464e-02
8.110000e+02 1.097244e-02
8.120000e+02 1.164776e-02
8.130000e+02 1.236270e-02
8.140000e+02 1.311947e-02
8.150000e+02 1.392046e-02
8.160000e+02 1.476789e-02
8.170000e+02 1.566457e-02
8.180000e+02 1.661313e-02
8.190000e+02 1.761641e-02
8.200000e+02 1.867742e-02
8.210000e+02 1.979931e-02
8.220000e+02 2.098539e-02
8.230000e+02 2.223917e-02
8.240000e+02 2.356427e-02
8.250000e+02 2.496457e-02
8.260000e+02 2.644413e-02
8.270000e+02 2.800719e-02
8.280000e+02 2.965823e-02
8.290000e+02 3.140194e-02
8.300000e+02 3.324326e-02
8.310000e+02 3.518737e-02
8.320000e+02 3.723972e-02
8.330000e+02 3.940601e-02
8.340000e+02 4.169226e-02
8.350000e+02 4.414391e-02
8.360000e+02 4.665300e-02
8.370000e+02 4.933525e-02
8.380000e+02 5.216754e-02
8.390000e+02 5.515441e-02
8.400000e+02 5.830407e-02
8.410000e+02 6.162485e-02
8.420000e+02 6.513889e-02
8.430000e+02 6.881547e-02
8.440000e+02 7.270423e-02
8.450000e+02 7.680202e-02
8.460000e+02 8.111946e-02
8.470000e+02 8.566774e-02
8.480000e+02 9.045852e-02
8.490000e+02 9.550406e-02
8.500000e+02 1.008172e-01
8.510000e+02 1.064114e-01
8.520000e+02 1.123012e-01
8.530000e+02 1.184999e-01
8.540000e+02 1.250203e-01
8.550000e+02 1.318860e-01
8.560000e+02 1.391101e-01
8.570000e+02 1.467102e-01
8.580000e+02 1.547068e-01
8.590000e+02 1.631137e-01
8.600000e+02 1.719568e-01
8.610000e+02 1.812556e-01
8.620000e+02 1.910316e-01
8.630000e+02 2.013093e-01
8.640000e+02 2.121113e-01
8.650000e+02 2.234649e-01
8.660000e+02 2.353946e-01
8.670000e+02 2.479298e-01
8.680000e+02 2.610989e-01
8.690000e+02 2.749323e-01
8.700000e+02 2.894681e-01
8.710000e+02 3.047200e-01
8.720000e+02 3.207421e-01
8.730000e+02 3.375640e-01
8.740000e+02 3.552233e-01
8.750000e+02 3.737597e-01
8.760000e+02 3.932142e-01
8.770000e+02 4.136320e-01
8.780000e+02 4.350514e-01
8.790000e+02 4.575257e-01
8.800000e+02 4.811018e-01
8.810000e+02 5.058306e-01
8.820000e+02 5.317655e-01
8.830000e+02 5.589619e-01
8.840000e+02 5.874779e-01
8.850000e+02 6.173738e-01
8.860000e+02 6.487131e-01
8.870000e+02 6.815608e-01
8.880000e+02 7.159865e-01
8.890000e+02 7.520608e-01
8.900000e+02 7.898588e-01
8.910000e+02 8.294582e-01
8.920000e+02 8.803494e-01
8.930000e+02 9.143888e-01
8.940000e+02 9.598925e-01
8.950000e+02 1.007543e+00
8.960000e+02 1.057435e+00
8.970000e+02 1.109669e+00
8.980000e+02 1.164349e+00
8.990000e+02 1.221582e+00
9.000000e+02 1.281482e+00
9.010000e+02 1.344164e+00
9.020000e+02 1.409752e+00
9.030000e+02 1.478373e+00
9.040000e+02 1.550156e+00
9.050000e+02 1.625242e+00
9.060000e+02 1.703773e+00
9.070000e+02 1.785969e+00
9.080000e+02 1.871774e+00
9.090000e+02 1.961559e+00
9.100000e+02 2.055424e+00
9.110000e+02 2.153491e+00
9.120000e+02 2.255716e+00
9.130000e+02 2.503554e+00
9.140000e+02 1.773796e+00
9.150000e+02 1.764174e+01
9.160000e+02 7.284814e+01
9.170000e+02 2.243956e+01
9.180000e+02 5.415578e+01
9.190000e+02 1.641798e+02
9.200000e+02 2.098335e+02
9.210000e+02 3.624235e+00
9.220000e+02 1.933559e+02
9.230000e+02 3.078648e+01
9.240000e+02 4.529713e+01
9.250000e+02 1.130076e+02
9.260000e+02 1.453170e+02
9.270000e+02 2.968024e+01
9.280000e+02 3.047430e+02
9.290000e+02 2.704845e+02
9.300000e+02 3.087831e+02
9.310000e+02 2.889452e+01
9.320000e+02 3.534846e+02
9.330000e+02 2.415847e+02
9.340000e+02 1.634450e+02
9.350000e+02 1.472569e+00
9.360000e+02 4.102956e+01
9.370000e+02 1.090849e+00
9.380000e+02 4.864991e+01
9.390000e+02 6.818844e+01
9.400000e+02 4.457596e+02
9.410000e+02 3.760482e+01
9.420000e+02 5.040609e+02
9.430000e+02 9.754410e+01
9.440000e+02 4.089018e+02
9.450000e+02 5.567562e+02
9.460000e+02 4.375536e+02
9.470000e+02 1.234752e+01
9.480000e+02 5.454089e+02
9.490000e+02 5.716551e+02
9.500000e+02 3.865463e+00
9.510000e+02 4.272536e+02
9.520000e+02 5.246501e+02
9.530000e+02 2.299454e+01
9.540000e+02 1.297236e+01
9.550000e+02 2.527297e+02
9.560000e+02 7.815135e+02
9.570000e+02 5.067316e+01
9.580000e+02 4.991730e+00
9.590000e+02 8.843109e+02
9.600000e+02 2.998322e+00
9.610000e+02 6.068199e+02
9.620000e+02 3.732205e+02
9.630000e+02 2.854269e+02
9.640000e+02 7.774536e+00
9.650000e+02 2.541962e+01
9.660000e+02 2.905630e+02
9.670000e+02 8.152948e+01
9.680000e+02 4.036865e+01
9.690000e+02 6.387095e+02
9.700000e+02 5.578325e+02
9.710000e+02 8.210271e+01
9.720000e+02 1.149552e+02
9.730000e+02 8.288570e+02
9.740000e+02 7.617959e+02
9.750000e+02 4.074066e+02
9.760000e+02 1.398532e+03
9.770000e+02 1.256825e+03
9.780000e+02 7.774552e+02
9.790000e+02 1.793137e+03
9.800000e+02 1.852275e+03
9.810000e+02 8.997289e+02
9.820000e+02 2.656954e+02
9.830000e+02 1.954467e+03
9.840000e+02 1.047113e+02
9.850000e+02 6.523742e+02
9.860000e+02 6.911203e+02
9.870000e+02 2.238843e+03
9.880000e+02 4.291089e+01
9.890000e+02 1.248158e+03
9.900000e+02 1.143424e+01
9.910000e+02 1.403777e+02
9.920000e+02 1.573444e+01
9.930000e+02 2.524896e+03
9.940000e+02 1.543811e+01
9.950000e+02 9.774612e+01
9.960000e+02 9.813208e+01
9.970000e+02 6.623370e+01
9.980000e+02 2.457125e+03
9.990000e+02 1.872926e+02
1.000000e+03 3.409778e+03
1.001000e+03 3.744703e+03
1.002000e+03 3.734359e+03
1.003000e+03 4.803158e+02
1.004000e+03 7.697168e+01
1.005000e+03 8.583213e+02
1.006000e+03 4.072495e+03
1.007000e+03 4.423980e+03
1.008000e+03 3.894495e+03
1.009000e+03 7.188787e+02
1.010000e+03 4.161461e+03
1.011000e+03 4.823646e+03
1.012000e+03 4.413360e+03
1.013000e+03 4.296345e+03
1.014000e+03 3.222021e+01
1.015000e+03 8.020361e+01
1.016000e+03 8.329312e+02
1.017000e+03 3.424805e+01
1.018000e+03 7.469019e+02
1.019000e+03 8.606787e+01
1.020000e+03 6.401187e+03
1.021000e+03 3.516621e+02
1.022000e+03 8.019932e+02
1.023000e+03 1.203105e+02
1.024000e+03 5.695154e+03
1.025000e+03 3.879170e+01
1.026000e+03 1.521285e+02
1.027000e+03 2.923423e+03
1.028000e+03 4.374561e+01
1.029000e+03 5.583789e+01
1.030000e+03 3.896316e+03
1.031000e+03 2.561483e+03
1.032000e+03 7.262002e+03
1.033000e+03 1.489121e+02
1.034000e+03 4.710286e+03
1.035000e+03 5.665723e+01
1.036000e+03 8.002637e+01
1.037000e+03 8.567454e+03
1.038000e+03 1.133039e+04
1.039000e+03 9.573531e+03
1.040000e+03 1.037851e+04
1.041000e+03 1.265110e+04
1.042000e+03 1.240296e+04
1.043000e+03 1.066536e+04
1.044000e+03 1.410912e+04
1.045000e+03 1.190125e+04
1.046000e+03 1.319084e+04
1.047000e+03 6.422562e+03
1.048000e+03 5.171084e+02
1.049000e+03 8.835620e+03
1.050000e+03 5.702334e+03
1.051000e+03 3.576842e+03
1.052000e+03 1.590303e+04
1.053000e+03 1.780664e+04
1.054000e+03 1.281582e+02
1.055000e+03 1.918800e+04
1.056000e+03 1.967353e+04
1.057000e+03 1.165561e+04
1.058000e+03 5.270072e+03
1.059000e+03 1.735900e+03
1.060000e+03 7.730176e+02
1.061000e+03 1.430841e+04
1.062000e+03 2.978167e+03
1.063000e+03 2.967816e+03
1.064000e+03 1.883652e+02
1.065000e+03 2.019766e+02
1.066000e+03 1.653989e+04
1.067000e+03 1.372257e+03
1.068000e+03 2.816428e+04
1.069000e+03 4.941908e+02
1.070000e+03 1.632938e+04
1.071000e+03 2.976182e+04
1.072000e+03 3.043139e+04
1.073000e+03 3.279375e+02
1.074000e+03 1.352487e+04
1.075000e+03 9.858336e+03
1.076000e+03 3.429874e+04
1.077000e+03 6.754844e+02
1.078000e+03 5.583582e+03
1.079000e+03 1.445565e+04
1.080000e+03 2.049885e+04
1.081000e+03 3.006244e+04
1.082000e+03 2.817134e+04
1.083000e+03 2.298644e+04
1.084000e+03 4.383026e+04
1.085000e+03 1.068885e+04
1.086000e+03 4.599584e+04
1.087000e+03 2.988371e+03
1.088000e+03 4.887958e+04
1.089000e+03 5.030851e+04
1.090000e+03 9.584692e+03
1.091000e+03 1.009828e+04
1.092000e+03 5.323779e+04
1.093000e+03 5.470529e+04
1.094000e+03 4.086809e+04
1.095000e+03 5.852673e+04
1.096000e+03 1.712190e+04
1.097000e+03 4.922862e+04
1.098000e+03 6.294265e+04
1.099000e+03 2.858964e+04
1.100000e+03 1.709377e+03
1.101000e+03 3.566650e+03
1.102000e+03 1.546976e+04
1.103000e+03 1.283773e+05
1.104000e+03 1.035901e+05
1.105000e+03 7.221459e+04
1.106000e+03 5.897646e+04
1.107000e+03 1.586188e+03
1.108000e+03 1.199719e+05
1.109000e+03 9.728516e+03
1.110000e+03 1.124314e+05
1.111000e+03 1.096581e+05
1.112000e+03 9.754605e+04
1.113000e+03 1.570331e+05
1.114000e+03 4.654370e+04
1.115000e+03 1.809390e+04
1.116000e+03 1.229061e+04
1.117000e+03 5.977676e+04
1.118000e+03 1.421996e+04
1.119000e+03 1.281129e+05
1.120000e+03 1.222012e+04
1.121000e+03 1.720046e+05
1.122000e+03 2.747562e+03
1.123000e+03 1.486707e+05
1.124000e+03 1.984506e+05
1.125000e+03 1.567385e+05
1.126000e+03 2.336341e+05
1.127000e+03 2.111067e+05
1.128000e+03 1.210709e+05
1.129000e+03 1.612941e+05
1.130000e+03 2.285189e+05
1.131000e+03 2.340952e+05
1.132000e+03 9.177617e+03
1.133000e+03 3.468141e+04
1.134000e+03 1.669432e+05
1.135000e+03 1.051388e+04
1.136000e+03 8.054316e+04
1.137000e+03 2.601095e+05
1.138000e+03 1.676291e+05
1.139000e+03 2.858492e+05
1.140000e+03 1.837584e+04
1.141000e+03 2.846198e+05
1.142000e+03 3.066035e+05
1.143000e+03 2.476110e+05
1.144000e+03 3.169897e+05
1.145000e+03 8.258109e+03
1.146000e+03 3.352679e+05
1.147000e+03 3.264674e+05
1.148000e+03 3.551347e+04
1.149000e+03 3.164662e+05
1.150000e+03 2.662337e+05
1.151000e+03 3.644656e+05
1.152000e+03 3.567005e+05
1.153000e+03 2.909752e+05
1.154000e+03 3.803976e+05
1.155000e+03 3.224847e+05
1.156000e+03 3.770238e+05
1.157000e+03 3.883101e+05
1.158000e+03 1.008120e+05
1.159000e+03 4.014560e+05
1.160000e+03 2.619705e+05
1.161000e+03 4.214076e+05
1.162000e+03 8.764147e+04
1.163000e+03 1.887583e+05
1.164000e+03 3.652531e+03
1.165000e+03 4.399112e+05
1.166000e+03 4.021367e+05
1.167000e+03 4.012739e+05
1.168000e+03 4.935724e+05
1.169000e+03 4.964097e+05
1.170000e+03 4.244985e+05
1.171000e+03 4.873835e+05
1.172000e+03 3.349846e+05
1.173000e+03 5.380381e+05
1.174000e+03 3.654278e+04
1.175000e+03 4.828781e+03
1.176000e+03 6.602000e+03
1.177000e+03 5.885073e+05
1.178000e+03 5.973790e+05
1.179000e+03 5.940603e+05
1.180000e+03 4.381667e+05
1.181000e+03 6.284459e+05
1.182000e+03 6.181352e+05
1.183000e+03 5.508648e+05
1.184000e+03 5.234626e+05
1.185000e+03 6.036136e+05
1.186000e+03 1.531825e+05
1.187000e+03 6.402920e+05
1.188000e+03 4.331175e+05
1.189000e+03 4.713862e+04
1.190000e+03 6.417679e+05
1.191000e+03 6.585139e+05
1.192000e+03 7.248719e+05
1.193000e+03 2.509550e+04
1.194000e+03 5.938781e+04
1.195000e+03 7.005378e+05
1.196000e+03 7.428203e+05
1.197000e+03 1.076844e+06
1.198000e+03 3.335714e+05
1.199000e+03 1.065600e+06
1.200000e+03 4.758617e+05
1.201000e+03 1.032399e+06
1.202000e+03 7.811676e+05
1.203000e+03 1.177882e+06
1.204000e+03 4.126379e+05
1.205000e+03 1.042845e+06
1.206000e+03 1.063153e+06
1.207000e+03 1.303366e+05
1.208000e+03 8.236462e+05
1.209000e+03 6.822558e+05
1.210000e+03 1.433256e+04
1.211000e+03 3.811357e+05
1.212000e+03 2.092784e+05
1.213000e+03 1.095067e+05
1.214000e+03 3.647447e+04
1.215000e+03 1.418411e+04
1.216000e+03 2.101105e+04
1.217000e+03 2.531331e+04
1.218000e+03 8.760218e+04
1.219000e+03 2.090600e+05
1.220000e+03 2.606739e+05
1.221000e+03 5.996809e+05
1.222000e+03 7.880104e+05
1.223000e+03 9.812312e+05
1.224000e+03 1.167054e+06
1.225000e+03 3.566284e+05
1.226000e+03 1.669397e+06
1.227000e+03 1.798511e+06
1.228000e+03 1.061033e+06
1.229000e+03 1.929394e+06
1.230000e+03 1.847713e+06
1.231000e+03 9.409622e+05
1.232000e+03 2.480572e+06
1.233000e+03 2.630894e+06
1.234000e+03 1.900713e+06
1.235000e+03 2.757928e+06
1.236000e+03 1.420201e+06
1.237000e+03 2.981689e+06
1.238000e+03 2.952935e+06
1.239000e+03 2.854527e+06
1.240000e+03 1.676924e+06
1.241000e+03 2.766855e+06
1.242000e+03 3.177862e+06
1.243000e+03 3.460286e+06
1.244000e+03 3.454334e+06
1.245000e+03 3.528038e+06
1.246000e+03 3.521855e+06
1.247000e+03 3.650712e+06
1.248000e+03 3.014658e+06
1.249000e+03 3.928721e+06
1.250000e+03 3.018267e+06
1.251000e+03 4.184202e+06
1.252000e+03 3.986826e+06
1.253000e+03 4.343331e+06
1.254000e+03 4.242028e+06
1.255000e+03 4.423044e+06
1.256000e+03 4.289988e+06
1.257000e+03 3.951526e+06
1.258000e+03 3.917286e+06
1.259000e+03 4.535096e+06
1.260000e+03 4.897952e+06
1.261000e+03 9.198225e+04
1.262000e+03 4.633404e+06
1.263000e+03 5.056098e+06
1.264000e+03 4.593964e+06
1.265000e+03 1.689700e+05
1.266000e+03 5.423295e+06
1.267000e+03 4.964419e+06
