# wavelength_A flux
5.000000e+02 2.082201e-37
5.010000e+02 2.700658e-37
5.020000e+02 3.499114e-37
5.030000e+02 4.528879e-37
5.040000e+02 5.855583e-37
5.050000e+02 7.565269e-37
5.060000e+02 9.761146e-37
5.070000e+02 1.258143e-36
5.080000e+02 1.620019e-36
5.090000e+02 2.083863e-36
5.100000e+02 2.677191e-36
5.110000e+02 3.437625e-36
5.120000e+02 4.408616e-36
5.130000e+02 5.648336e-36
5.140000e+02 7.229530e-36
5.150000e+02 9.244326e-36
5.160000e+02 1.180915e-35
5.170000e+02 1.507103e-35
5.180000e+02 1.921542e-35
5.190000e+02 2.447612e-35
5.200000e+02 3.114750e-35
5.210000e+02 3.959989e-35
5.220000e+02 5.029868e-35
5.230000e+02 6.382868e-35
5.240000e+02 8.092294e-35
5.250000e+02 1.025007e-34
5.260000e+02 1.297132e-34
5.270000e+02 1.640007e-34
5.280000e+02 2.071637e-34
5.290000e+02 2.614510e-34
5.300000e+02 3.296688e-34
5.310000e+02 4.153159e-34
5.320000e+02 5.227507e-34
5.330000e+02 6.573978e-34
5.340000e+02 8.260025e-34
5.350000e+02 1.036947e-33
5.360000e+02 1.300634e-33
5.370000e+02 1.629883e-33
5.380000e+02 2.040954e-33
5.390000e+02 2.553387e-33
5.400000e+02 3.191775e-33
5.410000e+02 3.986411e-33
5.420000e+02 4.974718e-33
5.430000e+02 6.202877e-33
5.440000e+02 7.727842e-33
5.450000e+02 9.619795e-33
5.460000e+02 1.196514e-32
5.470000e+02 1.487017e-32
5.480000e+02 1.846555e-32
5.490000e+02 2.291179e-32
5.500000e+02 2.840585e-32
5.510000e+02 3.518929e-32
5.520000e+02 4.355814e-32
5.530000e+02 5.387482e-32
5.540000e+02 6.658280e-32
5.550000e+02 8.222423e-32
5.560000e+02 1.014614e-31
5.570000e+02 1.251029e-31
5.580000e+02 1.541347e-31
5.590000e+02 1.897591e-31
5.600000e+02 2.334400e-31
5.610000e+02 2.869592e-31
5.620000e+02 3.524839e-31
5.630000e+02 4.326476e-31
5.640000e+02 5.306483e-31
5.650000e+02 6.503673e-31
5.660000e+02 7.965106e-31
5.670000e+02 9.747813e-31
5.680000e+02 1.192085e-30
5.690000e+02 1.456778e-30
5.700000e+02 1.778965e-30
5.710000e+02 2.170854e-30
5.720000e+02 2.647189e-30
5.730000e+02 3.225759e-30
5.740000e+02 3.928016e-30
5.750000e+02 4.779808e-30
5.760000e+02 5.812261e-30
5.770000e+02 7.062832e-30
5.780000e+02 8.576563e-30
5.790000e+02 1.040758e-29
5.800000e+02 1.262090e-29
5.810000e+02 1.529452e-29
5.820000e+02 1.852202e-29
5.830000e+02 2.241554e-29
5.840000e+02 2.710940e-29
5.850000e+02 3.276439e-29
5.860000e+02 3.957282e-29
5.870000e+02 4.776461e-29
5.880000e+02 5.761443e-29
5.890000e+02 6.945020e-29
5.900000e+02 8.366321e-29
5.910000e+02 1.007200e-28
5.920000e+02 1.211765e-28
5.930000e+02 1.456948e-28
5.940000e+02 1.750629e-28
5.950000e+02 2.102180e-28
5.960000e+02 2.522742e-28
5.970000e+02 3.025551e-28
5.980000e+02 3.626319e-28
5.990000e+02 4.343690e-28
6.000000e+02 5.199772e-28
6.010000e+02 6.220765e-28
6.020000e+02 7.437699e-28
6.030000e+02 8.887304e-28
6.040000e+02 1.061303e-27
6.050000e+02 1.266625e-27
6.060000e+02 1.510767e-27
6.070000e+02 1.800896e-27
6.080000e+02 2.145473e-27
6.090000e+02 2.554476e-27
6.100000e+02 3.039669e-27
6.110000e+02 3.614912e-27
6.120000e+02 4.296526e-27
6.130000e+02 5.103716e-27
6.140000e+02 6.059074e-27
6.150000e+02 7.189157e-27
6.160000e+02 8.525165e-27
6.170000e+02 1.010374e-26
6.180000e+02 1.196786e-26
6.190000e+02 1.416798e-26
6.200000e+02 1.676322e-26
6.210000e+02 1.982284e-26
6.220000e+02 2.342797e-26
6.230000e+02 2.767354e-26
6.240000e+02 3.267063e-26
6.250000e+02 3.854907e-26
6.260000e+02 4.546061e-26
6.270000e+02 5.358246e-26
6.280000e+02 6.312148e-26
6.290000e+02 7.431900e-26
6.300000e+02 8.745648e-26
6.310000e+02 1.028619e-25
6.320000e+02 1.209174e-25
6.330000e+02 1.420678e-25
6.340000e+02 1.668308e-25
6.350000e+02 1.958085e-25
6.360000e+02 2.297010e-25
6.370000e+02 2.693216e-25
6.380000e+02 3.156148e-25
6.390000e+02 3.696773e-25
6.400000e+02 4.327810e-25
6.410000e+02 5.064013e-25
6.420000e+02 5.922480e-25
6.430000e+02 6.923020e-25
6.440000e+02 8.088571e-25
6.450000e+02 9.445680e-25
6.460000e+02 1.102506e-24
6.470000e+02 1.286222e-24
6.480000e+02 1.499820e-24
6.490000e+02 1.748040e-24
6.500000e+02 2.036357e-24
6.510000e+02 2.371088e-24
6.520000e+02 2.759520e-24
6.530000e+02 3.210056e-24
6.540000e+02 3.732378e-24
6.550000e+02 4.337642e-24
6.560000e+02 5.038691e-24
6.570000e+02 5.850307e-24
6.580000e+02 6.789495e-24
6.590000e+02 7.875805e-24
6.600000e+02 9.131711e-24
6.610000e+02 1.058303e-23
6.620000e+02 1.225940e-23
6.630000e+02 1.419486e-23
6.640000e+02 1.642843e-23
6.650000e+02 1.900489e-23
6.660000e+02 2.197554e-23
6.670000e+02 2.539919e-23
6.680000e+02 2.934318e-23
6.690000e+02 3.388458e-23
6.700000e+02 3.911160e-23
6.710000e+02 4.512514e-23
6.720000e+02 5.204055e-23
6.730000e+02 5.998966e-23
6.740000e+02 6.912305e-23
6.750000e+02 7.961269e-23
6.760000e+02 9.165484e-23
6.770000e+02 1.054734e-22
6.780000e+02 1.213238e-22
6.790000e+02 1.394971e-22
6.800000e+02 1.603251e-22
6.810000e+02 1.841855e-22
6.820000e+02 2.115086e-22
6.830000e+02 2.427840e-22
6.840000e+02 2.785687e-22
6.850000e+02 3.194962e-22
6.860000e+02 3.662864e-22
6.870000e+02 4.197576e-22
6.880000e+02 4.808390e-22
6.890000e+02 5.505857e-22
6.900000e+02 6.301953e-22
6.910000e+02 7.210261e-22
6.920000e+02 8.246189e-22
6.930000e+02 9.427202e-22
6.940000e+02 1.077309e-21
6.950000e+02 1.230627e-21
6.960000e+02 1.405213e-21
6.970000e+02 1.603940e-21
6.980000e+02 1.830058e-21
6.990000e+02 2.087245e-21
7.000000e+02 2.379656e-21
7.010000e+02 2.711991e-21
7.020000e+02 3.089556e-21
7.030000e+02 3.518345e-21
7.040000e+02 4.005125e-21
7.050000e+02 4.557532e-21
7.060000e+02 5.184179e-21
7.070000e+02 5.894781e-21
7.080000e+02 6.700287e-21
7.090000e+02 7.613037e-21
7.100000e+02 8.646928e-21
7.110000e+02 9.817614e-21
7.120000e+02 1.114271e-20
7.130000e+02 1.264204e-20
7.140000e+02 1.433791e-20
7.150000e+02 1.625538e-20
7.160000e+02 1.842264e-20
7.170000e+02 2.087137e-20
7.180000e+02 2.363713e-20
7.190000e+02 2.675987e-20
7.200000e+02 3.028443e-20
7.210000e+02 3.426112e-20
7.220000e+02 3.874638e-20
7.230000e+02 4.380349e-20
7.240000e+02 4.950340e-20
7.250000e+02 5.592559e-20
7.260000e+02 6.315912e-20
7.270000e+02 7.130372e-20
7.280000e+02 8.047101e-20
7.290000e+02 9.078592e-20
7.300000e+02 1.023882e-19
7.310000e+02 1.154342e-19
7.320000e+02 1.300986e-19
7.330000e+02 1.465767e-19
7.340000e+02 1.650867e-19
7.350000e+02 1.858724e-19
7.360000e+02 2.092057e-19
7.370000e+02 2.353905e-19
7.380000e+02 2.647655e-19
7.390000e+02 2.977088e-19
7.400000e+02 3.346420e-19
7.410000e+02 3.760348e-19
7.420000e+02 4.224110e-19
7.430000e+02 4.743540e-19
7.440000e+02 5.325134e-19
7.450000e+02 5.976126e-19
7.460000e+02 6.704568e-19
7.470000e+02 7.519417e-19
7.480000e+02 8.430638e-19
7.490000e+02 9.449313e-19
7.500000e+02 1.058776e-18
7.510000e+02 1.185967e-18
7.520000e+02 1.328024e-18
7.530000e+02 1.486638e-18
7.540000e+02 1.663683e-18
7.550000e+02 1.861241e-18
7.560000e+02 2.081623e-18
7.570000e+02 2.327391e-18
7.580000e+02 2.601386e-18
7.590000e+02 2.906760e-18
7.600000e+02 3.247005e-18
7.610000e+02 3.625990e-18
7.620000e+02 4.048002e-18
7.630000e+02 4.517788e-18
7.640000e+02 5.040600e-18
7.650000e+02 5.622257e-18
7.660000e+02 6.269193e-18
7.670000e+02 6.988524e-18
7.680000e+02 7.788123e-18
7.690000e+02 8.676690e-18
7.700000e+02 9.663842e-18
7.710000e+02 1.076020e-17
7.720000e+02 1.197751e-17
7.730000e+02 1.332873e-17
7.740000e+02 1.482816e-17
7.750000e+02 1.649159e-17
7.760000e+02 1.833646e-17
7.770000e+02 2.038196e-17
7.780000e+02 2.264931e-17
7.790000e+02 2.516186e-17
7.800000e+02 2.794536e-17
7.810000e+02 3.102820e-17
7.820000e+02 3.444162e-17
7.830000e+02 3.822005e-17
7.840000e+02 4.240139e-17
7.850000e+02 4.702735e-17
7.860000e+02 5.214384e-17
7.870000e+02 5.780134e-17
7.880000e+02 6.405542e-17
7.890000e+02 7.096713e-17
7.900000e+02 7.860360e-17
7.910000e+02 8.703860e-17
7.920000e+02 9.635320e-17
7.930000e+02 1.066364e-16
7.940000e+02 1.179860e-16
7.950000e+02 1.305094e-16
7.960000e+02 1.443242e-16
7.970000e+02 1.595599e-16
7.980000e+02 1.763582e-16
7.990000e+02 1.948746e-16
8.000000e+02 2.152797e-16
8.010000e+02 2.377605e-16
8.020000e+02 2.625216e-16
8.030000e+02 2.897878e-16
8.040000e+02 3.198048e-16
8.050000e+02 3.528419e-16
8.060000e+02 3.891939e-16
8.070000e+02 4.291835e-16
8.080000e+02 4.731638e-16
8.090000e+02 5.215212e-16
8.100000e+02 5.746782e-16
8.110000e+02 6.330971e-16
8.120000e+02 6.972829e-16
8.130000e+02 7.677878e-16
8.140000e+02 8.452153e-16
8.150000e+02 9.302247e-16
8.160000e+02 1.023536e-15
8.170000e+02 1.125935e-15
8.180000e+02 1.238281e-15
8.190000e+02 1.361510e-15
8.200000e+02 1.496645e-15
8.210000e+02 1.644802e-15
8.220000e+02 1.807196e-15
8.230000e+02 1.985155e-15
8.240000e+02 2.180125e-15
8.250000e+02 2.393681e-15
8.260000e+02 2.627544e-15
8.270000e+02 2.883583e-15
8.280000e+02 3.163839e-15
8.290000e+02 3.470530e-15
8.300000e+02 3.806075e-15
8.310000e+02 4.173104e-15
8.320000e+02 4.574481e-15
8.330000e+02 5.013322e-15
8.340000e+02 5.493015e-15
8.350000e+02 6.017247e-15
8.360000e+02 6.590025e-15
8.370000e+02 7.215706e-15
8.380000e+02 7.899024e-15
8.390000e+02 8.645127e-15
8.400000e+02 9.459601e-15
8.410000e+02 1.034852e-14
8.420000e+02 1.131848e-14
8.430000e+02 1.237663e-14
8.440000e+02 1.353074e-14
8.450000e+02 1.478925e-14
8.460000e+02 1.616131e-14
8.470000e+02 1.765683e-14
8.480000e+02 1.928658e-14
8.490000e+02 2.106224e-14
8.500000e+02 2.299645e-14
8.510000e+02 2.510293e-14
8.520000e+02 2.739653e-14
8.530000e+02 2.989336e-14
8.540000e+02 3.261086e-14
8.550000e+02 3.556792e-14
8.560000e+02 3.878497e-14
8.570000e+02 4.228418e-14
8.580000e+02 4.608949e-14
8.590000e+02 5.022683e-14
8.600000e+02 5.472426e-14
8.610000e+02 5.961213e-14
8.620000e+02 6.492323e-14
8.630000e+02 7.069308e-14
8.640000e+02 7.696001e-14
8.650000e+02 8.376549e-14
8.660000e+02 9.115433e-14
8.670000e+02 9.917492e-14
8.680000e+02 1.078796e-13
8.690000e+02 1.173247e-13
8.700000e+02 1.275713e-13
8.710000e+02 1.386853e-13
8.720000e+02 1.507376e-13
8.730000e+02 1.638050e-13
8.740000e+02 1.779701e-13
8.750000e+02 1.933223e-13
8.760000e+02 2.099578e-13
8.770000e+02 2.279803e-13
8.780000e+02 2.475018e-13
8.790000e+02 2.686430e-13
8.800000e+02 2.915337e-13
8.810000e+02 3.163142e-13
8.820000e+02 3.431355e-13
8.830000e+02 3.721599e-13
8.840000e+02 4.035626e-13
8.850000e+02 4.375323e-13
8.860000e+02 4.742717e-13
8.870000e+02 5.139994e-13
8.880000e+02 5.569504e-13
8.890000e+02 6.033778e-13
8.900000e+02 6.535537e-13
8.910000e+02 7.077706e-13
8.920000e+02 7.663436e-13
8.930000e+02 8.296108e-13
8.940000e+02 8.979363e-13
8.950000e+02 9.717110e-13
8.960000e+02 1.051355e-12
8.970000e+02 1.137320e-12
8.980000e+02 1.230092e-12
8.990000e+02 1.330190e-12
9.000000e+02 1.438175e-12
9.010000e+02 1.554647e-12
9.020000e+02 1.680251e-12
9.030000e+02 1.815679e-12
9.040000e+02 1.961675e-12
9.050000e+02 2.119035e-12
9.060000e+02 2.288613e-12
9.070000e+02 2.471328e-12
9.080000e+02 2.668163e-12
9.090000e+02 2.880171e-12
9.100000e+02 3.108485e-12
9.110000e+02 3.354315e-12
9.120000e+02 3.618960e-12
9.130000e+02 3.903812e-12
9.140000e+02 4.311246e-12
9.150000e+02 8.794789e-10
9.160000e+02 5.606822e-09
9.170000e+02 8.236884e-11
9.180000e+02 1.145971e-09
9.190000e+02 1.620143e-08
9.200000e+02 4.552024e-08
9.210000e+02 7.113195e-12
9.220000e+02 1.949218e-08
9.230000e+02 1.009197e-10
9.240000e+02 1.117400e-10
9.250000e+02 2.160516e-09
9.260000e+02 1.720891e-09
9.270000e+02 1.221876e-10
9.280000e+02 2.807530e-07
9.290000e+02 2.784897e-07
9.300000e+02 6.087792e-08
9.310000e+02 2.050748e-10
9.320000e+02 2.255912e-07
9.330000e+02 1.879644e-08
9.340000e+02 3.699597e-09
9.350000e+02 4.779293e-10
9.360000e+02 4.953645e-10
9.370000e+02 8.926840e-11
9.380000e+02 3.869573e-10
9.390000e+02 1.969268e-09
9.400000e+02 2.219528e-07
9.410000e+02 2.705092e-08
9.420000e+02 1.024173e-06
9.430000e+02 3.107601e-09
9.440000e+02 1.165761e-06
9.450000e+02 1.050194e-06
9.460000e+02 6.663031e-08
9.470000e+02 6.115464e-11
9.480000e+02 2.778258e-07
9.490000e+02 3.370947e-08
9.500000e+02 7.607433e-10
9.510000e+02 5.754860e-08
9.520000e+02 1.585864e-07
9.530000e+02 6.520446e-10
9.540000e+02 8.519557e-11
9.550000e+02 7.220365e-09
9.560000e+02 1.186859e-06
9.570000e+02 3.545622e-09
9.580000e+02 9.979750e-11
9.590000e+02 3.333881e-07
9.600000e+02 1.605274e-09
9.610000e+02 1.151016e-07
9.620000e+02 3.514143e-08
9.630000e+02 3.228081e-09
9.640000e+02 9.800907e-10
9.650000e+02 2.295906e-10
9.660000e+02 7.717972e-09
9.670000e+02 1.111488e-09
9.680000e+02 7.879066e-10
9.690000e+02 4.758510e-08
9.700000e+02 1.147837e-07
9.710000e+02 2.062594e-09
9.720000e+02 6.797194e-10
9.730000e+02 8.244894e-09
9.740000e+02 8.456365e-08
9.750000e+02 1.973306e-08
9.760000e+02 1.318432e-06
9.770000e+02 5.487516e-07
9.780000e+02 2.125196e-07
9.790000e+02 7.036907e-06
9.800000e+02 5.523972e-06
9.810000e+02 9.974565e-08
9.820000e+02 1.534602e-08
9.830000e+02 4.805105e-06
9.840000e+02 2.001775e-07
9.850000e+02 3.847698e-08
9.860000e+02 6.985995e-08
9.870000e+02 4.168741e-06
9.880000e+02 9.772521e-10
9.890000e+02 7.623870e-07
9.900000e+02 3.171316e-06
9.910000e+02 1.967523e-08
9.920000e+02 9.423730e-10
9.930000e+02 1.391688e-05
9.940000e+02 1.658705e-09
9.950000e+02 4.075454e-07
9.960000e+02 3.864670e-09
9.970000e+02 1.096640e-06
9.980000e+02 3.540663e-06
9.990000e+02 3.073158e-08
1.000000e+03 2.765795e-05
1.001000e+03 2.138241e-05
1.002000e+03 1.590135e-05
1.003000e+03 2.898923e-08
1.004000e+03 2.182787e-09
1.005000e+03 1.412736e-07
1.006000e+03 1.172845e-05
1.007000e+03 2.160611e-05
1.008000e+03 6.205469e-06
1.009000e+03 4.561791e-08
1.010000e+03 5.517543e-06
1.011000e+03 5.733133e-06
1.012000e+03 9.449558e-06
1.013000e+03 9.292669e-06
1.014000e+03 3.708692e-09
1.015000e+03 4.496087e-09
1.016000e+03 2.142169e-07
1.017000e+03 4.446520e-09
1.018000e+03 4.419030e-08
1.019000e+03 5.211405e-09
1.020000e+03 1.328611e-05
1.021000e+03 1.350109e-07
1.022000e+03 1.863546e-07
1.023000e+03 9.410087e-09
1.024000e+03 1.765487e-06
1.025000e+03 7.185385e-09
1.026000e+03 1.052153e-08
1.027000e+03 5.011233e-07
1.028000e+03 5.724087e-08
1.029000e+03 9.108135e-09
1.030000e+03 6.910741e-07
1.031000e+03 2.549605e-06
1.032000e+03 4.191602e-05
1.033000e+03 5.129750e-07
1.034000e+03 2.734780e-06
1.035000e+03 4.317371e-08
1.036000e+03 1.374337e-08
1.037000e+03 3.059402e-05
1.038000e+03 2.347676e-04
1.039000e+03 3.729895e-05
1.040000e+03 2.028353e-05
1.041000e+03 1.905009e-04
1.042000e+03 1.449402e-04
1.043000e+03 1.743723e-04
1.044000e+03 7.433522e-04
1.045000e+03 3.634376e-08
1.046000e+03 2.184653e-05
1.047000e+03 1.077569e-05
1.048000e+03 1.150693e-07
1.049000e+03 8.211307e-06
1.050000e+03 1.502543e-06
1.051000e+03 7.893832e-07
1.052000e+03 2.202775e-04
1.053000e+03 3.421397e-04
1.054000e+03 3.842069e-08
1.055000e+03 4.139029e-04
1.056000e+03 5.069017e-04
1.057000e+03 3.772018e-05
1.058000e+03 6.943392e-07
1.059000e+03 9.133655e-07
1.060000e+03 1.834705e-07
1.061000e+03 8.586375e-05
1.062000e+03 3.735520e-07
1.063000e+03 4.976330e-05
1.064000e+03 9.592623e-08
1.065000e+03 7.078052e-08
1.066000e+03 1.325942e-04
1.067000e+03 7.358672e-07
1.068000e+03 1.317803e-03
1.069000e+03 1.661023e-07
1.070000e+03 8.864794e-06
1.071000e+03 2.655439e-04
1.072000e+03 1.788648e-03
1.073000e+03 1.098379e-07
1.074000e+03 4.405757e-05
1.075000e+03 2.283324e-05
1.076000e+03 1.934322e-03
1.077000e+03 6.320661e-07
1.078000e+03 1.147157e-06
1.079000e+03 6.391134e-06
1.080000e+03 4.326166e-05
1.081000e+03 3.760579e-04
1.082000e+03 1.623556e-04
1.083000e+03 7.103314e-05
1.084000e+03 5.206023e-03
1.085000e+03 1.215935e-05
1.086000e+03 2.533162e-03
1.087000e+03 2.101762e-06
1.088000e+03 5.433267e-03
1.089000e+03 6.238803e-03
1.090000e+03 9.378812e-06
1.091000e+03 1.682714e-05
1.092000e+03 5.051162e-03
1.093000e+03 7.413983e-03
1.094000e+03 1.548796e-04
1.095000e+03 9.745116e-03
1.096000e+03 3.655383e-04
1.097000e+03 2.044294e-03
1.098000e+03 7.802297e-03
1.099000e+03 3.794301e-05
1.100000e+03 5.770125e-07
1.101000e+03 1.486765e-06
1.102000e+03 2.916495e-05
1.103000e+03 1.078381e-02
1.104000e+03 1.068866e-02
1.105000e+03 1.192185e-02
1.106000e+03 1.837681e-04
1.107000e+03 1.157401e-06
1.108000e+03 2.198640e-03
1.109000e+03 1.625717e-05
1.110000e+03 1.200279e-02
1.111000e+03 8.023716e-03
1.112000e+03 7.538591e-04
1.113000e+03 1.021753e-02
1.114000e+03 3.571628e-04
1.115000e+03 1.723059e-05
1.116000e+03 4.389230e-06
1.117000e+03 1.066942e-02
1.118000e+03 2.939970e-05
1.119000e+03 6.860175e-04
1.120000e+03 8.551404e-06
1.121000e+03 5.771681e-03
1.122000e+03 3.499824e-02
1.123000e+03 1.626875e-02
1.124000e+03 2.054565e-02
1.125000e+03 7.623383e-03
1.126000e+03 5.823817e-02
1.127000e+03 7.709724e-03
1.128000e+03 2.448557e-02
1.129000e+03 2.954042e-03
1.130000e+03 2.468149e-02
1.131000e+03 2.502355e-02
1.132000e+03 1.618755e-05
1.133000e+03 2.409648e-04
1.134000e+03 4.842466e-03
1.135000e+03 2.573619e-02
1.136000e+03 4.829466e-04
1.137000e+03 1.485828e-02
1.138000e+03 3.326861e-03
1.139000e+03 2.513374e-02
1.140000e+03 2.010688e-02
1.141000e+03 2.510280e-02
1.142000e+03 2.664782e-02
1.143000e+03 3.137397e-03
1.144000e+03 2.678260e-02
1.145000e+03 1.063198e-05
1.146000e+03 2.767844e-02
1.147000e+03 2.558679e-02
1.148000e+03 1.009544e-04
1.149000e+03 1.533490e-02
1.150000e+03 1.236443e-02
1.151000e+03 2.538229e-02
1.152000e+03 1.483306e-02
1.153000e+03 2.473673e-02
1.154000e+03 2.736638e-02
1.155000e+03 1.512976e-02
1.156000e+03 1.972694e-02
1.157000e+03 2.383431e-02
1.158000e+03 4.053282e-03
1.159000e+03 2.385178e-02
1.160000e+03 6.609326e-03
1.161000e+03 2.141281e-02
1.162000e+03 5.262792e-04
1.163000e+03 2.582077e-03
1.164000e+03 6.608758e-05
1.165000e+03 1.009330e-02
1.166000e+03 5.553321e-03
1.167000e+03 4.165730e-03
1.168000e+03 2.524704e-02
1.169000e+03 2.705796e-02
1.170000e+03 3.277701e-03
1.171000e+03 1.186188e-02
1.172000e+03 7.067217e-03
1.173000e+03 8.505512e-03
1.174000e+03 7.120613e-05
1.175000e+03 4.355144e-05
1.176000e+03 1.996034e-05
1.177000e+03 3.466817e-02
1.178000e+03 3.288671e-02
1.179000e+03 3.021621e-02
1.180000e+03 1.891642e-02
1.181000e+03 2.811796e-02
1.182000e+03 2.619312e-02
1.183000e+03 1.696825e-02
1.184000e+03 1.466237e-02
1.185000e+03 1.609691e-02
1.186000e+03 4.038884e-04
1.187000e+03 2.112755e-02
1.188000e+03 1.181590e-02
1.189000e+03 2.191204e-02
1.190000e+03 2.122029e-02
1.191000e+03 1.876774e-02
1.192000e+03 1.808423e-02
1.193000e+03 1.633510e-02
1.194000e+03 1.742576e-02
1.195000e+03 1.656642e-02
1.196000e+03 2.494554e-01
1.197000e+03 3.346942e-01
1.198000e+03 1.487494e-03
1.199000e+03 2.695751e-01
1.200000e+03 6.989300e-03
1.201000e+03 1.920327e-01
1.202000e+03 6.883181e-02
1.203000e+03 1.308854e-01
1.204000e+03 8.519579e-03
1.205000e+03 8.226489e-02
1.206000e+03 6.545284e-02
1.207000e+03 9.659596e-03
1.208000e+03 3.259382e-02
1.209000e+03 2.431998e-02
1.210000e+03 1.038313e-04
1.211000e+03 9.013513e-03
1.212000e+03 4.176437e-03
1.213000e+03 1.970001e-03
1.214000e+03 5.869161e-04
1.215000e+03 1.104077e-04
1.216000e+03 9.725003e-05
1.217000e+03 3.760396e-04
1.218000e+03 1.644856e-03
1.219000e+03 4.465569e-03
1.220000e+03 5.203990e-03
1.221000e+03 1.901213e-02
1.222000e+03 3.033342e-02
1.223000e+03 3.642686e-02
1.224000e+03 6.876188e-02
1.225000e+03 3.043085e-03
1.226000e+03 1.554241e-01
1.227000e+03 2.126584e-01
1.228000e+03 3.631894e-02
1.229000e+03 3.076273e-01
1.230000e+03 2.477303e-01
1.231000e+03 1.649511e-02
1.232000e+03 6.454210e-01
1.233000e+03 7.782756e-01
1.234000e+03 8.210427e-01
1.235000e+03 8.997958e-01
1.236000e+03 7.245648e-02
1.237000e+03 1.283866e+00
1.238000e+03 1.325954e+00
1.239000e+03 5.552841e-01
1.240000e+03 4.647620e-01
1.241000e+03 7.605975e-01
1.242000e+03 1.534499e+00
1.243000e+03 2.162726e+00
1.244000e+03 2.368768e+00
1.245000e+03 2.404943e+00
1.246000e+03 1.493613e+00
1.247000e+03 2.130694e+00
1.248000e+03 2.223388e+00
1.249000e+03 3.235055e+00
1.250000e+03 2.026641e+00
1.251000e+03 3.394511e+00
1.252000e+03 2.776970e+00
1.253000e+03 3.669503e+00
1.254000e+03 2.998061e+00
1.255000e+03 6.539153e-01
1.256000e+03 2.152001e+00
1.257000e+03 1.818288e+00
1.258000e+03 1.301668e+00
1.259000e+03 1.975613e+00
1.260000e+03 4.009311e+00
1.261000e+03 5.437756e-02
1.262000e+03 4.208741e+00
1.263000e+03 3.670400e+00
1.264000e+03 1.633245e+00
1.265000e+03 2.587121e+00
1.266000e+03 5.009753e+00
1.267000e+03 3.032913e+00
