# wavelength_A flux
5.000000e+02 4.592700e-07
5.010000e+02 5.180212e-07
5.020000e+02 5.839966e-07
5.030000e+02 6.580479e-07
5.040000e+02 7.411238e-07
5.050000e+02 8.518423e-07
5.060000e+02 9.583331e-07
5.070000e+02 1.077616e-06
5.080000e+02 1.211165e-06
5.090000e+02 1.360657e-06
5.100000e+02 1.527827e-06
5.110000e+02 1.714731e-06
5.120000e+02 1.923593e-06
5.130000e+02 2.156892e-06
5.140000e+02 2.417365e-06
5.150000e+02 2.708023e-06
5.160000e+02 3.032294e-06
5.170000e+02 3.393696e-06
5.180000e+02 3.796712e-06
5.190000e+02 4.245543e-06
5.200000e+02 4.745310e-06
5.210000e+02 5.301541e-06
5.220000e+02 5.919816e-06
5.230000e+02 6.608489e-06
5.240000e+02 7.373387e-06
5.250000e+02 8.223337e-06
5.260000e+02 9.167176e-06
5.270000e+02 1.021501e-05
5.280000e+02 1.137776e-05
5.290000e+02 1.266508e-05
5.300000e+02 1.409745e-05
5.310000e+02 1.568226e-05
5.320000e+02 1.743791e-05
5.330000e+02 1.938211e-05
5.340000e+02 2.153418e-05
5.350000e+02 2.391537e-05
5.360000e+02 2.654890e-05
5.370000e+02 2.913745e-05
5.380000e+02 3.267828e-05
5.390000e+02 3.623337e-05
5.400000e+02 4.015946e-05
5.410000e+02 4.449031e-05
5.420000e+02 4.927393e-05
5.430000e+02 5.454815e-05
5.440000e+02 6.036299e-05
5.450000e+02 6.677180e-05
5.460000e+02 7.382226e-05
5.470000e+02 8.160824e-05
5.480000e+02 9.016865e-05
5.490000e+02 9.958974e-05
5.500000e+02 1.099534e-04
5.510000e+02 1.213502e-04
5.520000e+02 1.338782e-04
5.530000e+02 1.476449e-04
5.540000e+02 1.627671e-04
5.550000e+02 1.793723e-04
5.560000e+02 1.975995e-04
5.570000e+02 2.175999e-04
5.580000e+02 2.395382e-04
5.590000e+02 2.635937e-04
5.600000e+02 2.899614e-04
5.610000e+02 3.188517e-04
5.620000e+02 3.504987e-04
5.630000e+02 3.851514e-04
5.640000e+02 4.230823e-04
5.650000e+02 4.645866e-04
5.660000e+02 5.099877e-04
5.670000e+02 5.596321e-04
5.680000e+02 6.138997e-04
5.690000e+02 6.732003e-04
5.700000e+02 7.379782e-04
5.710000e+02 8.087199e-04
5.720000e+02 8.859444e-04
5.730000e+02 9.702206e-04
5.740000e+02 1.062162e-03
5.750000e+02 1.162440e-03
5.760000e+02 1.271606e-03
5.770000e+02 1.390899e-03
5.780000e+02 1.520715e-03
5.790000e+02 1.662111e-03
5.800000e+02 1.816071e-03
5.810000e+02 1.983658e-03
5.820000e+02 2.166018e-03
5.830000e+02 2.364375e-03
5.840000e+02 2.579476e-03
5.850000e+02 2.814523e-03
5.860000e+02 3.069595e-03
5.870000e+02 3.346581e-03
5.880000e+02 3.647415e-03
5.890000e+02 3.974022e-03
5.900000e+02 4.328683e-03
5.910000e+02 4.713489e-03
5.920000e+02 5.130971e-03
5.930000e+02 5.583747e-03
5.940000e+02 6.074664e-03
5.950000e+02 6.606529e-03
5.960000e+02 7.183361e-03
5.970000e+02 7.807994e-03
5.980000e+02 8.484454e-03
5.990000e+02 9.216848e-03
6.000000e+02 1.000956e-02
6.010000e+02 1.086611e-02
6.020000e+02 1.179522e-02
6.030000e+02 1.279868e-02
6.040000e+02 1.388361e-02
6.050000e+02 1.505623e-02
6.060000e+02 1.632328e-02
6.070000e+02 1.769208e-02
6.080000e+02 1.917029e-02
6.090000e+02 2.076628e-02
6.100000e+02 2.248891e-02
6.110000e+02 2.434784e-02
6.120000e+02 2.635321e-02
6.130000e+02 2.851603e-02
6.140000e+02 3.084801e-02
6.150000e+02 3.336176e-02
6.160000e+02 3.607070e-02
6.170000e+02 3.898925e-02
6.180000e+02 4.213280e-02
6.190000e+02 4.551782e-02
6.200000e+02 4.916152e-02
6.210000e+02 5.308351e-02
6.220000e+02 5.730353e-02
6.230000e+02 6.184306e-02
6.240000e+02 6.672508e-02
6.250000e+02 7.197410e-02
6.260000e+02 7.761617e-02
6.270000e+02 8.367948e-02
6.280000e+02 9.019374e-02
6.290000e+02 9.719077e-02
6.300000e+02 1.047045e-01
6.310000e+02 1.127698e-01
6.320000e+02 1.214292e-01
6.330000e+02 1.307198e-01
6.340000e+02 1.406867e-01
6.350000e+02 1.513768e-01
6.360000e+02 1.626323e-01
6.370000e+02 1.751287e-01
6.380000e+02 1.882997e-01
6.390000e+02 2.024129e-01
6.400000e+02 2.175323e-01
6.410000e+02 2.337253e-01
6.420000e+02 2.510650e-01
6.430000e+02 2.696279e-01
6.440000e+02 2.894957e-01
6.450000e+02 3.107552e-01
6.460000e+02 3.334993e-01
6.470000e+02 3.578250e-01
6.480000e+02 3.838381e-01
6.490000e+02 4.116481e-01
6.500000e+02 4.413729e-01
6.510000e+02 4.731373e-01
6.520000e+02 5.070739e-01
6.530000e+02 5.433230e-01
6.540000e+02 5.820341e-01
6.550000e+02 6.233652e-01
6.560000e+02 6.674840e-01
6.570000e+02 7.145560e-01
6.580000e+02 7.648075e-01
6.590000e+02 8.183941e-01
6.600000e+02 8.755491e-01
6.610000e+02 9.365008e-01
6.620000e+02 1.001478e+00
6.630000e+02 1.070735e+00
6.640000e+02 1.144538e+00
6.650000e+02 1.223166e+00
6.660000e+02 1.306928e+00
6.670000e+02 1.396129e+00
6.680000e+02 1.491108e+00
6.690000e+02 1.592217e+00
6.700000e+02 1.699831e+00
6.710000e+02 1.814345e+00
6.720000e+02 1.936146e+00
6.730000e+02 2.065770e+00
6.740000e+02 2.203588e+00
6.750000e+02 2.350127e+00
6.760000e+02 2.505905e+00
6.770000e+02 2.671463e+00
6.780000e+02 2.847404e+00
6.790000e+02 3.034327e+00
6.800000e+02 3.232886e+00
6.810000e+02 3.443760e+00
6.820000e+02 3.667671e+00
6.830000e+02 3.905380e+00
6.840000e+02 4.157688e+00
6.850000e+02 4.425425e+00
6.860000e+02 4.709532e+00
6.870000e+02 5.010868e+00
6.880000e+02 5.330537e+00
6.890000e+02 5.669488e+00
6.900000e+02 6.028848e+00
6.910000e+02 6.409790e+00
6.920000e+02 6.813521e+00
6.930000e+02 7.241331e+00
6.940000e+02 7.694507e+00
6.950000e+02 8.174605e+00
6.960000e+02 8.683062e+00
6.970000e+02 9.221326e+00
6.980000e+02 9.791430e+00
6.990000e+02 1.039476e+01
7.000000e+02 1.103328e+01
7.010000e+02 1.170891e+01
7.020000e+02 1.242368e+01
7.030000e+02 1.317973e+01
7.040000e+02 1.397931e+01
7.050000e+02 1.482478e+01
7.060000e+02 1.571860e+01
7.070000e+02 1.666341e+01
7.080000e+02 1.766192e+01
7.090000e+02 1.871691e+01
7.100000e+02 1.983168e+01
7.110000e+02 2.100912e+01
7.120000e+02 2.225264e+01
7.130000e+02 2.356574e+01
7.140000e+02 2.495204e+01
7.150000e+02 2.641545e+01
7.160000e+02 2.795999e+01
7.170000e+02 2.958975e+01
7.180000e+02 3.130910e+01
7.190000e+02 3.312354e+01
7.200000e+02 3.503690e+01
7.210000e+02 3.705465e+01
7.220000e+02 3.918216e+01
7.230000e+02 4.142504e+01
7.240000e+02 4.378916e+01
7.250000e+02 4.628067e+01
7.260000e+02 4.890601e+01
7.270000e+02 5.167156e+01
7.280000e+02 5.458521e+01
7.290000e+02 5.765394e+01
7.300000e+02 6.088546e+01
7.310000e+02 6.428799e+01
7.320000e+02 6.786995e+01
7.330000e+02 7.164023e+01
7.340000e+02 7.560815e+01
7.350000e+02 7.978339e+01
7.360000e+02 8.417609e+01
7.370000e+02 8.879706e+01
7.380000e+02 9.365723e+01
7.390000e+02 9.876827e+01
7.400000e+02 1.041420e+02
7.410000e+02 1.097922e+02
7.420000e+02 1.157305e+02
7.430000e+02 1.219726e+02
7.440000e+02 1.285309e+02
7.450000e+02 1.354224e+02
7.460000e+02 1.426621e+02
7.470000e+02 1.502666e+02
7.480000e+02 1.582530e+02
7.490000e+02 1.666394e+02
7.500000e+02 1.754446e+02
7.510000e+02 1.846881e+02
7.520000e+02 1.943904e+02
7.530000e+02 2.045727e+02
7.540000e+02 2.152575e+02
7.550000e+02 2.264677e+02
7.560000e+02 2.382278e+02
7.570000e+02 2.505541e+02
7.580000e+02 2.634966e+02
7.590000e+02 2.770606e+02
7.600000e+02 2.912841e+02
7.610000e+02 3.061941e+02
7.620000e+02 3.218224e+02
7.630000e+02 3.382010e+02
7.640000e+02 3.553641e+02
7.650000e+02 3.733466e+02
7.660000e+02 3.921855e+02
7.670000e+02 4.119186e+02
7.680000e+02 4.325836e+02
7.690000e+02 4.542281e+02
7.700000e+02 4.768889e+02
7.710000e+02 5.006127e+02
7.720000e+02 5.254465e+02
7.730000e+02 5.514384e+02
7.740000e+02 5.786391e+02
7.750000e+02 6.071011e+02
7.760000e+02 6.368118e+02
7.770000e+02 6.680300e+02
7.780000e+02 7.006130e+02
7.790000e+02 7.346893e+02
7.800000e+02 7.703200e+02
7.810000e+02 8.075775e+02
7.820000e+02 8.465278e+02
7.830000e+02 8.872421e+02
7.840000e+02 9.297974e+02
7.850000e+02 9.742688e+02
7.860000e+02 1.020725e+03
7.870000e+02 1.069279e+03
7.880000e+02 1.119998e+03
7.890000e+02 1.172974e+03
7.900000e+02 1.228304e+03
7.910000e+02 1.286083e+03
7.920000e+02 1.346414e+03
7.930000e+02 1.409400e+03
7.940000e+02 1.475152e+03
7.950000e+02 1.543782e+03
7.960000e+02 1.615408e+03
7.970000e+02 1.690152e+03
7.980000e+02 1.768140e+03
7.990000e+02 1.849503e+03
8.000000e+02 1.934378e+03
8.010000e+02 2.022901e+03
8.020000e+02 2.115221e+03
8.030000e+02 2.211499e+03
8.040000e+02 2.311886e+03
8.050000e+02 2.416545e+03
8.060000e+02 2.525645e+03
8.070000e+02 2.639362e+03
8.080000e+02 2.757877e+03
8.090000e+02 2.881380e+03
8.100000e+02 3.010064e+03
8.110000e+02 3.144134e+03
8.120000e+02 3.283798e+03
8.130000e+02 3.429237e+03
8.140000e+02 3.580749e+03
8.150000e+02 3.738525e+03
8.160000e+02 3.902824e+03
8.170000e+02 4.073875e+03
8.180000e+02 4.251952e+03
8.190000e+02 4.437314e+03
8.200000e+02 4.630240e+03
8.210000e+02 4.831019e+03
8.220000e+02 5.039946e+03
8.230000e+02 5.257330e+03
8.240000e+02 5.483489e+03
8.250000e+02 5.718752e+03
8.260000e+02 5.963458e+03
8.270000e+02 6.217961e+03
8.280000e+02 6.482624e+03
8.290000e+02 6.757823e+03
8.300000e+02 7.043951e+03
8.310000e+02 7.341408e+03
8.320000e+02 7.650611e+03
8.330000e+02 7.971991e+03
8.340000e+02 8.305992e+03
8.350000e+02 8.652374e+03
8.360000e+02 9.013677e+03
8.370000e+02 9.388406e+03
8.380000e+02 9.777405e+03
8.390000e+02 1.018184e+04
8.400000e+02 1.060179e+04
8.410000e+02 1.103792e+04
8.420000e+02 1.149061e+04
8.430000e+02 1.196106e+04
8.440000e+02 1.244928e+04
8.450000e+02 1.295611e+04
8.460000e+02 1.348222e+04
8.470000e+02 1.402827e+04
8.480000e+02 1.459497e+04
8.490000e+02 1.518305e+04
8.500000e+02 1.579325e+04
8.510000e+02 1.642633e+04
8.520000e+02 1.708307e+04
8.530000e+02 1.776426e+04
8.540000e+02 1.847097e+04
8.550000e+02 1.920383e+04
8.560000e+02 1.996382e+04
8.570000e+02 2.075186e+04
8.580000e+02 2.156891e+04
8.590000e+02 2.241598e+04
8.600000e+02 2.329407e+04
8.610000e+02 2.420424e+04
8.620000e+02 2.514724e+04
8.630000e+02 2.612479e+04
8.640000e+02 2.713785e+04
8.650000e+02 2.818741e+04
8.660000e+02 2.927496e+04
8.670000e+02 3.040154e+04
8.680000e+02 3.156852e+04
8.690000e+02 3.277724e+04
8.700000e+02 3.402907e+04
8.710000e+02 3.532545e+04
8.720000e+02 3.666783e+04
8.730000e+02 3.805773e+04
8.740000e+02 3.949669e+04
8.750000e+02 4.098632e+04
8.760000e+02 4.252825e+04
8.770000e+02 4.412407e+04
8.780000e+02 4.577592e+04
8.790000e+02 4.748519e+04
8.800000e+02 4.925386e+04
8.810000e+02 5.108384e+04
8.820000e+02 5.297710e+04
8.830000e+02 5.493565e+04
8.840000e+02 5.696157e+04
8.850000e+02 5.905699e+04
8.860000e+02 6.122331e+04
8.870000e+02 6.346439e+04
8.880000e+02 6.578177e+04
8.890000e+02 6.817784e+04
8.900000e+02 7.065476e+04
8.910000e+02 7.321566e+04
8.920000e+02 7.576703e+04
8.930000e+02 7.859903e+04
8.940000e+02 8.142694e+04
8.950000e+02 8.434931e+04
8.960000e+02 8.736935e+04
8.970000e+02 9.048977e+04
8.980000e+02 9.371373e+04
8.990000e+02 9.704440e+04
9.000000e+02 1.004843e+05
9.010000e+02 1.040383e+05
9.020000e+02 1.077089e+05
9.030000e+02 1.114999e+05
9.040000e+02 1.154134e+05
9.050000e+02 1.194569e+05
9.060000e+02 1.236311e+05
9.070000e+02 1.279380e+05
9.080000e+02 1.323873e+05
9.090000e+02 1.369795e+05
9.100000e+02 1.417196e+05
9.110000e+02 1.466125e+05
9.120000e+02 1.516650e+05
9.130000e+02 1.546042e+05
9.140000e+02 1.643453e+05
9.150000e+02 5.015180e+05
9.160000e+02 1.701112e+06
9.170000e+02 1.793376e+06
9.180000e+02 1.650561e+06
9.190000e+02 2.110342e+06
9.200000e+02 2.224175e+06
9.210000e+02 1.969934e+05
9.220000e+02 2.361032e+06
9.230000e+02 2.006756e+06
9.240000e+02 2.244884e+06
9.250000e+02 2.532968e+06
9.260000e+02 2.419691e+06
9.270000e+02 2.698691e+06
9.280000e+02 2.786642e+06
9.290000e+02 2.537916e+06
9.300000e+02 2.894834e+06
9.310000e+02 2.805377e+06
9.320000e+02 3.098781e+06
9.330000e+02 3.175831e+06
9.340000e+02 3.269189e+06
9.350000e+02 1.024607e+06
9.360000e+02 3.433736e+06
9.370000e+02 7.476568e+05
9.380000e+02 1.605435e+06
9.390000e+02 3.722285e+06
9.400000e+02 3.826821e+06
9.410000e+02 1.812266e+06
9.420000e+02 4.033513e+06
9.430000e+02 4.133961e+06
9.440000e+02 2.837034e+06
9.450000e+02 4.357160e+06
9.460000e+02 4.469636e+06
9.470000e+02 3.130471e+06
9.480000e+02 3.940982e+06
9.490000e+02 4.762188e+06
9.500000e+02 1.027054e+06
9.510000e+02 4.906695e+06
9.520000e+02 5.209518e+06
9.530000e+02 5.259936e+06
9.540000e+02 4.564802e+06
9.550000e+02 5.625070e+06
9.560000e+02 4.415548e+06
9.570000e+02 4.438387e+06
9.580000e+02 5.944334e+06
9.590000e+02 6.248690e+06
9.600000e+02 1.476036e+06
9.610000e+02 6.546031e+06
9.620000e+02 6.726890e+06
9.630000e+02 6.907561e+06
9.640000e+02 8.341065e+05
9.650000e+02 6.650185e+06
9.660000e+02 7.437878e+06
9.670000e+02 7.554796e+06
9.680000e+02 7.718716e+06
9.690000e+02 7.957516e+06
9.700000e+02 8.178042e+06
9.710000e+02 8.294054e+06
9.720000e+02 7.821202e+06
9.730000e+02 7.803878e+06
9.740000e+02 8.907090e+06
9.750000e+02 9.238669e+06
9.760000e+02 9.495766e+06
9.770000e+02 9.737562e+06
9.780000e+02 9.951836e+06
9.790000e+02 1.023120e+07
9.800000e+02 1.047876e+07
9.810000e+02 1.073287e+07
9.820000e+02 1.093319e+07
9.830000e+02 1.125846e+07
9.840000e+02 4.999218e+06
9.850000e+02 1.180313e+07
9.860000e+02 1.208087e+07
9.870000e+02 1.238240e+07
9.880000e+02 1.253846e+07
9.890000e+02 1.034649e+07
9.900000e+02 2.091104e+06
9.910000e+02 1.343734e+07
9.920000e+02 1.189127e+07
9.930000e+02 1.343500e+07
9.940000e+02 2.671179e+06
9.950000e+02 4.497908e+06
9.960000e+02 6.154600e+06
9.970000e+02 3.670312e+06
9.980000e+02 1.598437e+07
9.990000e+02 1.600928e+07
1.000000e+03 1.678037e+07
1.001000e+03 1.717569e+07
1.002000e+03 1.756628e+07
1.003000e+03 1.675157e+07
1.004000e+03 1.828508e+07
1.005000e+03 1.711764e+07
1.006000e+03 1.925016e+07
1.007000e+03 1.959987e+07
1.008000e+03 2.010352e+07
1.009000e+03 2.014101e+07
1.010000e+03 2.106429e+07
1.011000e+03 2.154235e+07
1.012000e+03 2.202391e+07
1.013000e+03 2.251983e+07
1.014000e+03 2.220301e+07
1.015000e+03 2.303878e+07
1.016000e+03 2.396105e+07
1.017000e+03 2.387042e+07
1.018000e+03 2.506356e+07
1.019000e+03 2.540932e+07
1.020000e+03 2.617161e+07
1.021000e+03 1.653706e+07
1.022000e+03 2.537578e+07
1.023000e+03 2.703128e+07
1.024000e+03 2.536132e+07
1.025000e+03 2.016309e+07
1.026000e+03 9.955408e+06
1.027000e+03 2.625102e+07
1.028000e+03 9.370584e+06
1.029000e+03 3.063043e+07
1.030000e+03 3.199009e+07
1.031000e+03 3.322248e+07
1.032000e+03 3.387149e+07
1.033000e+03 1.847769e+07
1.034000e+03 3.568806e+07
1.035000e+03 9.044650e+06
1.036000e+03 3.439162e+07
1.037000e+03 6.647256e+06
1.038000e+03 3.898256e+07
1.039000e+03 3.945546e+07
1.040000e+03 4.069280e+07
1.041000e+03 4.119689e+07
1.042000e+03 4.197701e+07
1.043000e+03 4.227234e+07
1.044000e+03 4.420820e+07
1.045000e+03 4.518148e+07
1.046000e+03 4.624990e+07
1.047000e+03 4.715251e+07
1.048000e+03 4.766381e+07
1.049000e+03 4.746277e+07
1.050000e+03 5.026192e+07
1.051000e+03 5.128662e+07
1.052000e+03 5.244464e+07
1.053000e+03 5.296721e+07
1.054000e+03 5.269219e+07
1.055000e+03 5.487834e+07
1.056000e+03 5.698620e+07
1.057000e+03 5.811618e+07
1.058000e+03 5.929665e+07
1.059000e+03 6.028437e+07
1.060000e+03 6.143424e+07
1.061000e+03 6.311057e+07
1.062000e+03 6.435644e+07
1.063000e+03 2.589559e+07
1.064000e+03 1.604842e+07
1.065000e+03 6.724511e+07
1.066000e+03 5.552422e+07
1.067000e+03 6.945330e+07
1.068000e+03 7.325734e+07
1.069000e+03 7.232087e+07
1.070000e+03 7.538401e+07
1.071000e+03 7.784142e+07
1.072000e+03 7.940425e+07
1.073000e+03 7.957490e+07
1.074000e+03 8.254622e+07
1.075000e+03 8.414860e+07
1.076000e+03 8.597641e+07
1.077000e+03 8.733542e+07
1.078000e+03 8.931834e+07
1.079000e+03 9.091824e+07
1.080000e+03 9.295743e+07
1.081000e+03 9.484615e+07
1.082000e+03 9.668957e+07
1.083000e+03 9.845216e+07
1.084000e+03 9.973268e+07
1.085000e+03 7.448602e+07
1.086000e+03 1.045976e+08
1.087000e+03 1.060907e+08
1.088000e+03 1.084080e+08
1.089000e+03 1.108045e+08
1.090000e+03 1.126575e+08
1.091000e+03 1.147100e+08
1.092000e+03 1.173665e+08
1.093000e+03 1.195503e+08
1.094000e+03 1.219153e+08
1.095000e+03 1.241995e+08
1.096000e+03 1.266130e+08
1.097000e+03 1.268237e+08
1.098000e+03 1.293160e+08
1.099000e+03 1.338668e+08
1.100000e+03 1.315092e+08
1.101000e+03 1.274472e+08
1.102000e+03 2.689673e+08
1.103000e+03 7.956119e+08
1.104000e+03 3.475644e+08
1.105000e+03 1.378771e+08
1.106000e+03 1.871322e+09
1.107000e+03 1.179693e+09
1.108000e+03 1.920825e+09
1.109000e+03 1.042167e+09
1.110000e+03 4.135927e+08
1.111000e+03 3.059571e+08
1.112000e+03 1.685366e+09
1.113000e+03 2.126512e+09
1.114000e+03 1.119511e+08
1.115000e+03 1.956611e+09
1.116000e+03 1.962711e+09
1.117000e+03 1.282556e+08
1.118000e+03 1.366609e+09
1.119000e+03 2.265207e+09
1.120000e+03 2.120648e+09
1.121000e+03 2.036948e+09
1.122000e+03 4.822451e+07
1.123000e+03 2.275119e+08
1.124000e+03 2.435052e+09
1.125000e+03 1.109441e+09
1.126000e+03 2.524789e+09
1.127000e+03 2.455161e+09
1.128000e+03 1.150040e+09
1.129000e+03 2.524291e+09
1.130000e+03 2.099308e+09
1.131000e+03 2.710126e+09
1.132000e+03 1.265782e+08
1.133000e+03 2.013121e+09
1.134000e+03 2.628393e+09
1.135000e+03 7.360819e+07
1.136000e+03 2.728662e+09
1.137000e+03 2.933730e+09
1.138000e+03 2.924973e+09
1.139000e+03 2.942967e+09
1.140000e+03 8.618778e+07
1.141000e+03 3.100479e+09
1.142000e+03 3.047516e+09
1.143000e+03 3.171680e+09
1.144000e+03 3.238821e+09
1.145000e+03 2.288514e+09
1.146000e+03 3.321275e+09
1.147000e+03 3.316232e+09
1.148000e+03 3.091439e+09
1.149000e+03 3.451358e+09
1.150000e+03 3.387897e+09
1.151000e+03 3.530816e+09
1.152000e+03 3.573062e+09
1.153000e+03 9.687670e+08
1.154000e+03 2.358564e+08
1.155000e+03 2.528209e+09
1.156000e+03 7.743424e+08
1.157000e+03 3.828504e+09
1.158000e+03 1.237729e+08
1.159000e+03 3.073472e+09
1.160000e+03 3.745784e+09
1.161000e+03 4.057752e+09
1.162000e+03 8.975470e+08
1.163000e+03 3.984525e+09
1.164000e+03 1.943677e+08
1.165000e+03 4.276609e+09
1.166000e+03 4.284539e+09
1.167000e+03 4.235603e+09
1.168000e+03 4.471534e+09
1.169000e+03 4.403985e+09
1.170000e+03 4.592193e+09
1.171000e+03 4.654070e+09
1.172000e+03 4.542255e+09
1.173000e+03 4.784033e+09
1.174000e+03 4.300393e+09
1.175000e+03 2.220708e+08
1.176000e+03 1.820872e+08
1.177000e+03 5.034949e+09
1.178000e+03 4.741443e+09
1.179000e+03 5.181123e+09
1.180000e+03 4.001322e+09
1.181000e+03 5.270804e+09
1.182000e+03 5.381085e+09
1.183000e+03 5.426820e+09
1.184000e+03 5.478429e+09
1.185000e+03 5.403366e+09
1.186000e+03 5.472226e+09
1.187000e+03 5.652824e+09
1.188000e+03 5.536275e+09
1.189000e+03 2.133873e+08
1.190000e+03 7.250181e+08
1.191000e+03 5.684177e+09
1.192000e+03 5.738352e+09
1.193000e+03 1.959508e+08
1.194000e+03 2.440443e+08
1.195000e+03 4.018800e+09
1.196000e+03 5.775380e+09
1.197000e+03 7.320440e+09
1.198000e+03 7.231981e+09
1.199000e+03 7.163958e+09
1.200000e+03 6.353285e+09
1.201000e+03 6.695421e+09
1.202000e+03 6.536963e+09
1.203000e+03 7.319078e+09
1.204000e+03 6.489361e+09
1.205000e+03 6.199758e+09
1.206000e+03 5.367169e+09
1.207000e+03 1.484410e+09
1.208000e+03 4.282667e+09
1.209000e+03 3.293037e+09
1.210000e+03 3.598042e+08
1.211000e+03 2.014955e+09
1.212000e+03 1.321883e+09
1.213000e+03 8.641620e+08
1.214000e+03 5.198155e+08
1.215000e+03 3.365817e+08
1.216000e+03 3.069974e+08
1.217000e+03 4.614468e+08
1.218000e+03 7.867357e+08
1.219000e+03 1.320258e+09
1.220000e+03 2.046267e+09
1.221000e+03 2.938404e+09
1.222000e+03 3.935952e+09
1.223000e+03 5.013835e+09
1.224000e+03 6.143228e+09
1.225000e+03 7.131399e+09
1.226000e+03 8.391593e+09
1.227000e+03 9.478643e+09
1.228000e+03 1.056373e+10
1.229000e+03 1.171380e+10
1.230000e+03 1.266805e+10
1.231000e+03 1.359959e+10
1.232000e+03 1.494161e+10
1.233000e+03 1.591909e+10
1.234000e+03 1.053109e+10
1.235000e+03 1.768826e+10
1.236000e+03 1.792242e+10
1.237000e+03 1.939133e+10
1.238000e+03 2.007987e+10
1.239000e+03 2.085325e+10
1.240000e+03 1.950027e+10
1.241000e+03 3.664164e+10
1.242000e+03 1.898275e+10
1.243000e+03 2.872325e+10
1.244000e+03 1.137738e+10
1.245000e+03 1.725125e+10
1.246000e+03 5.859591e+10
1.247000e+03 5.923163e+10
1.248000e+03 1.225854e+10
1.249000e+03 1.526441e+10
1.250000e+03 7.161436e+10
1.251000e+03 7.539129e+10
1.252000e+03 7.453491e+10
1.253000e+03 8.161399e+10
1.254000e+03 8.069331e+10
1.255000e+03 8.614565e+10
1.256000e+03 8.494381e+10
1.257000e+03 9.150478e+10
1.258000e+03 8.397715e+10
1.259000e+03 8.810212e+10
1.260000e+03 7.346144e+10
1.261000e+03 6.774448e+08
1.262000e+03 7.278473e+09
1.263000e+03 1.010934e+11
1.264000e+03 8.460823e+10
1.265000e+03 6.791475e+08
1.266000e+03 1.052208e+11
1.267000e+03 1.058837e+11
