# wavelength_A flux
5.000000e+02 1.514035e-29
5.010000e+02 1.872477e-29
5.020000e+02 2.313790e-29
5.030000e+02 2.856720e-29
5.040000e+02 3.524168e-29
5.050000e+02 9.595028e-29
5.060000e+02 1.177057e-28
5.070000e+02 1.442834e-28
5.080000e+02 1.767208e-28
5.090000e+02 2.162828e-28
5.100000e+02 2.644922e-28
5.110000e+02 3.232125e-28
5.120000e+02 3.946604e-28
5.130000e+02 4.815371e-28
5.140000e+02 5.870951e-28
5.150000e+02 7.151196e-28
5.160000e+02 8.707460e-28
5.170000e+02 1.058645e-27
5.180000e+02 1.287651e-27
5.190000e+02 1.564105e-27
5.200000e+02 1.898509e-27
5.210000e+02 2.302606e-27
5.220000e+02 2.781333e-27
5.230000e+02 3.379878e-27
5.240000e+02 4.091577e-27
5.250000e+02 4.948961e-27
5.260000e+02 5.981555e-27
5.270000e+02 7.224504e-27
5.280000e+02 8.719659e-27
5.290000e+02 1.047554e-26
5.300000e+02 1.267616e-26
5.310000e+02 1.526798e-26
5.320000e+02 1.837729e-26
5.330000e+02 2.210467e-26
5.340000e+02 2.657009e-26
5.350000e+02 3.191505e-26
5.360000e+02 3.830181e-26
5.370000e+02 3.083561e-26
5.380000e+02 5.507199e-26
5.390000e+02 6.600365e-26
5.400000e+02 7.903984e-26
5.410000e+02 9.439786e-26
5.420000e+02 1.130698e-25
5.430000e+02 1.351369e-25
5.440000e+02 1.613835e-25
5.450000e+02 1.926059e-25
5.460000e+02 2.289545e-25
5.470000e+02 2.738245e-25
5.480000e+02 3.261854e-25
5.490000e+02 3.883246e-25
5.500000e+02 4.620131e-25
5.510000e+02 5.493533e-25
5.520000e+02 6.528025e-25
5.530000e+02 7.752632e-25
5.540000e+02 9.201428e-25
5.550000e+02 1.091444e-24
5.560000e+02 1.293866e-24
5.570000e+02 1.532922e-24
5.580000e+02 1.815077e-24
5.590000e+02 2.147909e-24
5.600000e+02 2.540292e-24
5.610000e+02 3.002616e-24
5.620000e+02 3.547038e-24
5.630000e+02 4.187779e-24
5.640000e+02 4.941435e-24
5.650000e+02 5.827267e-24
5.660000e+02 6.868422e-24
5.670000e+02 8.090758e-24
5.680000e+02 9.525403e-24
5.690000e+02 1.120816e-23
5.700000e+02 1.318086e-23
5.710000e+02 1.549237e-23
5.720000e+02 1.819923e-23
5.730000e+02 2.136742e-23
5.740000e+02 2.507357e-23
5.750000e+02 2.942198e-23
5.760000e+02 3.437019e-23
5.770000e+02 4.040461e-23
5.780000e+02 4.731116e-23
5.790000e+02 5.536887e-23
5.800000e+02 6.476439e-23
5.810000e+02 7.571365e-23
5.820000e+02 8.846185e-23
5.830000e+02 1.032699e-22
5.840000e+02 1.194141e-22
5.850000e+02 1.403776e-22
5.860000e+02 1.640433e-22
5.870000e+02 1.912403e-22
5.880000e+02 2.228017e-22
5.890000e+02 2.593739e-22
5.900000e+02 3.019200e-22
5.910000e+02 3.511908e-22
5.920000e+02 4.083114e-22
5.930000e+02 4.744823e-22
5.940000e+02 5.511075e-22
5.950000e+02 6.398003e-22
5.960000e+02 7.424032e-22
5.970000e+02 8.610463e-22
5.980000e+02 9.981727e-22
5.990000e+02 1.156588e-21
6.000000e+02 1.339511e-21
6.010000e+02 1.548051e-21
6.020000e+02 1.794192e-21
6.030000e+02 2.075033e-21
6.040000e+02 2.398735e-21
6.050000e+02 2.771646e-21
6.060000e+02 3.201042e-21
6.070000e+02 3.695327e-21
6.080000e+02 4.263991e-21
6.090000e+02 4.917907e-21
6.100000e+02 5.669451e-21
6.110000e+02 6.533155e-21
6.120000e+02 7.524949e-21
6.130000e+02 8.663466e-21
6.140000e+02 9.969840e-21
6.150000e+02 1.146816e-20
6.160000e+02 1.318590e-20
6.170000e+02 1.515434e-20
6.180000e+02 1.740909e-20
6.190000e+02 1.999065e-20
6.200000e+02 2.294534e-20
6.210000e+02 2.632560e-20
6.220000e+02 3.019081e-20
6.230000e+02 3.460887e-20
6.240000e+02 3.965685e-20
6.250000e+02 4.542207e-20
6.260000e+02 5.200376e-20
6.270000e+02 5.951440e-20
6.280000e+02 6.808202e-20
6.290000e+02 7.785076e-20
6.300000e+02 8.898384e-20
6.310000e+02 1.000198e-19
6.320000e+02 1.161165e-19
6.330000e+02 1.324691e-19
6.340000e+02 1.512771e-19
6.350000e+02 1.724967e-19
6.360000e+02 1.967624e-19
6.370000e+02 2.242810e-19
6.380000e+02 2.555384e-19
6.390000e+02 2.910380e-19
6.400000e+02 3.313402e-19
6.410000e+02 3.770770e-19
6.420000e+02 4.289613e-19
6.430000e+02 4.877973e-19
6.440000e+02 5.544911e-19
6.450000e+02 6.300630e-19
6.460000e+02 7.156647e-19
6.470000e+02 8.125905e-19
6.480000e+02 9.222953e-19
6.490000e+02 1.046420e-18
6.500000e+02 1.186731e-18
6.510000e+02 1.345528e-18
6.520000e+02 1.524920e-18
6.530000e+02 1.727590e-18
6.540000e+02 1.956443e-18
6.550000e+02 2.214896e-18
6.560000e+02 2.506533e-18
6.570000e+02 2.834577e-18
6.580000e+02 3.206597e-18
6.590000e+02 3.624909e-18
6.600000e+02 4.096173e-18
6.610000e+02 4.627427e-18
6.620000e+02 5.225533e-18
6.630000e+02 5.898878e-18
6.640000e+02 6.656661e-18
6.650000e+02 7.509021e-18
6.660000e+02 8.467964e-18
6.670000e+02 9.545864e-18
6.680000e+02 1.075729e-17
6.690000e+02 1.211830e-17
6.700000e+02 1.364687e-17
6.710000e+02 1.536304e-17
6.720000e+02 1.728920e-17
6.730000e+02 1.945032e-17
6.740000e+02 2.187425e-17
6.750000e+02 2.459208e-17
6.760000e+02 2.763843e-17
6.770000e+02 3.105190e-17
6.780000e+02 3.487548e-17
6.790000e+02 3.915706e-17
6.800000e+02 4.394996e-17
6.810000e+02 4.931351e-17
6.820000e+02 5.531373e-17
6.830000e+02 6.202431e-17
6.840000e+02 6.952644e-17
6.850000e+02 7.790920e-17
6.860000e+02 8.727929e-17
6.870000e+02 9.774135e-17
6.880000e+02 1.094267e-16
6.890000e+02 1.224686e-16
6.900000e+02 1.370222e-16
6.910000e+02 1.532575e-16
6.920000e+02 1.713634e-16
6.930000e+02 1.915493e-16
6.940000e+02 2.140473e-16
6.950000e+02 2.391146e-16
6.960000e+02 2.670362e-16
6.970000e+02 2.980822e-16
6.980000e+02 3.327391e-16
6.990000e+02 3.712575e-16
7.000000e+02 4.141100e-16
7.010000e+02 4.617710e-16
7.020000e+02 5.147644e-16
7.030000e+02 5.736697e-16
7.040000e+02 6.391274e-16
7.050000e+02 7.118453e-16
7.060000e+02 7.925985e-16
7.070000e+02 8.822699e-16
7.080000e+02 9.817939e-16
7.090000e+02 1.092182e-15
7.100000e+02 1.214737e-15
7.110000e+02 1.350600e-15
7.120000e+02 1.501230e-15
7.130000e+02 1.668185e-15
7.140000e+02 1.853183e-15
7.150000e+02 2.058110e-15
7.160000e+02 2.285078e-15
7.170000e+02 2.536260e-15
7.180000e+02 2.814084e-15
7.190000e+02 3.122231e-15
7.200000e+02 3.462687e-15
7.210000e+02 3.839212e-15
7.220000e+02 4.255512e-15
7.230000e+02 4.715666e-15
7.240000e+02 5.224156e-15
7.250000e+02 5.785909e-15
7.260000e+02 6.406313e-15
7.270000e+02 7.091392e-15
7.280000e+02 7.847600e-15
7.290000e+02 8.682132e-15
7.300000e+02 9.602860e-15
7.310000e+02 1.061844e-14
7.320000e+02 1.173831e-14
7.330000e+02 1.297288e-14
7.340000e+02 1.433354e-14
7.350000e+02 1.583279e-14
7.360000e+02 1.748393e-14
7.370000e+02 1.930315e-14
7.380000e+02 2.130568e-14
7.390000e+02 2.350995e-14
7.400000e+02 2.593478e-14
7.410000e+02 2.860428e-14
7.420000e+02 3.153857e-14
7.430000e+02 3.476720e-14
7.440000e+02 3.831554e-14
7.450000e+02 4.221545e-14
7.460000e+02 4.650072e-14
7.470000e+02 5.120820e-14
7.480000e+02 5.637826e-14
7.490000e+02 6.205497e-14
7.500000e+02 6.828646e-14
7.510000e+02 7.512530e-14
7.520000e+02 8.262888e-14
7.530000e+02 9.085980e-14
7.540000e+02 9.988641e-14
7.550000e+02 1.097833e-13
7.560000e+02 1.206317e-13
7.570000e+02 1.324910e-13
7.580000e+02 1.455459e-13
7.590000e+02 1.598064e-13
7.600000e+02 1.754375e-13
7.610000e+02 1.925452e-13
7.620000e+02 2.112723e-13
7.630000e+02 2.317646e-13
7.640000e+02 2.541853e-13
7.650000e+02 2.787088e-13
7.660000e+02 3.055302e-13
7.670000e+02 3.348535e-13
7.680000e+02 3.668812e-13
7.690000e+02 3.999896e-13
7.700000e+02 4.402129e-13
7.710000e+02 4.820209e-13
7.720000e+02 5.276814e-13
7.730000e+02 5.775349e-13
7.740000e+02 6.319561e-13
7.750000e+02 6.913502e-13
7.760000e+02 7.552146e-13
7.770000e+02 8.268552e-13
7.780000e+02 9.039649e-13
7.790000e+02 9.880443e-13
7.800000e+02 1.079706e-12
7.810000e+02 1.179614e-12
7.820000e+02 1.288483e-12
7.830000e+02 1.407094e-12
7.840000e+02 1.536289e-12
7.850000e+02 1.676984e-12
7.860000e+02 1.830154e-12
7.870000e+02 1.997032e-12
7.880000e+02 2.178515e-12
7.890000e+02 2.375982e-12
7.900000e+02 2.590798e-12
7.910000e+02 2.824437e-12
7.920000e+02 3.078494e-12
7.930000e+02 3.354698e-12
7.940000e+02 3.654915e-12
7.950000e+02 3.981167e-12
7.960000e+02 4.335638e-12
7.970000e+02 4.720690e-12
7.980000e+02 5.138875e-12
7.990000e+02 5.592953e-12
8.000000e+02 6.085904e-12
8.010000e+02 6.620863e-12
8.020000e+02 7.201558e-12
8.030000e+02 7.831494e-12
8.040000e+02 8.514806e-12
8.050000e+02 9.255875e-12
8.060000e+02 1.005941e-11
8.070000e+02 1.093052e-11
8.080000e+02 1.187468e-11
8.090000e+02 1.289783e-11
8.100000e+02 1.400636e-11
8.110000e+02 1.520715e-11
8.120000e+02 1.650763e-11
8.130000e+02 1.791583e-11
8.140000e+02 1.944032e-11
8.150000e+02 2.109041e-11
8.160000e+02 2.287615e-11
8.170000e+02 2.480822e-11
8.180000e+02 2.689836e-11
8.190000e+02 2.915893e-11
8.200000e+02 3.160343e-11
8.210000e+02 3.424630e-11
8.220000e+02 3.710313e-11
8.230000e+02 4.019063e-11
8.240000e+02 4.352682e-11
8.250000e+02 4.713110e-11
8.260000e+02 5.102419e-11
8.270000e+02 5.522850e-11
8.280000e+02 5.976808e-11
8.290000e+02 6.466875e-11
8.300000e+02 6.995828e-11
8.310000e+02 7.566647e-11
8.320000e+02 8.182534e-11
8.330000e+02 8.846926e-11
8.340000e+02 9.563513e-11
8.350000e+02 1.031867e-10
8.360000e+02 1.116883e-10
8.370000e+02 1.206752e-10
8.380000e+02 1.303441e-10
8.390000e+02 1.407860e-10
8.400000e+02 1.520243e-10
8.410000e+02 1.641303e-10
8.420000e+02 1.771445e-10
8.430000e+02 1.912090e-10
8.440000e+02 2.063255e-10
8.450000e+02 2.225976e-10
8.460000e+02 2.401108e-10
8.470000e+02 2.589564e-10
8.480000e+02 2.792324e-10
8.490000e+02 3.010435e-10
8.500000e+02 3.245019e-10
8.510000e+02 3.497277e-10
8.520000e+02 3.768449e-10
8.530000e+02 4.060046e-10
8.540000e+02 4.373598e-10
8.550000e+02 4.710350e-10
8.560000e+02 5.072167e-10
8.570000e+02 5.460848e-10
8.580000e+02 5.865139e-10
8.590000e+02 6.326637e-10
8.600000e+02 6.808002e-10
8.610000e+02 7.321775e-10
8.620000e+02 7.879434e-10
8.630000e+02 8.474642e-10
8.640000e+02 9.113413e-10
8.650000e+02 9.798268e-10
8.660000e+02 1.053367e-09
8.670000e+02 1.132197e-09
8.680000e+02 1.216726e-09
8.690000e+02 1.307352e-09
8.700000e+02 1.404499e-09
8.710000e+02 1.508622e-09
8.720000e+02 1.620201e-09
8.730000e+02 1.739751e-09
8.740000e+02 1.867823e-09
8.750000e+02 2.005001e-09
8.760000e+02 2.151909e-09
8.770000e+02 2.309180e-09
8.780000e+02 2.477623e-09
8.790000e+02 2.657897e-09
8.800000e+02 2.850836e-09
8.810000e+02 3.057300e-09
8.820000e+02 3.278202e-09
8.830000e+02 3.514515e-09
8.840000e+02 3.767275e-09
8.850000e+02 4.037589e-09
8.860000e+02 4.326625e-09
8.870000e+02 4.635641e-09
8.880000e+02 4.965958e-09
8.890000e+02 5.319002e-09
8.900000e+02 5.696271e-09
8.910000e+02 6.099369e-09
8.920000e+02 6.512595e-09
8.930000e+02 6.989976e-09
8.940000e+02 7.481221e-09
8.950000e+02 8.005785e-09
8.960000e+02 8.565847e-09
8.970000e+02 9.163716e-09
8.980000e+02 9.801851e-09
8.990000e+02 1.048287e-08
9.000000e+02 1.120953e-08
9.010000e+02 1.198481e-08
9.020000e+02 1.281180e-08
9.030000e+02 1.369377e-08
9.040000e+02 1.463449e-08
9.050000e+02 1.563683e-08
9.060000e+02 1.670675e-08
9.070000e+02 1.784550e-08
9.080000e+02 1.906136e-08
9.090000e+02 2.035592e-08
9.100000e+02 2.173528e-08
9.110000e+02 2.320534e-08
9.120000e+02 2.477733e-08
9.130000e+02 2.336503e-08
9.140000e+02 1.136214e-07
9.150000e+02 6.374617e-02
9.160000e+02 1.105021e-01
9.170000e+02 6.711468e-02
9.180000e+02 1.173689e-01
9.190000e+02 1.290506e-01
9.200000e+02 1.350915e-01
9.210000e+02 4.014055e-08
9.220000e+02 1.427566e-01
9.230000e+02 1.452270e-01
9.240000e+02 9.866872e-02
9.250000e+02 1.374383e-01
9.260000e+02 1.678716e-01
9.270000e+02 8.905450e-02
9.280000e+02 1.875659e-01
9.290000e+02 1.942405e-01
9.300000e+02 1.951943e-01
9.310000e+02 1.040648e-01
9.320000e+02 2.210734e-01
9.330000e+02 2.297901e-01
9.340000e+02 2.390794e-01
9.350000e+02 6.952509e-05
9.360000e+02 1.062712e-01
9.370000e+02 2.377329e-05
9.380000e+02 1.259683e-02
9.390000e+02 1.864431e-01
9.400000e+02 3.017393e-01
9.410000e+02 9.466596e-04
9.420000e+02 3.270310e-01
9.430000e+02 2.568239e-01
9.440000e+02 2.013725e-01
9.450000e+02 3.663287e-01
9.460000e+02 3.691857e-01
9.470000e+02 1.729289e-02
9.480000e+02 9.120937e-02
9.490000e+02 4.059575e-01
9.500000e+02 5.254149e-05
9.510000e+02 4.237857e-01
9.520000e+02 4.699289e-01
9.530000e+02 1.028313e-01
9.540000e+02 1.994219e-02
9.550000e+02 4.288566e-01
9.560000e+02 9.826761e-02
9.570000e+02 1.630640e-02
9.580000e+02 3.192186e-03
9.590000e+02 6.598647e-01
9.600000e+02 8.404255e-05
9.610000e+02 6.810595e-01
9.620000e+02 6.526055e-01
9.630000e+02 5.311197e-01
9.640000e+02 5.900860e-06
9.650000e+02 5.203852e-02
9.660000e+02 6.502721e-01
9.670000e+02 3.019062e-01
9.680000e+02 1.679435e-01
9.690000e+02 8.728089e-01
9.700000e+02 8.984616e-01
9.710000e+02 3.375191e-01
9.720000e+02 2.249086e-01
9.730000e+02 5.553715e-01
9.740000e+02 9.996292e-01
9.750000e+02 8.683772e-01
9.760000e+02 1.271943e+00
9.770000e+02 1.312357e+00
9.780000e+02 1.260211e+00
9.790000e+02 1.466116e+00
9.800000e+02 1.520848e+00
9.810000e+02 1.428904e+00
9.820000e+02 1.006082e+00
9.830000e+02 1.710611e+00
9.840000e+02 1.851794e-02
9.850000e+02 1.392951e+00
9.860000e+02 1.494406e+00
9.870000e+02 2.009422e+00
9.880000e+02 8.944786e-02
9.890000e+02 1.460131e+00
9.900000e+02 7.509861e-04
9.910000e+02 5.359834e-01
9.920000e+02 8.149683e-03
9.930000e+02 1.692103e+00
9.940000e+02 7.152557e-05
9.950000e+02 2.010456e-02
9.960000e+02 3.344173e-01
9.970000e+02 9.392500e-04
9.980000e+02 2.839441e+00
9.990000e+02 2.998031e-01
1.000000e+03 2.867651e+00
1.001000e+03 3.534411e+00
1.002000e+03 3.665777e+00
1.003000e+03 1.872640e+00
1.004000e+03 1.595538e-01
1.005000e+03 2.672157e+00
1.006000e+03 4.272367e+00
1.007000e+03 4.445100e+00
1.008000e+03 4.525743e+00
1.009000e+03 2.473364e+00
1.010000e+03 4.930517e+00
1.011000e+03 5.171154e+00
1.012000e+03 5.316792e+00
1.013000e+03 5.498516e+00
1.014000e+03 1.760197e-02
1.015000e+03 1.407399e-01
1.016000e+03 3.592073e+00
1.017000e+03 1.589489e-02
1.018000e+03 3.330941e+00
1.019000e+03 1.491380e-01
1.020000e+03 6.963274e+00
1.021000e+03 6.161022e-02
1.022000e+03 1.658436e+00
1.023000e+03 3.327804e-01
1.024000e+03 3.376520e+00
1.025000e+03 1.158067e-02
1.026000e+03 1.970848e-02
1.027000e+03 2.811511e+00
1.028000e+03 2.103329e-03
1.029000e+03 2.978992e-02
1.030000e+03 8.078167e+00
1.031000e+03 8.650405e+00
1.032000e+03 8.108384e+00
1.033000e+03 2.490044e-02
1.034000e+03 1.046401e+01
1.035000e+03 1.099586e-03
1.036000e+03 5.992126e-02
1.037000e+03 1.319974e+01
1.038000e+03 1.392913e+01
1.039000e+03 1.371853e+01
1.040000e+03 1.496277e+01
1.041000e+03 1.416503e+01
1.042000e+03 1.616142e+01
1.043000e+03 1.081369e+01
1.044000e+03 1.748152e+01
1.045000e+03 1.763980e+01
1.046000e+03 1.850498e+01
1.047000e+03 1.727376e+01
1.048000e+03 2.605658e+00
1.049000e+03 1.676967e+01
1.050000e+03 1.689536e+01
1.051000e+03 1.418189e+01
1.052000e+03 2.306776e+01
1.053000e+03 2.399451e+01
1.054000e+03 8.242226e-02
1.055000e+03 2.382554e+01
1.056000e+03 2.670370e+01
1.057000e+03 2.594013e+01
1.058000e+03 1.967409e+01
1.059000e+03 1.245894e+01
1.060000e+03 3.739498e+00
1.061000e+03 3.081532e+01
1.062000e+03 1.582394e+01
1.063000e+03 3.970784e-02
1.064000e+03 2.170563e-03
1.065000e+03 1.482658e-01
1.066000e+03 4.772045e+00
1.067000e+03 8.655098e+00
1.068000e+03 4.075697e+01
1.069000e+03 1.851707e+00
1.070000e+03 3.936467e+01
1.071000e+03 4.506518e+01
1.072000e+03 4.668792e+01
1.073000e+03 3.954811e-01
1.074000e+03 4.510112e+01
1.075000e+03 4.350066e+01
1.076000e+03 5.308312e+01
1.077000e+03 1.098671e-01
1.078000e+03 3.055580e+01
1.079000e+03 4.894446e+01
1.080000e+03 5.132671e+01
1.081000e+03 6.191413e+01
1.082000e+03 6.261638e+01
1.083000e+03 6.190905e+01
1.084000e+03 6.665509e+01
1.085000e+03 1.319136e+01
1.086000e+03 7.401243e+01
1.087000e+03 2.291253e+01
1.088000e+03 7.743722e+01
1.089000e+03 8.067549e+01
1.090000e+03 5.659809e+01
1.091000e+03 6.119770e+01
1.092000e+03 8.269418e+01
1.093000e+03 9.058853e+01
1.094000e+03 8.978488e+01
1.095000e+03 9.671645e+01
1.096000e+03 6.997818e+00
1.097000e+03 9.568752e+01
1.098000e+03 1.020965e+02
1.099000e+03 9.244053e+01
1.100000e+03 6.451668e+00
1.101000e+03 2.086369e+01
1.102000e+03 1.114596e+02
1.103000e+03 2.527557e+02
1.104000e+03 1.845330e+02
1.105000e+03 1.237570e+02
1.106000e+03 2.792230e+02
1.107000e+03 7.079071e+00
1.108000e+03 3.266470e+02
1.109000e+03 1.070451e+02
1.110000e+03 1.665029e+02
1.111000e+03 2.024604e+02
1.112000e+03 3.334624e+02
1.113000e+03 3.179261e+02
1.114000e+03 1.098792e+02
1.115000e+03 1.495725e+02
1.116000e+03 1.082309e+02
1.117000e+03 1.241388e+02
1.118000e+03 1.399875e+02
1.119000e+03 3.858958e+02
1.120000e+03 1.161733e+02
1.121000e+03 4.071746e+02
1.122000e+03 3.749329e+00
1.123000e+03 2.375080e+02
1.124000e+03 4.371588e+02
1.125000e+03 3.393886e+02
1.126000e+03 4.562452e+02
1.127000e+03 4.471739e+02
1.128000e+03 2.483593e+02
1.129000e+03 4.583049e+02
1.130000e+03 4.569526e+02
1.131000e+03 4.570841e+02
1.132000e+03 6.501526e+00
1.133000e+03 3.086678e+02
1.134000e+03 4.862998e+02
1.135000e+03 1.005951e+00
1.136000e+03 4.283133e+02
1.137000e+03 5.446132e+02
1.138000e+03 5.284032e+02
1.139000e+03 5.637676e+02
1.140000e+03 5.660455e+01
1.141000e+03 5.844412e+02
1.142000e+03 5.894305e+02
1.143000e+03 5.465440e+02
1.144000e+03 5.932200e+02
1.145000e+03 5.022183e+01
1.146000e+03 6.361343e+02
1.147000e+03 6.379985e+02
1.148000e+03 3.250560e+02
1.149000e+03 6.528769e+02
1.150000e+03 6.655565e+02
1.151000e+03 6.866857e+02
1.152000e+03 7.011406e+02
1.153000e+03 4.189793e+02
1.154000e+03 7.012894e+02
1.155000e+03 7.251343e+02
1.156000e+03 6.051151e+02
1.157000e+03 7.289620e+02
1.158000e+03 1.431063e+02
1.159000e+03 7.640001e+02
1.160000e+03 7.680759e+02
1.161000e+03 8.084003e+02
1.162000e+03 3.280331e+02
1.163000e+03 7.410813e+02
1.164000e+03 5.328369e-01
1.165000e+03 8.602496e+02
1.166000e+03 8.733568e+02
1.167000e+03 8.911501e+02
1.168000e+03 9.202748e+02
1.169000e+03 9.082294e+02
1.170000e+03 9.382471e+02
1.171000e+03 9.710925e+02
1.172000e+03 9.696854e+02
1.173000e+03 1.016300e+03
1.174000e+03 2.790043e+02
1.175000e+03 5.607300e-01
1.176000e+03 1.985474e-01
1.177000e+03 1.101558e+03
1.178000e+03 1.116632e+03
1.179000e+03 1.139677e+03
1.180000e+03 1.005751e+03
1.181000e+03 1.172912e+03
1.182000e+03 1.198957e+03
1.183000e+03 1.215072e+03
1.184000e+03 1.234272e+03
1.185000e+03 1.265648e+03
1.186000e+03 8.644328e+02
1.187000e+03 1.294693e+03
1.188000e+03 1.245220e+03
1.189000e+03 1.711930e+02
1.190000e+03 1.007820e+03
1.191000e+03 1.368952e+03
1.192000e+03 1.375809e+03
1.193000e+03 1.963367e+01
1.194000e+03 2.232313e+02
1.195000e+03 1.337560e+03
1.196000e+03 1.411098e+03
1.197000e+03 2.685781e+03
1.198000e+03 2.033191e+03
1.199000e+03 2.536638e+03
1.200000e+03 1.982391e+03
1.201000e+03 2.325364e+03
1.202000e+03 2.228778e+03
1.203000e+03 3.157275e+03
1.204000e+03 2.384882e+03
1.205000e+03 2.500182e+03
1.206000e+03 2.372307e+03
1.207000e+03 6.396216e+01
1.208000e+03 1.453730e+03
1.209000e+03 9.389889e+02
1.210000e+03 9.055176e-01
1.211000e+03 3.559138e+02
1.212000e+03 1.551571e+02
1.213000e+03 5.619307e+01
1.214000e+03 1.385790e+01
1.215000e+03 1.781346e+00
1.216000e+03 5.084523e-01
1.217000e+03 8.317823e+00
1.218000e+03 4.184257e+01
1.219000e+03 1.346604e+02
1.220000e+03 3.341852e+02
1.221000e+03 6.550994e+02
1.222000e+03 1.178222e+03
1.223000e+03 1.751339e+03
1.224000e+03 2.190856e+03
1.225000e+03 2.272438e+03
1.226000e+03 3.936199e+03
1.227000e+03 4.638524e+03
1.228000e+03 5.114332e+03
1.229000e+03 6.188058e+03
1.230000e+03 3.475370e+03
1.231000e+03 5.515229e+03
1.232000e+03 8.135352e+03
1.233000e+03 8.842816e+03
1.234000e+03 4.857056e+03
1.235000e+03 9.980354e+03
1.236000e+03 9.542649e+03
1.237000e+03 1.100787e+04
1.238000e+03 1.149237e+04
1.239000e+03 1.177901e+04
1.240000e+03 1.781406e+03
1.241000e+03 1.208624e+04
1.242000e+03 1.303499e+04
1.243000e+03 1.371579e+04
1.244000e+03 1.305400e+04
1.245000e+03 1.409293e+04
1.246000e+03 1.497557e+04
1.247000e+03 1.524285e+04
1.248000e+03 7.676260e+03
1.249000e+03 1.555751e+04
1.250000e+03 1.305709e+04
1.251000e+03 1.718937e+04
1.252000e+03 1.666474e+04
1.253000e+03 1.795724e+04
1.254000e+03 1.798483e+04
1.255000e+03 1.316867e+04
1.256000e+03 1.872990e+04
1.257000e+03 1.488434e+04
1.258000e+03 1.843417e+04
1.259000e+03 2.023536e+04
1.260000e+03 2.032757e+04
1.261000e+03 1.731045e+02
1.262000e+03 1.830694e+04
1.263000e+03 1.904366e+04
1.264000e+03 2.192660e+04
1.265000e+03 5.003906e+00
1.266000e+03 2.335230e+04
1.267000e+03 2.349821e+04
