# wavelength_A flux
5.000000e+02 0.000000e+00
5.010000e+02 0.000000e+00
5.020000e+02 0.000000e+00
5.030000e+02 0.000000e+00
5.040000e+02 0.000000e+00
5.050000e+02 0.000000e+00
5.060000e+02 0.000000e+00
5.070000e+02 0.000000e+00
5.080000e+02 0.000000e+00
5.090000e+02 0.000000e+00
5.100000e+02 1.401298e-45
5.110000e+02 1.401298e-45
5.120000e+02 1.401298e-45
5.130000e+02 1.401298e-45
5.140000e+02 2.802597e-45
5.150000e+02 2.802597e-45
5.160000e+02 4.203895e-45
5.170000e+02 5.605194e-45
5.180000e+02 7.006492e-45
5.190000e+02 9.809089e-45
5.200000e+02 1.261169e-44
5.210000e+02 1.681558e-44
5.220000e+02 2.242078e-44
5.230000e+02 2.942727e-44
5.240000e+02 3.923636e-44
5.250000e+02 5.184804e-44
5.260000e+02 6.866362e-44
5.270000e+02 9.108440e-44
5.280000e+02 1.191104e-43
5.290000e+02 1.569454e-43
5.300000e+02 2.059909e-43
5.310000e+02 2.704506e-43
5.320000e+02 3.531272e-43
5.330000e+02 4.624285e-43
5.340000e+02 6.039596e-43
5.350000e+02 7.889310e-43
5.360000e+02 1.029954e-42
5.370000e+02 1.341043e-42
5.380000e+02 1.746018e-42
5.390000e+02 2.271505e-42
5.400000e+02 2.951135e-42
5.410000e+02 3.831150e-42
5.420000e+02 4.967603e-42
5.430000e+02 6.434763e-42
5.440000e+02 8.327917e-42
5.450000e+02 1.076618e-41
5.460000e+02 1.390789e-41
5.470000e+02 1.794643e-41
5.480000e+02 2.313824e-41
5.490000e+02 2.980282e-41
5.500000e+02 3.835074e-41
5.510000e+02 4.930329e-41
5.520000e+02 6.332748e-41
5.530000e+02 8.126550e-41
5.540000e+02 1.041879e-40
5.550000e+02 1.334541e-40
5.560000e+02 1.707861e-40
5.570000e+02 2.183657e-40
5.580000e+02 2.789495e-40
5.590000e+02 3.560237e-40
5.600000e+02 4.539913e-40
5.610000e+02 5.784070e-40
5.620000e+02 7.362702e-40
5.630000e+02 9.364009e-40
5.640000e+02 1.189899e-39
5.650000e+02 1.510715e-39
5.660000e+02 1.916382e-39
5.670000e+02 2.428904e-39
5.680000e+02 3.075882e-39
5.690000e+02 3.891900e-39
5.700000e+02 4.920266e-39
5.710000e+02 6.215155e-39
5.720000e+02 7.844298e-39
5.730000e+02 9.892286e-39
5.740000e+02 1.246469e-38
5.750000e+02 1.569317e-38
5.760000e+02 1.974177e-38
5.770000e+02 2.481472e-38
5.780000e+02 3.116611e-38
5.790000e+02 3.911175e-38
5.800000e+02 4.904396e-38
5.810000e+02 6.144958e-38
5.820000e+02 7.693243e-38
5.830000e+02 9.624070e-38
5.840000e+02 1.203008e-37
5.850000e+02 1.502591e-37
5.860000e+02 1.875328e-37
5.870000e+02 2.338725e-37
5.880000e+02 2.914398e-37
5.890000e+02 3.629006e-37
5.900000e+02 4.515412e-37
5.910000e+02 5.614095e-37
5.920000e+02 6.974874e-37
5.930000e+02 8.659022e-37
5.940000e+02 1.074185e-36
5.950000e+02 1.331583e-36
5.960000e+02 1.649447e-36
5.970000e+02 2.041695e-36
5.980000e+02 2.525384e-36
5.990000e+02 3.121402e-36
6.000000e+02 3.855308e-36
6.010000e+02 4.758360e-36
6.020000e+02 5.868754e-36
6.030000e+02 7.233132e-36
6.040000e+02 8.908413e-36
6.050000e+02 1.096400e-35
6.060000e+02 1.348449e-35
6.070000e+02 1.657288e-35
6.080000e+02 2.035452e-35
6.090000e+02 2.498186e-35
6.100000e+02 3.064017e-35
6.110000e+02 3.755445e-35
6.120000e+02 4.599780e-35
6.130000e+02 5.630146e-35
6.140000e+02 6.886689e-35
6.150000e+02 8.418041e-35
6.160000e+02 1.028307e-34
6.170000e+02 1.255299e-34
6.180000e+02 1.531388e-34
6.190000e+02 1.866977e-34
6.200000e+02 2.274622e-34
6.210000e+02 2.769477e-34
6.220000e+02 3.369813e-34
6.230000e+02 4.097647e-34
6.240000e+02 4.979499e-34
6.250000e+02 6.047282e-34
6.260000e+02 7.339386e-34
6.270000e+02 8.901955e-34
6.280000e+02 1.079043e-33
6.290000e+02 1.307136e-33
6.300000e+02 1.582460e-33
6.310000e+02 1.914593e-33
6.320000e+02 2.315009e-33
6.330000e+02 2.797454e-33
6.340000e+02 3.378381e-33
6.350000e+02 4.077469e-33
6.360000e+02 4.918249e-33
6.370000e+02 5.928834e-33
6.380000e+02 7.142797e-33
6.390000e+02 8.600207e-33
6.400000e+02 1.034885e-32
6.410000e+02 1.244570e-32
6.420000e+02 1.495862e-32
6.430000e+02 1.796842e-32
6.440000e+02 2.157128e-32
6.450000e+02 2.588158e-32
6.460000e+02 3.103525e-32
6.470000e+02 3.719382e-32
6.480000e+02 4.454906e-32
6.490000e+02 5.332853e-32
6.500000e+02 6.380214e-32
6.510000e+02 7.628979e-32
6.520000e+02 9.117051e-32
6.530000e+02 1.088930e-31
6.540000e+02 1.299885e-31
6.550000e+02 1.550850e-31
6.560000e+02 1.849252e-31
6.570000e+02 2.203862e-31
6.580000e+02 2.625042e-31
6.590000e+02 3.125019e-31
6.600000e+02 3.718215e-31
6.610000e+02 4.421637e-31
6.620000e+02 5.255321e-31
6.630000e+02 6.242869e-31
6.640000e+02 7.412062e-31
6.650000e+02 8.795585e-31
6.660000e+02 1.043187e-30
6.670000e+02 1.236610e-30
6.680000e+02 1.465133e-30
6.690000e+02 1.734988e-30
6.700000e+02 2.053487e-30
6.710000e+02 2.429206e-30
6.720000e+02 2.872201e-30
6.730000e+02 3.394253e-30
6.740000e+02 4.009162e-30
6.750000e+02 4.733082e-30
6.760000e+02 5.584912e-30
6.770000e+02 6.586757e-30
6.780000e+02 7.764452e-30
6.790000e+02 9.148183e-30
6.800000e+02 1.077320e-29
6.810000e+02 1.268064e-29
6.820000e+02 1.491852e-29
6.830000e+02 1.754279e-29
6.840000e+02 2.061869e-29
6.850000e+02 2.422223e-29
6.860000e+02 2.844190e-29
6.870000e+02 3.338071e-29
6.880000e+02 3.915846e-29
6.890000e+02 4.591450e-29
6.900000e+02 5.381078e-29
6.910000e+02 6.303541e-29
6.920000e+02 7.380687e-29
6.930000e+02 8.637870e-29
6.940000e+02 1.010451e-28
6.950000e+02 1.181472e-28
6.960000e+02 1.380803e-28
6.970000e+02 1.613026e-28
6.980000e+02 1.883446e-28
6.990000e+02 2.198203e-28
7.000000e+02 2.564404e-28
7.010000e+02 2.990264e-28
7.020000e+02 3.485284e-28
7.030000e+02 4.060441e-28
7.040000e+02 4.728413e-28
7.050000e+02 5.503836e-28
7.060000e+02 6.403604e-28
7.070000e+02 7.447201e-28
7.080000e+02 8.657093e-28
7.090000e+02 1.005917e-27
7.100000e+02 1.168328e-27
7.110000e+02 1.356375e-27
7.120000e+02 1.574014e-27
7.130000e+02 1.825795e-27
7.140000e+02 2.116949e-27
7.150000e+02 2.453493e-27
7.160000e+02 2.842341e-27
7.170000e+02 3.291432e-27
7.180000e+02 3.809887e-27
7.190000e+02 4.408170e-27
7.200000e+02 5.098288e-27
7.210000e+02 5.894012e-27
7.220000e+02 6.811128e-27
7.230000e+02 7.867724e-27
7.240000e+02 9.084521e-27
7.250000e+02 1.048524e-26
7.260000e+02 1.209705e-26
7.270000e+02 1.395100e-26
7.280000e+02 1.608263e-26
7.290000e+02 1.853255e-26
7.300000e+02 2.134718e-26
7.310000e+02 2.457954e-26
7.320000e+02 2.829018e-26
7.330000e+02 3.254820e-26
7.340000e+02 3.743245e-26
7.350000e+02 4.303287e-26
7.360000e+02 4.945200e-26
7.370000e+02 5.680669e-26
7.380000e+02 6.523008e-26
7.390000e+02 7.487380e-26
7.400000e+02 8.591046e-26
7.410000e+02 9.853649e-26
7.420000e+02 1.129753e-25
7.430000e+02 1.294811e-25
7.440000e+02 1.483426e-25
7.450000e+02 1.698882e-25
7.460000e+02 1.944906e-25
7.470000e+02 2.225731e-25
7.480000e+02 2.546164e-25
7.490000e+02 2.911657e-25
7.500000e+02 3.328395e-25
7.510000e+02 3.803391e-25
7.520000e+02 4.344593e-25
7.530000e+02 4.961008e-25
7.540000e+02 5.662838e-25
7.550000e+02 6.461632e-25
7.560000e+02 7.370466e-25
7.570000e+02 8.404133e-25
7.580000e+02 9.579364e-25
7.590000e+02 1.091508e-24
7.600000e+02 1.243266e-24
7.610000e+02 1.415628e-24
7.620000e+02 1.611321e-24
7.630000e+02 1.833429e-24
7.640000e+02 2.085430e-24
7.650000e+02 2.371250e-24
7.660000e+02 2.695315e-24
7.670000e+02 3.062619e-24
7.680000e+02 3.478790e-24
7.690000e+02 3.950171e-24
7.700000e+02 4.483906e-24
7.710000e+02 5.088043e-24
7.720000e+02 5.771639e-24
7.730000e+02 6.544888e-24
7.740000e+02 7.419260e-24
7.750000e+02 8.407653e-24
7.760000e+02 9.524570e-24
7.770000e+02 1.078631e-23
7.780000e+02 1.221119e-23
7.790000e+02 1.381978e-23
7.800000e+02 1.563518e-23
7.810000e+02 1.768333e-23
7.820000e+02 1.999331e-23
7.830000e+02 2.259777e-23
7.840000e+02 2.553332e-23
7.850000e+02 2.884100e-23
7.860000e+02 3.256681e-23
7.870000e+02 3.676229e-23
7.880000e+02 4.148517e-23
7.890000e+02 4.680007e-23
7.900000e+02 5.277937e-23
7.910000e+02 5.950403e-23
7.920000e+02 6.706464e-23
7.930000e+02 7.556249e-23
7.940000e+02 8.511087e-23
7.950000e+02 9.583637e-23
7.960000e+02 1.078804e-22
7.970000e+02 1.214011e-22
7.980000e+02 1.365748e-22
7.990000e+02 1.535986e-22
8.000000e+02 1.726922e-22
8.010000e+02 1.941011e-22
8.020000e+02 2.180988e-22
8.030000e+02 2.449904e-22
8.040000e+02 2.751159e-22
8.050000e+02 3.088546e-22
8.060000e+02 3.466286e-22
8.070000e+02 3.889082e-22
8.080000e+02 4.362172e-22
8.090000e+02 4.891386e-22
8.100000e+02 5.483211e-22
8.110000e+02 6.144865e-22
8.120000e+02 6.884377e-22
8.130000e+02 7.710671e-22
8.140000e+02 8.633670e-22
8.150000e+02 9.664403e-22
8.160000e+02 1.081512e-21
8.170000e+02 1.209942e-21
8.180000e+02 1.353242e-21
8.190000e+02 1.513089e-21
8.200000e+02 1.691345e-21
8.210000e+02 1.890073e-21
8.220000e+02 2.111565e-21
8.230000e+02 2.358360e-21
8.240000e+02 2.633274e-21
8.250000e+02 2.939428e-21
8.260000e+02 3.280278e-21
8.270000e+02 3.659655e-21
8.280000e+02 4.081799e-21
8.290000e+02 4.551405e-21
8.300000e+02 5.073671e-21
8.310000e+02 5.654346e-21
8.320000e+02 6.299793e-21
8.330000e+02 7.017045e-21
8.340000e+02 7.813882e-21
8.350000e+02 8.698901e-21
8.360000e+02 9.681605e-21
8.370000e+02 1.077249e-20
8.380000e+02 1.198316e-20
8.390000e+02 1.332640e-20
8.400000e+02 1.481637e-20
8.410000e+02 1.646865e-20
8.420000e+02 1.830046e-20
8.430000e+02 2.033080e-20
8.440000e+02 2.258060e-20
8.450000e+02 2.507296e-20
8.460000e+02 2.783333e-20
8.470000e+02 3.088976e-20
8.480000e+02 3.427317e-20
8.490000e+02 3.801759e-20
8.500000e+02 4.216052e-20
8.510000e+02 4.674323e-20
8.520000e+02 5.181117e-20
8.530000e+02 5.741432e-20
8.540000e+02 6.360768e-20
8.550000e+02 7.045177e-20
8.560000e+02 7.801311e-20
8.570000e+02 8.636484e-20
8.580000e+02 9.558736e-20
8.590000e+02 1.057690e-19
8.600000e+02 1.170068e-19
8.610000e+02 1.294074e-19
8.620000e+02 1.430878e-19
8.630000e+02 1.581766e-19
8.640000e+02 1.748147e-19
8.650000e+02 1.931570e-19
8.660000e+02 2.133732e-19
8.670000e+02 2.356496e-19
8.680000e+02 2.601905e-19
8.690000e+02 2.872196e-19
8.700000e+02 3.169825e-19
8.710000e+02 3.497480e-19
8.720000e+02 3.858108e-19
8.730000e+02 4.254936e-19
8.740000e+02 4.691498e-19
8.750000e+02 5.171663e-19
8.760000e+02 5.699666e-19
8.770000e+02 6.280144e-19
8.780000e+02 6.918166e-19
8.790000e+02 7.619280e-19
8.800000e+02 8.389552e-19
8.810000e+02 9.235616e-19
8.820000e+02 1.016472e-18
8.830000e+02 1.118480e-18
8.840000e+02 1.230450e-18
8.850000e+02 1.353330e-18
8.860000e+02 1.488151e-18
8.870000e+02 1.636042e-18
8.880000e+02 1.798236e-18
8.890000e+02 1.976077e-18
8.900000e+02 2.171031e-18
8.910000e+02 2.384701e-18
8.920000e+02 2.618832e-18
8.930000e+02 2.875329e-18
8.940000e+02 3.156268e-18
8.950000e+02 3.463913e-18
8.960000e+02 3.800733e-18
8.970000e+02 4.169415e-18
8.980000e+02 4.572889e-18
8.990000e+02 5.014344e-18
9.000000e+02 5.497258e-18
9.010000e+02 6.025412e-18
9.020000e+02 6.602925e-18
9.030000e+02 7.234279e-18
9.040000e+02 7.924353e-18
9.050000e+02 8.678451e-18
9.060000e+02 9.502346e-18
9.070000e+02 1.040231e-17
9.080000e+02 1.138518e-17
9.090000e+02 1.245836e-17
9.100000e+02 1.362992e-17
9.110000e+02 1.490862e-17
9.120000e+02 1.630398e-17
9.130000e+02 1.782633e-17
9.140000e+02 2.059984e-17
9.150000e+02 2.263713e-14
9.160000e+02 1.581373e-13
9.170000e+02 5.845831e-14
9.180000e+02 3.035354e-14
9.190000e+02 4.923690e-13
9.200000e+02 1.571522e-12
9.210000e+02 3.614808e-17
9.220000e+02 2.446453e-12
9.230000e+02 1.457766e-14
9.240000e+02 1.641506e-13
9.250000e+02 1.952466e-12
9.260000e+02 5.111554e-14
9.270000e+02 1.896401e-13
9.280000e+02 1.331331e-11
9.290000e+02 1.245271e-11
9.300000e+02 2.250117e-12
9.310000e+02 4.511147e-14
9.320000e+02 9.879314e-12
9.330000e+02 2.277788e-11
9.340000e+02 1.316890e-11
9.350000e+02 3.894635e-14
9.360000e+02 1.224177e-12
9.370000e+02 9.501108e-15
9.380000e+02 1.227245e-14
9.390000e+02 2.538565e-12
9.400000e+02 3.057944e-11
9.410000e+02 4.866902e-13
9.420000e+02 5.766060e-11
9.430000e+02 8.875550e-12
9.440000e+02 6.766365e-11
9.450000e+02 6.718073e-11
9.460000e+02 4.993040e-11
9.470000e+02 5.491441e-14
9.480000e+02 8.542057e-12
9.490000e+02 1.346735e-12
9.500000e+02 8.134818e-15
9.510000e+02 9.183269e-12
9.520000e+02 4.320742e-11
9.530000e+02 2.218292e-12
9.540000e+02 6.841684e-14
9.550000e+02 1.830189e-11
9.560000e+02 2.649349e-11
9.570000e+02 4.021949e-12
9.580000e+02 1.557782e-14
9.590000e+02 1.824774e-10
9.600000e+02 7.743112e-14
9.610000e+02 1.956835e-10
9.620000e+02 1.339696e-10
9.630000e+02 7.171708e-12
9.640000e+02 2.101611e-12
9.650000e+02 2.637612e-13
9.660000e+02 3.345865e-11
9.670000e+02 3.557932e-12
9.680000e+02 2.574982e-12
9.690000e+02 7.267809e-11
9.700000e+02 7.403406e-11
9.710000e+02 4.061387e-12
9.720000e+02 2.872858e-13
9.730000e+02 3.596621e-13
9.740000e+02 1.863588e-11
9.750000e+02 4.668246e-11
9.760000e+02 2.477751e-10
9.770000e+02 3.553304e-10
9.780000e+02 3.704486e-10
9.790000e+02 6.480383e-10
9.800000e+02 7.403373e-10
9.810000e+02 4.055554e-10
9.820000e+02 9.019746e-11
9.830000e+02 9.874386e-10
9.840000e+02 2.244384e-11
9.850000e+02 2.011082e-10
9.860000e+02 1.674542e-10
9.870000e+02 1.293079e-09
9.880000e+02 1.134981e-12
9.890000e+02 1.215497e-09
9.900000e+02 1.198681e-09
9.910000e+02 1.093653e-10
9.920000e+02 1.141622e-13
9.930000e+02 1.254886e-09
9.940000e+02 3.996803e-14
9.950000e+02 5.584930e-11
9.960000e+02 8.211876e-12
9.970000e+02 1.641028e-12
9.980000e+02 2.287019e-09
9.990000e+02 1.433926e-10
1.000000e+03 3.099311e-09
1.001000e+03 2.717474e-09
1.002000e+03 3.515180e-09
1.003000e+03 1.459153e-10
1.004000e+03 1.724398e-12
1.005000e+03 8.826373e-10
1.006000e+03 4.223701e-09
1.007000e+03 4.560447e-09
1.008000e+03 4.432209e-09
1.009000e+03 1.126143e-10
1.010000e+03 4.563783e-09
1.011000e+03 4.626210e-09
1.012000e+03 5.246103e-09
1.013000e+03 5.356547e-09
1.014000e+03 6.683543e-13
1.015000e+03 4.587442e-12
1.016000e+03 7.504006e-10
1.017000e+03 3.121947e-13
1.018000e+03 2.208247e-10
1.019000e+03 4.388045e-12
1.020000e+03 3.369433e-09
1.021000e+03 9.957279e-11
1.022000e+03 4.086271e-10
1.023000e+03 2.547879e-11
1.024000e+03 1.360124e-10
1.025000e+03 2.059672e-13
1.026000e+03 2.591500e-13
1.027000e+03 6.967733e-11
1.028000e+03 5.068723e-12
1.029000e+03 8.686385e-13
1.030000e+03 2.584749e-09
1.031000e+03 8.931160e-09
1.032000e+03 1.294680e-08
1.033000e+03 1.077076e-10
1.034000e+03 1.390884e-08
1.035000e+03 1.964651e-12
1.036000e+03 4.543921e-12
1.037000e+03 7.135264e-08
1.038000e+03 9.979090e-08
1.039000e+03 1.016867e-07
1.040000e+03 8.861527e-08
1.041000e+03 1.138781e-07
1.042000e+03 1.553372e-07
1.043000e+03 7.730617e-08
1.044000e+03 1.962186e-07
1.045000e+03 3.652176e-12
1.046000e+03 1.220939e-07
1.047000e+03 9.431989e-08
1.048000e+03 7.476046e-10
1.049000e+03 8.971859e-08
1.050000e+03 9.799678e-09
1.051000e+03 3.110756e-09
1.052000e+03 3.196093e-07
1.053000e+03 3.585301e-07
1.054000e+03 7.673862e-12
1.055000e+03 2.561680e-07
1.056000e+03 3.837464e-07
1.057000e+03 1.913072e-07
1.058000e+03 5.296521e-09
1.059000e+03 1.850054e-09
1.060000e+03 7.700862e-10
1.061000e+03 4.739894e-07
1.062000e+03 2.607033e-09
1.063000e+03 2.429402e-10
1.064000e+03 4.376943e-12
1.065000e+03 1.153921e-11
1.066000e+03 2.725088e-08
1.067000e+03 6.049427e-09
1.068000e+03 8.046501e-07
1.069000e+03 9.788422e-10
1.070000e+03 1.016032e-07
1.071000e+03 8.062801e-07
1.072000e+03 1.012804e-06
1.073000e+03 6.320988e-11
1.074000e+03 5.576699e-07
1.075000e+03 4.255904e-07
1.076000e+03 2.670453e-07
1.077000e+03 6.515393e-10
1.078000e+03 9.326300e-09
1.079000e+03 8.849743e-08
1.080000e+03 3.182046e-07
1.081000e+03 1.471701e-06
1.082000e+03 1.193712e-06
1.083000e+03 8.620004e-07
1.084000e+03 1.525942e-06
1.085000e+03 1.483305e-07
1.086000e+03 2.061277e-06
1.087000e+03 1.732496e-08
1.088000e+03 2.278644e-06
1.089000e+03 2.371175e-06
1.090000e+03 1.425075e-07
1.091000e+03 3.306834e-07
1.092000e+03 1.771590e-06
1.093000e+03 2.571543e-06
1.094000e+03 1.169184e-06
1.095000e+03 3.240244e-06
1.096000e+03 4.169851e-08
1.097000e+03 3.349865e-06
1.098000e+03 3.047663e-06
1.099000e+03 4.035619e-07
1.100000e+03 2.024553e-09
1.101000e+03 8.077340e-09
1.102000e+03 5.097389e-07
1.103000e+03 4.714739e-06
1.104000e+03 4.991772e-06
1.105000e+03 5.205311e-06
1.106000e+03 1.945426e-06
1.107000e+03 8.898951e-09
1.108000e+03 5.689057e-06
1.109000e+03 2.356815e-07
1.110000e+03 5.924910e-06
1.111000e+03 5.915768e-06
1.112000e+03 5.587836e-06
1.113000e+03 4.745559e-06
1.114000e+03 2.422303e-06
1.115000e+03 1.525941e-07
1.116000e+03 2.744378e-08
1.117000e+03 8.903295e-06
1.118000e+03 4.452640e-07
1.119000e+03 6.257296e-06
1.120000e+03 8.359439e-08
1.121000e+03 1.014998e-05
1.122000e+03 9.589630e-06
1.123000e+03 1.714307e-05
1.124000e+03 2.257145e-05
1.125000e+03 1.773306e-05
1.126000e+03 1.648658e-05
1.127000e+03 1.523715e-05
1.128000e+03 1.249293e-05
1.129000e+03 1.049795e-05
1.130000e+03 1.238147e-05
1.131000e+03 9.315975e-06
1.132000e+03 1.256344e-07
1.133000e+03 3.691630e-06
1.134000e+03 9.770164e-06
1.135000e+03 6.233399e-06
1.136000e+03 4.129779e-06
1.137000e+03 7.267988e-06
1.138000e+03 8.549404e-06
1.139000e+03 9.347676e-06
1.140000e+03 8.927384e-06
1.141000e+03 7.994560e-06
1.142000e+03 9.043537e-06
1.143000e+03 6.941435e-06
1.144000e+03 8.458368e-06
1.145000e+03 8.634470e-08
1.146000e+03 9.400178e-06
1.147000e+03 9.484448e-06
1.148000e+03 1.430310e-06
1.149000e+03 9.247927e-06
1.150000e+03 9.166780e-06
1.151000e+03 9.119254e-06
1.152000e+03 8.726535e-06
1.153000e+03 8.735738e-06
1.154000e+03 8.367355e-06
1.155000e+03 8.329332e-06
1.156000e+03 5.782134e-06
1.157000e+03 7.957521e-06
1.158000e+03 7.601325e-06
1.159000e+03 8.086217e-06
1.160000e+03 7.786160e-06
1.161000e+03 7.398663e-06
1.162000e+03 3.262626e-06
1.163000e+03 5.626338e-06
1.164000e+03 1.570515e-08
1.165000e+03 4.029786e-06
1.166000e+03 2.020336e-06
1.167000e+03 1.298689e-06
1.168000e+03 8.612476e-06
1.169000e+03 8.770493e-06
1.170000e+03 1.409247e-06
1.171000e+03 3.695172e-06
1.172000e+03 2.962219e-06
1.173000e+03 2.487763e-06
1.174000e+03 6.368327e-07
1.175000e+03 1.645731e-08
1.176000e+03 2.837851e-09
1.177000e+03 1.182153e-05
1.178000e+03 1.109790e-05
1.179000e+03 1.052630e-05
1.180000e+03 9.705448e-06
1.181000e+03 9.443957e-06
1.182000e+03 9.156748e-06
1.183000e+03 8.702135e-06
1.184000e+03 8.405133e-06
1.185000e+03 8.096574e-06
1.186000e+03 2.741563e-06
1.187000e+03 7.623610e-06
1.188000e+03 7.367158e-06
1.189000e+03 7.301550e-06
1.190000e+03 7.110330e-06
1.191000e+03 6.734716e-06
1.192000e+03 6.066447e-06
1.193000e+03 6.064696e-06
1.194000e+03 5.858230e-06
1.195000e+03 5.615941e-06
1.196000e+03 1.525502e-04
1.197000e+03 1.396627e-04
1.198000e+03 2.491295e-05
1.199000e+03 1.122791e-04
1.200000e+03 5.644344e-05
1.201000e+03 8.357554e-05
1.202000e+03 6.855593e-05
1.203000e+03 5.779292e-05
1.204000e+03 3.627675e-05
1.205000e+03 3.575300e-05
1.206000e+03 2.675207e-05
1.207000e+03 2.876110e-06
1.208000e+03 1.174857e-05
1.209000e+03 8.528002e-06
1.210000e+03 2.578918e-08
1.211000e+03 3.019548e-06
1.212000e+03 1.532528e-06
1.213000e+03 6.311994e-07
1.214000e+03 1.492518e-07
1.215000e+03 1.158438e-08
1.216000e+03 9.545452e-09
1.217000e+03 8.347581e-08
1.218000e+03 5.176017e-07
1.219000e+03 1.566807e-06
1.220000e+03 3.508284e-06
1.221000e+03 6.746405e-06
1.222000e+03 1.243417e-05
1.223000e+03 2.033822e-05
1.224000e+03 2.989700e-05
1.225000e+03 2.409068e-05
1.226000e+03 6.872254e-05
1.227000e+03 9.688468e-05
1.228000e+03 1.213900e-04
1.229000e+03 1.716914e-04
1.230000e+03 5.710324e-05
1.231000e+03 1.445774e-04
1.232000e+03 3.232755e-04
1.233000e+03 3.893432e-04
1.234000e+03 3.814410e-04
1.235000e+03 5.299960e-04
1.236000e+03 5.224351e-04
1.237000e+03 6.833588e-04
1.238000e+03 7.660683e-04
1.239000e+03 8.156568e-04
1.240000e+03 6.431824e-05
1.241000e+03 8.871639e-04
1.242000e+03 1.107087e-03
1.243000e+03 1.200961e-03
1.244000e+03 1.302145e-03
1.245000e+03 1.335998e-03
1.246000e+03 1.446786e-03
1.247000e+03 1.525055e-03
1.248000e+03 6.391901e-04
1.249000e+03 1.685610e-03
1.250000e+03 1.621369e-03
1.251000e+03 1.957476e-03
1.252000e+03 1.861576e-03
1.253000e+03 2.083558e-03
1.254000e+03 2.041476e-03
1.255000e+03 2.321299e-04
1.256000e+03 1.860642e-03
1.257000e+03 1.197455e-03
1.258000e+03 1.940736e-03
1.259000e+03 2.350282e-03
1.260000e+03 2.464487e-03
1.261000e+03 3.939494e-05
1.262000e+03 2.564077e-03
1.263000e+03 1.840521e-03
1.264000e+03 2.416699e-03
1.265000e+03 2.465929e-03
1.266000e+03 3.225685e-03
1.267000e+03 3.513623e-03
