# wavelength_A flux
5.000000e+02 5.839208e-36
5.010000e+02 7.522937e-36
5.020000e+02 9.682209e-36
5.030000e+02 1.244852e-35
5.040000e+02 1.598895e-35
5.050000e+02 2.078761e-35
5.060000e+02 2.663759e-35
5.070000e+02 3.409451e-35
5.080000e+02 4.360543e-35
5.090000e+02 5.570859e-35
5.100000e+02 7.020285e-35
5.110000e+02 9.066187e-35
5.120000e+02 1.154743e-34
5.130000e+02 1.469804e-34
5.140000e+02 1.868780e-34
5.150000e+02 2.373805e-34
5.160000e+02 3.012470e-34
5.170000e+02 3.819497e-34
5.180000e+02 4.838168e-34
5.190000e+02 6.122871e-34
5.200000e+02 7.741604e-34
5.210000e+02 9.779356e-34
5.220000e+02 1.234130e-33
5.230000e+02 1.556289e-33
5.240000e+02 1.960640e-33
5.250000e+02 2.467838e-33
5.260000e+02 3.103489e-33
5.270000e+02 3.899428e-33
5.280000e+02 4.895203e-33
5.290000e+02 6.139908e-33
5.300000e+02 7.694430e-33
5.310000e+02 9.634221e-33
5.320000e+02 1.205270e-32
5.330000e+02 1.506543e-32
5.340000e+02 1.881527e-32
5.350000e+02 2.347862e-32
5.360000e+02 2.927312e-32
5.370000e+02 3.632079e-32
5.380000e+02 4.539214e-32
5.390000e+02 5.645469e-32
5.400000e+02 7.015543e-32
5.410000e+02 8.710884e-32
5.420000e+02 1.080741e-31
5.430000e+02 1.339754e-31
5.440000e+02 1.659509e-31
5.450000e+02 2.053938e-31
5.460000e+02 2.540095e-31
5.470000e+02 3.138842e-31
5.480000e+02 3.875679e-31
5.490000e+02 4.781749e-31
5.500000e+02 5.895059e-31
5.510000e+02 7.261957e-31
5.520000e+02 8.938925e-31
5.530000e+02 1.099473e-30
5.540000e+02 1.351305e-30
5.550000e+02 1.659564e-30
5.560000e+02 2.036608e-30
5.570000e+02 2.497445e-30
5.580000e+02 3.060277e-30
5.590000e+02 3.747175e-30
5.600000e+02 4.584873e-30
5.610000e+02 5.605731e-30
5.620000e+02 6.848896e-30
5.630000e+02 8.361688e-30
5.640000e+02 1.020127e-29
5.650000e+02 1.243663e-29
5.660000e+02 1.515099e-29
5.670000e+02 1.844469e-29
5.680000e+02 2.243855e-29
5.690000e+02 2.727804e-29
5.700000e+02 3.313812e-29
5.710000e+02 4.022913e-29
5.720000e+02 4.880374e-29
5.730000e+02 5.916527e-29
5.740000e+02 7.167756e-29
5.750000e+02 8.677685e-29
5.760000e+02 1.049859e-28
5.770000e+02 1.269305e-28
5.780000e+02 1.533588e-28
5.790000e+02 1.851662e-28
5.800000e+02 2.234223e-28
5.810000e+02 2.694044e-28
5.820000e+02 3.246366e-28
5.830000e+02 3.909361e-28
5.840000e+02 4.704487e-28
5.850000e+02 5.658158e-28
5.860000e+02 6.800588e-28
5.870000e+02 8.168378e-28
5.880000e+02 9.805016e-28
5.890000e+02 1.176212e-27
5.900000e+02 1.410097e-27
5.910000e+02 1.689430e-27
5.920000e+02 2.022834e-27
5.930000e+02 2.420531e-27
5.940000e+02 2.894629e-27
5.950000e+02 3.459460e-27
5.960000e+02 4.131979e-27
5.970000e+02 4.932234e-27
5.980000e+02 5.883915e-27
5.990000e+02 7.014997e-27
6.000000e+02 8.358500e-27
6.010000e+02 9.953372e-27
6.020000e+02 1.184553e-26
6.030000e+02 1.408907e-26
6.040000e+02 1.674769e-26
6.050000e+02 1.989637e-26
6.060000e+02 2.362328e-26
6.070000e+02 2.803207e-26
6.080000e+02 3.324452e-26
6.090000e+02 3.940361e-26
6.100000e+02 4.667716e-26
6.110000e+02 5.526197e-26
6.120000e+02 6.538877e-26
6.130000e+02 7.732784e-26
6.140000e+02 9.139572e-26
6.150000e+02 1.079628e-25
6.160000e+02 1.274624e-25
6.170000e+02 1.504010e-25
6.180000e+02 1.773705e-25
6.190000e+02 2.090619e-25
6.200000e+02 2.462820e-25
6.210000e+02 2.899719e-25
6.220000e+02 3.412287e-25
6.230000e+02 4.013311e-25
6.240000e+02 4.717685e-25
6.250000e+02 5.542743e-25
6.260000e+02 6.508661e-25
6.270000e+02 7.638895e-25
6.280000e+02 8.960713e-25
6.290000e+02 1.050579e-24
6.300000e+02 1.231092e-24
6.310000e+02 1.441833e-24
6.320000e+02 1.687890e-24
6.330000e+02 1.974868e-24
6.340000e+02 2.309467e-24
6.350000e+02 2.699390e-24
6.360000e+02 3.153565e-24
6.370000e+02 3.682310e-24
6.380000e+02 4.297567e-24
6.390000e+02 5.013139e-24
6.400000e+02 5.844974e-24
6.410000e+02 6.811490e-24
6.420000e+02 7.933950e-24
6.430000e+02 9.236887e-24
6.440000e+02 1.074859e-23
6.450000e+02 1.250167e-23
6.460000e+02 1.453371e-23
6.470000e+02 1.688797e-23
6.480000e+02 1.961427e-23
6.490000e+02 2.276991e-23
6.500000e+02 2.642082e-23
6.510000e+02 3.064274e-23
6.520000e+02 3.552274e-23
6.530000e+02 4.116079e-23
6.540000e+02 4.767165e-23
6.550000e+02 5.518703e-23
6.560000e+02 6.385795e-23
6.570000e+02 7.385758e-23
6.580000e+02 8.538431e-23
6.590000e+02 9.866543e-23
6.600000e+02 1.139611e-22
6.610000e+02 1.315692e-22
6.620000e+02 1.518302e-22
6.630000e+02 1.751336e-22
6.640000e+02 2.019247e-22
6.650000e+02 2.327117e-22
6.660000e+02 2.680757e-22
6.670000e+02 3.086792e-22
6.680000e+02 3.552786e-22
6.690000e+02 4.087365e-22
6.700000e+02 4.700361e-22
6.710000e+02 5.402980e-22
6.720000e+02 6.207985e-22
6.730000e+02 7.129909e-22
6.740000e+02 8.185290e-22
6.750000e+02 9.392945e-22
6.760000e+02 1.077427e-21
6.770000e+02 1.235360e-21
6.780000e+02 1.415855e-21
6.790000e+02 1.622053e-21
6.800000e+02 1.857518e-21
6.810000e+02 2.126295e-21
6.820000e+02 2.432973e-21
6.830000e+02 2.782755e-21
6.840000e+02 3.181540e-21
6.850000e+02 3.636013e-21
6.860000e+02 4.153745e-21
6.870000e+02 4.743308e-21
6.880000e+02 5.414405e-21
6.890000e+02 6.178011e-21
6.900000e+02 7.046542e-21
6.910000e+02 8.034030e-21
6.920000e+02 9.156338e-21
6.930000e+02 1.043138e-20
6.940000e+02 1.187939e-20
6.950000e+02 1.352319e-20
6.960000e+02 1.538857e-20
6.970000e+02 1.750459e-20
6.980000e+02 1.990402e-20
6.990000e+02 2.262380e-20
7.000000e+02 2.570555e-20
7.010000e+02 2.919616e-20
7.020000e+02 3.314840e-20
7.030000e+02 3.762167e-20
7.040000e+02 4.268282e-20
7.050000e+02 4.840701e-20
7.060000e+02 5.487874e-20
7.070000e+02 6.219302e-20
7.080000e+02 7.045653e-20
7.090000e+02 7.978913e-20
7.100000e+02 9.032536e-20
7.110000e+02 1.022162e-19
7.120000e+02 1.156312e-19
7.130000e+02 1.307602e-19
7.140000e+02 1.478162e-19
7.150000e+02 1.670382e-19
7.160000e+02 1.886934e-19
7.170000e+02 2.130815e-19
7.180000e+02 2.405379e-19
7.190000e+02 2.714381e-19
7.200000e+02 3.062019e-19
7.210000e+02 3.452994e-19
7.220000e+02 3.892556e-19
7.230000e+02 4.386579e-19
7.240000e+02 4.941621e-19
7.250000e+02 5.565012e-19
7.260000e+02 6.264934e-19
7.270000e+02 7.050522e-19
7.280000e+02 7.931968e-19
7.290000e+02 8.920645e-19
7.300000e+02 1.002923e-18
7.310000e+02 1.127187e-18
7.320000e+02 1.266430e-18
7.330000e+02 1.422410e-18
7.340000e+02 1.597080e-18
7.350000e+02 1.792618e-18
7.360000e+02 2.011447e-18
7.370000e+02 2.256262e-18
7.380000e+02 2.530063e-18
7.390000e+02 2.836185e-18
7.400000e+02 3.178336e-18
7.410000e+02 3.560636e-18
7.420000e+02 3.987662e-18
7.430000e+02 4.464501e-18
7.440000e+02 4.996795e-18
7.450000e+02 5.590814e-18
7.460000e+02 6.253509e-18
7.470000e+02 6.992595e-18
7.480000e+02 7.816628e-18
7.490000e+02 8.735090e-18
7.500000e+02 9.758495e-18
7.510000e+02 1.089849e-17
7.520000e+02 1.216797e-17
7.530000e+02 1.358124e-17
7.540000e+02 1.515409e-17
7.550000e+02 1.690405e-17
7.560000e+02 1.885047e-17
7.570000e+02 2.101477e-17
7.580000e+02 2.342065e-17
7.590000e+02 2.609428e-17
7.600000e+02 2.906461e-17
7.610000e+02 3.236360e-17
7.620000e+02 3.602656e-17
7.630000e+02 4.009249e-17
7.640000e+02 4.460442e-17
7.650000e+02 4.960987e-17
7.660000e+02 5.516123e-17
7.670000e+02 6.131630e-17
7.680000e+02 6.813882e-17
7.690000e+02 7.569906e-17
7.700000e+02 8.407443e-17
7.710000e+02 9.335026e-17
7.720000e+02 1.036205e-16
7.730000e+02 1.149887e-16
7.740000e+02 1.275686e-16
7.750000e+02 1.414858e-16
7.760000e+02 1.568780e-16
7.770000e+02 1.738971e-16
7.780000e+02 1.927100e-16
7.790000e+02 2.135000e-16
7.800000e+02 2.364688e-16
7.810000e+02 2.618379e-16
7.820000e+02 2.898508e-16
7.830000e+02 3.207748e-16
7.840000e+02 3.549034e-16
7.850000e+02 3.925587e-16
7.860000e+02 4.340943e-16
7.870000e+02 4.798982e-16
7.880000e+02 5.303957e-16
7.890000e+02 5.860536e-16
7.900000e+02 6.473832e-16
7.910000e+02 7.149451e-16
7.920000e+02 7.893538e-16
7.930000e+02 8.712821e-16
7.940000e+02 9.614671e-16
7.950000e+02 1.060716e-15
7.960000e+02 1.169911e-15
7.970000e+02 1.290021e-15
7.980000e+02 1.422102e-15
7.990000e+02 1.567311e-15
8.000000e+02 1.726914e-15
8.010000e+02 1.902295e-15
8.020000e+02 2.094965e-15
8.030000e+02 2.306577e-15
8.040000e+02 2.538937e-15
8.050000e+02 2.794015e-15
8.060000e+02 3.073967e-15
8.070000e+02 3.381143e-15
8.080000e+02 3.718110e-15
8.090000e+02 4.087667e-15
8.100000e+02 4.492870e-15
8.110000e+02 4.937052e-15
8.120000e+02 5.423846e-15
8.130000e+02 5.957215e-15
8.140000e+02 6.541477e-15
8.150000e+02 7.181339e-15
8.160000e+02 7.881927e-15
8.170000e+02 8.648826e-15
8.180000e+02 9.488118e-15
8.190000e+02 1.040642e-14
8.200000e+02 1.141095e-14
8.210000e+02 1.250954e-14
8.220000e+02 1.371074e-14
8.230000e+02 1.502381e-14
8.240000e+02 1.645886e-14
8.250000e+02 1.802687e-14
8.260000e+02 1.973976e-14
8.270000e+02 2.161051e-14
8.280000e+02 2.365320e-14
8.290000e+02 2.588314e-14
8.300000e+02 2.831696e-14
8.310000e+02 3.097272e-14
8.320000e+02 3.387000e-14
8.330000e+02 3.703008e-14
8.340000e+02 4.047605e-14
8.350000e+02 4.423295e-14
8.360000e+02 4.832795e-14
8.370000e+02 5.279051e-14
8.380000e+02 5.765257e-14
8.390000e+02 6.294877e-14
8.400000e+02 6.871663e-14
8.410000e+02 7.499681e-14
8.420000e+02 8.183338e-14
8.430000e+02 8.927404e-14
8.440000e+02 9.737048e-14
8.450000e+02 1.061786e-13
8.460000e+02 1.157591e-13
8.470000e+02 1.261773e-13
8.480000e+02 1.375043e-13
8.490000e+02 1.498167e-13
8.500000e+02 1.631976e-13
8.510000e+02 1.777365e-13
8.520000e+02 1.935307e-13
8.530000e+02 2.106848e-13
8.540000e+02 2.293122e-13
8.550000e+02 2.495354e-13
8.560000e+02 2.714866e-13
8.570000e+02 2.953087e-13
8.580000e+02 3.211559e-13
8.590000e+02 3.491949e-13
8.600000e+02 3.796054e-13
8.610000e+02 4.125814e-13
8.620000e+02 4.483324e-13
8.630000e+02 4.870841e-13
8.640000e+02 5.290803e-13
8.650000e+02 5.745836e-13
8.660000e+02 6.238774e-13
8.670000e+02 6.772671e-13
8.680000e+02 7.350816e-13
8.690000e+02 7.976758e-13
8.700000e+02 8.654317e-13
8.710000e+02 9.387610e-13
8.720000e+02 1.018107e-12
8.730000e+02 1.103947e-12
8.740000e+02 1.196795e-12
8.750000e+02 1.297204e-12
8.760000e+02 1.405769e-12
8.770000e+02 1.523131e-12
8.780000e+02 1.649979e-12
8.790000e+02 1.787054e-12
8.800000e+02 1.935154e-12
8.810000e+02 2.095135e-12
8.820000e+02 2.267918e-12
8.830000e+02 2.454495e-12
8.840000e+02 2.655928e-12
8.850000e+02 2.873362e-12
8.860000e+02 3.108025e-12
8.870000e+02 3.361236e-12
8.880000e+02 3.634412e-12
8.890000e+02 3.929074e-12
8.900000e+02 4.246855e-12
8.910000e+02 4.589508e-12
8.920000e+02 4.958913e-12
8.930000e+02 5.357088e-12
8.940000e+02 5.786199e-12
8.950000e+02 6.248567e-12
8.960000e+02 6.746683e-12
8.970000e+02 7.283217e-12
8.980000e+02 7.861029e-12
8.990000e+02 8.483188e-12
9.000000e+02 9.152982e-12
9.010000e+02 9.873934e-12
9.020000e+02 1.064982e-11
9.030000e+02 1.148467e-11
9.040000e+02 1.238283e-11
9.050000e+02 1.334893e-11
9.060000e+02 1.438792e-11
9.070000e+02 1.550512e-11
9.080000e+02 1.670623e-11
9.090000e+02 1.799731e-11
9.100000e+02 1.938488e-11
9.110000e+02 2.087590e-11
9.120000e+02 2.247781e-11
9.130000e+02 2.419859e-11
9.140000e+02 2.939055e-11
9.150000e+02 5.130380e-09
9.160000e+02 1.967872e-08
9.170000e+02 1.537629e-10
9.180000e+02 6.611054e-09
9.190000e+02 5.024811e-08
9.200000e+02 1.054710e-07
9.210000e+02 4.339906e-11
9.220000e+02 1.929074e-08
9.230000e+02 2.452118e-10
9.240000e+02 2.080043e-10
9.250000e+02 2.598206e-09
9.260000e+02 9.165385e-09
9.270000e+02 2.299083e-10
9.280000e+02 3.626465e-07
9.290000e+02 4.087745e-07
9.300000e+02 1.544434e-07
9.310000e+02 4.471610e-10
9.320000e+02 3.821832e-07
9.330000e+02 1.539678e-08
9.340000e+02 4.128083e-09
9.350000e+02 3.214654e-09
9.360000e+02 7.927446e-10
9.370000e+02 2.922109e-10
9.380000e+02 2.132391e-09
9.390000e+02 2.710255e-09
9.400000e+02 1.613188e-07
9.410000e+02 3.177887e-08
9.420000e+02 1.163517e-06
9.430000e+02 4.033296e-09
9.440000e+02 1.294046e-06
9.450000e+02 1.030136e-06
9.460000e+02 5.143828e-08
9.470000e+02 2.806129e-10
9.480000e+02 3.331093e-07
9.490000e+02 1.212401e-07
9.500000e+02 6.191250e-09
9.510000e+02 6.669321e-08
9.520000e+02 1.305655e-07
9.530000e+02 1.180874e-09
9.540000e+02 4.384873e-10
9.550000e+02 9.422365e-09
9.560000e+02 7.978117e-07
9.570000e+02 5.707861e-09
9.580000e+02 5.671001e-10
9.590000e+02 2.043224e-07
9.600000e+02 1.215229e-08
9.610000e+02 9.185862e-08
9.620000e+02 3.576879e-08
9.630000e+02 5.177867e-09
9.640000e+02 1.919368e-09
9.650000e+02 9.563337e-10
9.660000e+02 1.074642e-08
9.670000e+02 2.240512e-09
9.680000e+02 1.810406e-09
9.690000e+02 5.213977e-08
9.700000e+02 1.181807e-07
9.710000e+02 3.872543e-09
9.720000e+02 2.042597e-09
9.730000e+02 5.391128e-08
9.740000e+02 1.181928e-07
9.750000e+02 2.659943e-08
9.760000e+02 1.076281e-06
9.770000e+02 4.218527e-07
9.780000e+02 1.928250e-07
9.790000e+02 6.572651e-06
9.800000e+02 3.787200e-06
9.810000e+02 1.038356e-07
9.820000e+02 2.197254e-08
9.830000e+02 2.978971e-06
9.840000e+02 6.372060e-07
9.850000e+02 4.933064e-08
9.860000e+02 8.637539e-08
9.870000e+02 2.434894e-06
9.880000e+02 4.109211e-09
9.890000e+02 5.880686e-07
9.900000e+02 2.033172e-06
9.910000e+02 2.950663e-08
9.920000e+02 5.048491e-09
9.930000e+02 1.022131e-05
9.940000e+02 1.366001e-08
9.950000e+02 6.279894e-07
9.960000e+02 9.575047e-09
9.970000e+02 2.180675e-06
9.980000e+02 2.400193e-06
9.990000e+02 4.724645e-08
1.000000e+03 2.326237e-05
1.001000e+03 1.744075e-05
1.002000e+03 9.722039e-06
1.003000e+03 4.592766e-08
1.004000e+03 1.060107e-08
1.005000e+03 1.775170e-07
1.006000e+03 7.072243e-06
1.007000e+03 1.379169e-05
1.008000e+03 4.065891e-06
1.009000e+03 7.407639e-08
1.010000e+03 3.709257e-06
1.011000e+03 3.765268e-06
1.012000e+03 6.186150e-06
1.013000e+03 6.203777e-06
1.014000e+03 1.915487e-08
1.015000e+03 2.058232e-08
1.016000e+03 2.894667e-07
1.017000e+03 2.286833e-08
1.018000e+03 7.568588e-08
1.019000e+03 2.576780e-08
1.020000e+03 1.102577e-05
1.021000e+03 2.029938e-07
1.022000e+03 2.730467e-07
1.023000e+03 3.458354e-08
1.024000e+03 6.511593e-06
1.025000e+03 3.648682e-08
1.026000e+03 6.679914e-08
1.027000e+03 1.211416e-06
1.028000e+03 4.008416e-07
1.029000e+03 4.595768e-08
1.030000e+03 8.599563e-07
1.031000e+03 2.535373e-06
1.032000e+03 2.917417e-05
1.033000e+03 2.435112e-06
1.034000e+03 2.740009e-06
1.035000e+03 3.531059e-07
1.036000e+03 6.851769e-08
1.037000e+03 1.748195e-05
1.038000e+03 9.481560e-05
1.039000e+03 2.065464e-05
1.040000e+03 1.256640e-05
1.041000e+03 7.026665e-05
1.042000e+03 6.018090e-05
1.043000e+03 8.218145e-05
1.044000e+03 2.783586e-04
1.045000e+03 2.393628e-07
1.046000e+03 1.469565e-05
1.047000e+03 9.082840e-06
1.048000e+03 2.320867e-07
1.049000e+03 7.337948e-06
1.050000e+03 1.927965e-06
1.051000e+03 1.156906e-06
1.052000e+03 9.446277e-05
1.053000e+03 1.263690e-04
1.054000e+03 1.865446e-07
1.055000e+03 1.549975e-04
1.056000e+03 1.833065e-04
1.057000e+03 2.691377e-05
1.058000e+03 1.063639e-06
1.059000e+03 1.619876e-06
1.060000e+03 4.023605e-07
1.061000e+03 5.075044e-05
1.062000e+03 6.719658e-07
1.063000e+03 4.563624e-05
1.064000e+03 5.976763e-07
1.065000e+03 3.381065e-07
1.066000e+03 7.759308e-05
1.067000e+03 1.178606e-06
1.068000e+03 4.452175e-04
1.069000e+03 4.797466e-07
1.070000e+03 9.742507e-06
1.071000e+03 1.256463e-04
1.072000e+03 6.779040e-04
1.073000e+03 5.169422e-07
1.074000e+03 3.584200e-05
1.075000e+03 2.148922e-05
1.076000e+03 7.474509e-04
1.077000e+03 1.407519e-06
1.078000e+03 1.916371e-06
1.079000e+03 7.999906e-06
1.080000e+03 3.910242e-05
1.081000e+03 1.964513e-04
1.082000e+03 1.062059e-04
1.083000e+03 5.668303e-05
1.084000e+03 1.921749e-03
1.085000e+03 1.447223e-05
1.086000e+03 8.921933e-04
1.087000e+03 3.371038e-06
1.088000e+03 1.893128e-03
1.089000e+03 2.241073e-03
1.090000e+03 1.197353e-05
1.091000e+03 1.956010e-05
1.092000e+03 1.871423e-03
1.093000e+03 2.839190e-03
1.094000e+03 1.183363e-04
1.095000e+03 3.772255e-03
1.096000e+03 9.810858e-04
1.097000e+03 9.106556e-04
1.098000e+03 2.952881e-03
1.099000e+03 4.211115e-05
1.100000e+03 2.132569e-06
1.101000e+03 3.244171e-06
1.102000e+03 3.400987e-05
1.103000e+03 4.291237e-03
1.104000e+03 3.746619e-03
1.105000e+03 4.590417e-03
1.106000e+03 1.541356e-04
1.107000e+03 3.290013e-06
1.108000e+03 1.031926e-03
1.109000e+03 2.194848e-05
1.110000e+03 4.200734e-03
1.111000e+03 3.316858e-03
1.112000e+03 4.757682e-04
1.113000e+03 5.927490e-03
1.114000e+03 2.821875e-04
1.115000e+03 2.475211e-05
1.116000e+03 8.507246e-06
1.117000e+03 4.375910e-03
1.118000e+03 3.864651e-05
1.119000e+03 4.744191e-04
1.120000e+03 1.419033e-05
1.121000e+03 2.546917e-03
1.122000e+03 1.392541e-02
1.123000e+03 5.786206e-03
1.124000e+03 6.794629e-03
1.125000e+03 3.214440e-03
1.126000e+03 2.390827e-02
1.127000e+03 3.221205e-03
1.128000e+03 1.367637e-02
1.129000e+03 1.670765e-03
1.130000e+03 1.138975e-02
1.131000e+03 1.638496e-02
1.132000e+03 2.675655e-05
1.133000e+03 2.501868e-04
1.134000e+03 2.734074e-03
1.135000e+03 1.629340e-02
1.136000e+03 4.586759e-04
1.137000e+03 8.459313e-03
1.138000e+03 2.170091e-03
1.139000e+03 1.699973e-02
1.140000e+03 1.241189e-02
1.141000e+03 1.863013e-02
1.142000e+03 2.139496e-02
1.143000e+03 2.130833e-03
1.144000e+03 2.284237e-02
1.145000e+03 2.385490e-05
1.146000e+03 2.322786e-02
1.147000e+03 2.047362e-02
1.148000e+03 1.347167e-04
1.149000e+03 1.042010e-02
1.150000e+03 8.397156e-03
1.151000e+03 2.244384e-02
1.152000e+03 1.025651e-02
1.153000e+03 2.388271e-02
1.154000e+03 3.182682e-02
1.155000e+03 1.186070e-02
1.156000e+03 2.598431e-02
1.157000e+03 2.973568e-02
1.158000e+03 3.229953e-03
1.159000e+03 2.740521e-02
1.160000e+03 5.262738e-03
1.161000e+03 2.529671e-02
1.162000e+03 6.235959e-04
1.163000e+03 2.458710e-03
1.164000e+03 3.765877e-04
1.165000e+03 1.235427e-02
1.166000e+03 8.347356e-03
1.167000e+03 7.910250e-03
1.168000e+03 3.355393e-02
1.169000e+03 3.999843e-02
1.170000e+03 4.940958e-03
1.171000e+03 2.170115e-02
1.172000e+03 9.735232e-03
1.173000e+03 1.895985e-02
1.174000e+03 1.270412e-04
1.175000e+03 2.394333e-04
1.176000e+03 1.001647e-04
1.177000e+03 5.234677e-02
1.178000e+03 5.201481e-02
1.179000e+03 4.588814e-02
1.180000e+03 2.070078e-02
1.181000e+03 4.859844e-02
1.182000e+03 4.216486e-02
1.183000e+03 1.979046e-02
1.184000e+03 1.634262e-02
1.185000e+03 1.938748e-02
1.186000e+03 5.793073e-04
1.187000e+03 3.540758e-02
1.188000e+03 1.391960e-02
1.189000e+03 4.521815e-02
1.190000e+03 4.382752e-02
1.191000e+03 3.409066e-02
1.192000e+03 3.876807e-02
1.193000e+03 2.954244e-02
1.194000e+03 3.850129e-02
1.195000e+03 3.655108e-02
1.196000e+03 1.499979e-01
1.197000e+03 2.985822e-01
1.198000e+03 1.804203e-03
1.199000e+03 2.755410e-01
1.200000e+03 6.661482e-03
1.201000e+03 2.020992e-01
1.202000e+03 5.264949e-02
1.203000e+03 1.537437e-01
1.204000e+03 8.491926e-03
1.205000e+03 1.118712e-01
1.206000e+03 1.041349e-01
1.207000e+03 3.048324e-02
1.208000e+03 6.859212e-02
1.209000e+03 6.467233e-02
1.210000e+03 5.358644e-04
1.211000e+03 2.991346e-02
1.212000e+03 1.253527e-02
1.213000e+03 8.791020e-03
1.214000e+03 3.113533e-03
1.215000e+03 5.634687e-04
1.216000e+03 3.873277e-04
1.217000e+03 2.106412e-03
1.218000e+03 7.723673e-03
1.219000e+03 1.791542e-02
1.220000e+03 9.285815e-03
1.221000e+03 5.736325e-02
1.222000e+03 6.608447e-02
1.223000e+03 5.312415e-02
1.224000e+03 1.558106e-01
1.225000e+03 4.025340e-03
1.226000e+03 2.850747e-01
1.227000e+03 3.270318e-01
1.228000e+03 3.255758e-02
1.229000e+03 3.269873e-01
1.230000e+03 2.371696e-01
1.231000e+03 1.655281e-02
1.232000e+03 7.419688e-01
1.233000e+03 8.571836e-01
1.234000e+03 9.238791e-01
1.235000e+03 7.177728e-01
1.236000e+03 5.460590e-02
1.237000e+03 1.124836e+00
1.238000e+03 1.004793e+00
1.239000e+03 2.981196e-01
1.240000e+03 8.218092e-01
1.241000e+03 4.265988e-01
1.242000e+03 9.179128e-01
1.243000e+03 1.594847e+00
1.244000e+03 1.746948e+00
1.245000e+03 1.671911e+00
1.246000e+03 7.739033e-01
1.247000e+03 1.187852e+00
1.248000e+03 1.882786e+00
1.249000e+03 2.359154e+00
1.250000e+03 1.652443e+00
1.251000e+03 2.272187e+00
1.252000e+03 1.605124e+00
1.253000e+03 2.605983e+00
1.254000e+03 1.758777e+00
1.255000e+03 9.211472e-01
1.256000e+03 1.374115e+00
1.257000e+03 1.729769e+00
1.258000e+03 6.597571e-01
1.259000e+03 9.913213e-01
1.260000e+03 2.764224e+00
1.261000e+03 1.700242e-01
1.262000e+03 3.050308e+00
1.263000e+03 2.350495e+00
1.264000e+03 8.770497e-01
1.265000e+03 1.456215e+00
1.266000e+03 3.325994e+00
1.267000e+03 1.531186e+00
