# wavelength_A flux
5.000000e+02 6.470013e-30
5.010000e+02 8.107681e-30
5.020000e+02 1.015054e-29
5.030000e+02 1.269653e-29
5.040000e+02 1.586670e-29
5.050000e+02 1.982052e-29
5.060000e+02 2.472450e-29
5.070000e+02 3.081410e-29
5.080000e+02 3.836999e-29
5.090000e+02 4.773632e-29
5.100000e+02 5.931194e-29
5.110000e+02 7.369289e-29
5.120000e+02 9.144214e-29
5.130000e+02 1.133704e-28
5.140000e+02 1.404362e-28
5.150000e+02 1.738157e-28
5.160000e+02 2.149474e-28
5.170000e+02 2.655895e-28
5.180000e+02 3.278891e-28
5.190000e+02 4.044663e-28
5.200000e+02 4.985162e-28
5.210000e+02 6.139314e-28
5.220000e+02 7.554481e-28
5.230000e+02 9.288383e-28
5.240000e+02 1.141101e-27
5.250000e+02 1.400747e-27
5.260000e+02 1.718102e-27
5.270000e+02 2.105688e-27
5.280000e+02 2.578676e-27
5.290000e+02 3.155435e-27
5.300000e+02 3.858187e-27
5.310000e+02 4.713796e-27
5.320000e+02 5.754714e-27
5.330000e+02 7.020112e-27
5.340000e+02 8.557236e-27
5.350000e+02 1.042303e-26
5.360000e+02 1.268608e-26
5.370000e+02 1.542723e-26
5.380000e+02 1.875082e-26
5.390000e+02 2.277107e-26
5.400000e+02 2.763293e-26
5.410000e+02 3.350827e-26
5.420000e+02 4.060328e-26
5.430000e+02 4.916495e-26
5.440000e+02 5.948909e-26
5.450000e+02 7.192965e-26
5.460000e+02 8.690991e-26
5.470000e+02 1.049356e-25
5.480000e+02 1.266108e-25
5.490000e+02 1.526562e-25
5.500000e+02 1.839313e-25
5.510000e+02 2.214602e-25
5.520000e+02 2.664628e-25
5.530000e+02 3.203907e-25
5.540000e+02 3.849702e-25
5.550000e+02 4.622533e-25
5.560000e+02 5.546768e-25
5.570000e+02 6.651336e-25
5.580000e+02 7.970548e-25
5.590000e+02 9.545075e-25
5.600000e+02 1.142310e-24
5.610000e+02 1.366167e-24
5.620000e+02 1.632826e-24
5.630000e+02 1.950268e-24
5.640000e+02 2.327921e-24
5.650000e+02 2.776920e-24
5.660000e+02 3.310404e-24
5.670000e+02 3.943871e-24
5.680000e+02 4.695587e-24
5.690000e+02 5.587070e-24
5.700000e+02 6.643651e-24
5.710000e+02 7.895131e-24
5.720000e+02 9.376552e-24
5.730000e+02 1.112909e-23
5.740000e+02 1.320111e-23
5.750000e+02 1.564936e-23
5.760000e+02 1.854043e-23
5.770000e+02 2.195236e-23
5.780000e+02 2.597660e-23
5.790000e+02 3.072023e-23
5.800000e+02 3.630855e-23
5.810000e+02 4.288812e-23
5.820000e+02 5.063027e-23
5.830000e+02 5.973514e-23
5.840000e+02 7.043634e-23
5.850000e+02 8.300673e-23
5.860000e+02 9.776421e-23
5.870000e+02 1.150795e-22
5.880000e+02 1.353845e-22
5.890000e+02 1.591820e-22
5.900000e+02 1.870572e-22
5.910000e+02 2.196906e-22
5.920000e+02 2.578733e-22
5.930000e+02 3.025244e-22
5.940000e+02 3.547111e-22
5.950000e+02 4.156719e-22
5.960000e+02 4.868434e-22
5.970000e+02 5.698911e-22
5.980000e+02 6.667448e-22
5.990000e+02 7.796394e-22
6.000000e+02 9.111616e-22
6.010000e+02 1.064304e-21
6.020000e+02 1.242527e-21
6.030000e+02 1.449830e-21
6.040000e+02 1.690831e-21
6.050000e+02 1.970865e-21
6.060000e+02 2.296085e-21
6.070000e+02 2.673588e-21
6.080000e+02 3.111557e-21
6.090000e+02 3.619418e-21
6.100000e+02 4.208029e-21
6.110000e+02 4.889884e-21
6.120000e+02 5.679361e-21
6.130000e+02 6.592992e-21
6.140000e+02 7.649778e-21
6.150000e+02 8.871548e-21
6.160000e+02 1.028337e-20
6.170000e+02 1.191400e-20
6.180000e+02 1.379645e-20
6.190000e+02 1.596855e-20
6.200000e+02 1.847367e-20
6.210000e+02 2.136149e-20
6.220000e+02 2.468888e-20
6.230000e+02 2.852093e-20
6.240000e+02 3.293212e-20
6.250000e+02 3.800758e-20
6.260000e+02 4.384462e-20
6.270000e+02 5.055440e-20
6.280000e+02 5.826386e-20
6.290000e+02 6.711783e-20
6.300000e+02 7.728160e-20
6.310000e+02 8.894358e-20
6.320000e+02 1.023186e-19
6.330000e+02 1.176514e-19
6.340000e+02 1.352206e-19
6.350000e+02 1.553433e-19
6.360000e+02 1.783806e-19
6.370000e+02 2.047429e-19
6.380000e+02 2.348967e-19
6.390000e+02 2.693723e-19
6.400000e+02 3.087720e-19
6.410000e+02 3.537794e-19
6.420000e+02 4.051705e-19
6.430000e+02 4.638254e-19
6.440000e+02 5.307423e-19
6.450000e+02 6.070524e-19
6.460000e+02 6.940373e-19
6.470000e+02 7.931484e-19
6.480000e+02 9.060288e-19
6.490000e+02 1.034538e-18
6.500000e+02 1.180778e-18
6.510000e+02 1.347127e-18
6.520000e+02 1.536273e-18
6.530000e+02 1.751250e-18
6.540000e+02 1.995487e-18
6.550000e+02 2.272853e-18
6.560000e+02 2.587716e-18
6.570000e+02 2.945000e-18
6.580000e+02 3.350257e-18
6.590000e+02 3.809747e-18
6.600000e+02 4.330519e-18
6.610000e+02 4.920514e-18
6.620000e+02 5.588668e-18
6.630000e+02 6.345042e-18
6.640000e+02 7.200949e-18
6.650000e+02 8.169110e-18
6.660000e+02 9.263824e-18
6.670000e+02 1.050116e-17
6.680000e+02 1.189916e-17
6.690000e+02 1.347809e-17
6.700000e+02 1.526067e-17
6.710000e+02 1.727244e-17
6.720000e+02 1.954198e-17
6.730000e+02 2.210139e-17
6.740000e+02 2.498660e-17
6.750000e+02 2.823787e-17
6.760000e+02 3.190031e-17
6.770000e+02 3.602438e-17
6.780000e+02 4.066659e-17
6.790000e+02 4.589013e-17
6.800000e+02 5.176565e-17
6.810000e+02 5.837215e-17
6.820000e+02 6.579790e-17
6.830000e+02 7.414152e-17
6.840000e+02 8.351311e-17
6.850000e+02 9.403560e-17
6.860000e+02 1.058462e-16
6.870000e+02 1.190978e-16
6.880000e+02 1.339611e-16
6.890000e+02 1.506263e-16
6.900000e+02 1.693054e-16
6.910000e+02 1.902345e-16
6.920000e+02 2.136767e-16
6.930000e+02 2.399245e-16
6.940000e+02 2.693039e-16
6.950000e+02 3.021772e-16
6.960000e+02 3.389476e-16
6.970000e+02 3.800633e-16
6.980000e+02 4.260223e-16
6.990000e+02 4.773780e-16
7.000000e+02 5.347451e-16
7.010000e+02 5.988061e-16
7.020000e+02 6.703185e-16
7.030000e+02 7.501228e-16
7.040000e+02 8.391515e-16
7.050000e+02 9.384385e-16
7.060000e+02 1.049130e-15
7.070000e+02 1.172496e-15
7.080000e+02 1.309945e-15
7.090000e+02 1.463034e-15
7.100000e+02 1.633489e-15
7.110000e+02 1.823220e-15
7.120000e+02 2.034340e-15
7.130000e+02 2.269187e-15
7.140000e+02 2.530346e-15
7.150000e+02 2.820674e-15
7.160000e+02 3.143329e-15
7.170000e+02 3.501801e-15
7.180000e+02 3.899942e-15
7.190000e+02 4.342007e-15
7.200000e+02 4.832693e-15
7.210000e+02 5.377182e-15
7.220000e+02 5.981191e-15
7.230000e+02 6.651024e-15
7.240000e+02 7.393632e-15
7.250000e+02 8.216678e-15
7.260000e+02 9.128602e-15
7.270000e+02 1.013870e-14
7.280000e+02 1.125722e-14
7.290000e+02 1.249543e-14
7.300000e+02 1.386574e-14
7.310000e+02 1.538180e-14
7.320000e+02 1.705863e-14
7.330000e+02 1.891273e-14
7.340000e+02 2.096227e-14
7.350000e+02 2.322720e-14
7.360000e+02 2.572944e-14
7.370000e+02 2.849306e-14
7.380000e+02 3.154452e-14
7.390000e+02 3.491283e-14
7.400000e+02 3.862987e-14
7.410000e+02 4.273058e-14
7.420000e+02 4.725332e-14
7.430000e+02 5.224014e-14
7.440000e+02 5.773713e-14
7.450000e+02 6.379484e-14
7.460000e+02 7.046863e-14
7.470000e+02 7.781916e-14
7.480000e+02 8.591285e-14
7.490000e+02 9.482244e-14
7.500000e+02 1.046275e-13
7.510000e+02 1.154152e-13
7.520000e+02 1.272809e-13
7.530000e+02 1.403287e-13
7.540000e+02 1.546726e-13
7.550000e+02 1.704373e-13
7.560000e+02 1.877589e-13
7.570000e+02 2.067862e-13
7.580000e+02 2.276818e-13
7.590000e+02 2.506231e-13
7.600000e+02 2.758038e-13
7.610000e+02 3.034356e-13
7.620000e+02 3.337491e-13
7.630000e+02 3.669963e-13
7.640000e+02 4.034516e-13
7.650000e+02 4.434147e-13
7.660000e+02 4.872118e-13
7.670000e+02 5.351989e-13
7.680000e+02 5.877637e-13
7.690000e+02 6.453283e-13
7.700000e+02 7.083528e-13
7.710000e+02 7.773380e-13
7.720000e+02 8.528291e-13
7.730000e+02 9.354193e-13
7.740000e+02 1.025754e-12
7.750000e+02 1.124536e-12
7.760000e+02 1.232528e-12
7.770000e+02 1.350561e-12
7.780000e+02 1.479537e-12
7.790000e+02 1.620437e-12
7.800000e+02 1.774327e-12
7.810000e+02 1.942364e-12
7.820000e+02 2.125806e-12
7.830000e+02 2.326018e-12
7.840000e+02 2.544480e-12
7.850000e+02 2.782802e-12
7.860000e+02 3.042728e-12
7.870000e+02 3.326149e-12
7.880000e+02 3.635120e-12
7.890000e+02 3.971865e-12
7.900000e+02 4.338798e-12
7.910000e+02 4.738531e-12
7.920000e+02 5.173900e-12
7.930000e+02 5.647971e-12
7.940000e+02 6.164071e-12
7.950000e+02 6.725797e-12
7.960000e+02 7.337049e-12
7.970000e+02 8.002040e-12
7.980000e+02 8.725337e-12
7.990000e+02 9.511877e-12
8.000000e+02 1.036700e-11
8.010000e+02 1.129649e-11
8.020000e+02 1.230657e-11
8.030000e+02 1.340402e-11
8.040000e+02 1.459611e-11
8.050000e+02 1.589073e-11
8.060000e+02 1.729641e-11
8.070000e+02 1.882233e-11
8.080000e+02 2.047842e-11
8.090000e+02 2.227541e-11
8.100000e+02 2.422487e-11
8.110000e+02 2.633929e-11
8.120000e+02 2.863215e-11
8.130000e+02 3.111797e-11
8.140000e+02 3.381244e-11
8.150000e+02 3.673245e-11
8.160000e+02 3.989624e-11
8.170000e+02 4.332344e-11
8.180000e+02 4.703521e-11
8.190000e+02 5.105436e-11
8.200000e+02 5.540544e-11
8.210000e+02 6.011493e-11
8.220000e+02 6.521129e-11
8.230000e+02 7.072520e-11
8.240000e+02 7.668966e-11
8.250000e+02 8.314019e-11
8.260000e+02 9.011500e-11
8.270000e+02 9.765520e-11
8.280000e+02 1.058050e-10
8.290000e+02 1.146119e-10
8.300000e+02 1.241271e-10
8.310000e+02 1.344055e-10
8.320000e+02 1.455061e-10
8.330000e+02 1.574923e-10
8.340000e+02 1.704324e-10
8.350000e+02 1.843994e-10
8.360000e+02 1.994721e-10
8.370000e+02 2.157347e-10
8.380000e+02 2.332778e-10
8.390000e+02 2.521988e-10
8.400000e+02 2.726018e-10
8.410000e+02 2.945988e-10
8.420000e+02 3.183100e-10
8.430000e+02 3.438640e-10
8.440000e+02 3.713989e-10
8.450000e+02 4.010627e-10
8.460000e+02 4.330140e-10
8.470000e+02 4.674230e-10
8.480000e+02 5.044717e-10
8.490000e+02 5.443554e-10
8.500000e+02 5.872831e-10
8.510000e+02 6.334785e-10
8.520000e+02 6.831816e-10
8.530000e+02 7.366489e-10
8.540000e+02 7.941550e-10
8.550000e+02 8.559940e-10
8.560000e+02 9.224803e-10
8.570000e+02 9.939503e-10
8.580000e+02 1.070764e-09
8.590000e+02 1.153306e-09
8.600000e+02 1.241988e-09
8.610000e+02 1.337251e-09
8.620000e+02 1.439563e-09
8.630000e+02 1.549428e-09
8.640000e+02 1.667383e-09
8.650000e+02 1.794001e-09
8.660000e+02 1.929895e-09
8.670000e+02 2.075719e-09
8.680000e+02 2.232173e-09
8.690000e+02 2.400001e-09
8.700000e+02 2.580001e-09
8.710000e+02 2.773022e-09
8.720000e+02 2.979971e-09
8.730000e+02 3.201816e-09
8.740000e+02 3.439588e-09
8.750000e+02 3.694388e-09
8.760000e+02 3.967390e-09
8.770000e+02 4.259846e-09
8.780000e+02 4.573089e-09
8.790000e+02 4.908542e-09
8.800000e+02 5.267720e-09
8.810000e+02 5.652238e-09
8.820000e+02 6.063817e-09
8.830000e+02 6.504287e-09
8.840000e+02 6.975601e-09
8.850000e+02 7.479838e-09
8.860000e+02 8.019209e-09
8.870000e+02 8.596070e-09
8.880000e+02 9.212927e-09
8.890000e+02 9.872449e-09
8.900000e+02 1.057747e-08
8.910000e+02 1.133102e-08
8.920000e+02 1.213630e-08
8.930000e+02 1.299673e-08
8.940000e+02 1.391594e-08
8.950000e+02 1.489779e-08
8.960000e+02 1.594640e-08
8.970000e+02 1.706612e-08
8.980000e+02 1.826159e-08
8.990000e+02 1.953773e-08
9.000000e+02 2.089979e-08
9.010000e+02 2.235332e-08
9.020000e+02 2.390424e-08
9.030000e+02 2.555880e-08
9.040000e+02 2.732367e-08
9.050000e+02 2.920591e-08
9.060000e+02 3.121304e-08
9.070000e+02 3.335302e-08
9.080000e+02 3.563429e-08
9.090000e+02 3.806582e-08
9.100000e+02 4.065713e-08
9.110000e+02 4.341829e-08
9.120000e+02 4.636002e-08
9.130000e+02 4.949365e-08
9.140000e+02 5.297443e-08
9.150000e+02 1.020415e-05
9.160000e+02 7.077272e-05
9.170000e+02 7.345281e-06
9.180000e+02 1.311532e-05
9.190000e+02 2.014937e-04
9.200000e+02 5.795000e-04
9.210000e+02 8.307748e-08
9.220000e+02 4.938696e-04
9.230000e+02 3.887489e-06
9.240000e+02 1.753512e-05
9.250000e+02 1.377354e-04
9.260000e+02 1.853529e-05
9.270000e+02 1.339257e-05
9.280000e+02 3.257976e-03
9.290000e+02 3.140435e-03
9.300000e+02 6.817764e-04
9.310000e+02 7.389414e-06
9.320000e+02 2.471823e-03
9.330000e+02 9.977190e-04
9.340000e+02 2.889857e-04
9.350000e+02 6.373571e-06
9.360000e+02 3.779410e-05
9.370000e+02 2.052284e-06
9.380000e+02 4.024072e-06
9.390000e+02 9.128769e-05
9.400000e+02 4.794937e-03
9.410000e+02 2.923933e-04
9.420000e+02 9.452448e-03
9.430000e+02 1.614266e-04
9.440000e+02 1.042007e-02
9.450000e+02 1.023993e-02
9.460000e+02 2.863867e-03
9.470000e+02 5.052600e-06
9.480000e+02 3.290723e-03
9.490000e+02 3.040864e-04
9.500000e+02 4.441538e-06
9.510000e+02 1.048433e-03
9.520000e+02 3.369365e-03
9.530000e+02 3.212027e-05
9.540000e+02 5.581667e-06
9.550000e+02 4.291832e-04
9.560000e+02 1.481433e-02
9.570000e+02 1.480160e-04
9.580000e+02 2.028886e-06
9.590000e+02 1.586127e-02
9.600000e+02 1.102721e-05
9.610000e+02 4.178051e-03
9.620000e+02 1.405434e-03
9.630000e+02 2.750214e-04
9.640000e+02 1.267693e-05
9.650000e+02 1.562759e-05
9.660000e+02 4.608370e-04
9.670000e+02 7.752702e-05
9.680000e+02 4.921481e-05
9.690000e+02 2.674907e-03
9.700000e+02 2.314438e-03
9.710000e+02 9.556141e-05
9.720000e+02 2.925373e-05
9.730000e+02 5.524522e-05
9.740000e+02 1.407137e-03
9.750000e+02 7.937311e-04
9.760000e+02 1.570794e-02
9.770000e+02 1.240947e-02
9.780000e+02 5.066154e-03
9.790000e+02 4.564708e-02
9.800000e+02 4.906782e-02
9.810000e+02 3.902867e-03
9.820000e+02 6.023906e-04
9.830000e+02 5.051292e-02
9.840000e+02 1.378060e-03
9.850000e+02 1.698035e-03
9.860000e+02 2.406946e-03
9.870000e+02 6.048490e-02
9.880000e+02 4.154444e-05
9.890000e+02 1.840870e-02
9.900000e+02 7.624162e-03
9.910000e+02 5.119906e-04
9.920000e+02 1.101536e-05
9.930000e+02 8.158240e-02
9.940000e+02 9.131618e-06
9.950000e+02 4.185627e-03
9.960000e+02 1.544878e-04
9.970000e+02 1.492337e-03
9.980000e+02 4.900899e-02
9.990000e+02 8.865250e-04
1.000000e+03 1.270484e-01
1.001000e+03 1.167175e-01
1.002000e+03 1.290418e-01
1.003000e+03 1.088522e-03
1.004000e+03 6.918609e-05
1.005000e+03 3.800869e-03
1.006000e+03 1.216398e-01
1.007000e+03 1.534411e-01
1.008000e+03 8.593508e-02
1.009000e+03 1.587164e-03
1.010000e+03 9.060570e-02
1.011000e+03 1.249593e-01
1.012000e+03 1.051051e-01
1.013000e+03 9.771042e-02
1.014000e+03 3.300980e-05
1.015000e+03 1.112819e-04
1.016000e+03 3.973611e-03
1.017000e+03 3.013015e-05
1.018000e+03 1.628086e-03
1.019000e+03 1.038760e-04
1.020000e+03 1.127670e-01
1.021000e+03 2.088219e-03
1.022000e+03 3.394842e-03
1.023000e+03 2.396367e-04
1.024000e+03 7.777233e-03
1.025000e+03 3.731812e-05
1.026000e+03 4.781115e-05
1.027000e+03 3.110038e-03
1.028000e+03 2.530068e-04
1.029000e+03 6.081536e-05
1.030000e+03 1.890055e-02
1.031000e+03 2.981658e-02
1.032000e+03 2.330981e-01
1.033000e+03 2.810389e-03
1.034000e+03 4.824190e-02
1.035000e+03 1.519918e-04
1.036000e+03 1.114905e-04
1.037000e+03 3.700647e-01
1.038000e+03 1.027540e+00
1.039000e+03 4.240499e-01
1.040000e+03 4.880735e-01
1.041000e+03 1.299494e+00
1.042000e+03 1.049287e+00
1.043000e+03 8.203626e-01
1.044000e+03 1.740392e+00
1.045000e+03 1.759299e-04
1.046000e+03 5.273707e-01
1.047000e+03 1.182356e-01
1.048000e+03 2.296537e-03
1.049000e+03 1.429312e-01
1.050000e+03 3.675890e-02
1.051000e+03 1.790881e-02
1.052000e+03 1.336603e+00
1.053000e+03 2.017185e+00
1.054000e+03 2.096891e-04
1.055000e+03 2.114099e+00
1.056000e+03 2.312020e+00
1.057000e+03 3.447566e-01
1.058000e+03 2.023404e-02
1.059000e+03 7.599592e-03
1.060000e+03 3.381729e-03
1.061000e+03 6.363039e-01
1.062000e+03 1.014696e-02
1.063000e+03 9.575287e-02
1.064000e+03 3.409386e-04
1.065000e+03 3.561974e-04
1.066000e+03 7.887450e-01
1.067000e+03 1.022842e-02
1.068000e+03 3.905472e+00
1.069000e+03 2.528831e-03
1.070000e+03 2.080145e-01
1.071000e+03 2.850724e+00
1.072000e+03 3.958763e+00
1.073000e+03 7.591248e-04
1.074000e+03 3.689552e-01
1.075000e+03 1.991439e-01
1.076000e+03 3.970582e+00
1.077000e+03 6.075859e-03
1.078000e+03 2.531099e-02
1.079000e+03 1.299222e-01
1.080000e+03 4.588384e-01
1.081000e+03 2.093586e+00
1.082000e+03 1.278341e+00
1.083000e+03 6.605997e-01
1.084000e+03 6.754971e+00
1.085000e+03 1.406589e-01
1.086000e+03 6.658653e+00
1.087000e+03 2.558804e-02
1.088000e+03 7.819470e+00
1.089000e+03 8.030682e+00
1.090000e+03 1.090685e-01
1.091000e+03 1.555634e-01
1.092000e+03 8.080225e+00
1.093000e+03 8.683706e+00
1.094000e+03 1.716908e+00
1.095000e+03 9.772168e+00
1.096000e+03 5.354159e-01
1.097000e+03 5.424751e+00
1.098000e+03 9.987126e+00
1.099000e+03 4.433327e-01
1.100000e+03 7.717282e-03
1.101000e+03 2.161880e-02
1.102000e+03 2.526611e-01
1.103000e+03 1.147765e+01
1.104000e+03 1.270776e+01
1.105000e+03 1.257565e+01
1.106000e+03 1.429240e+00
1.107000e+03 1.209641e-02
1.108000e+03 7.532070e+00
1.109000e+03 1.363115e-01
1.110000e+03 1.469337e+01
1.111000e+03 1.228817e+01
1.112000e+03 4.186600e+00
1.113000e+03 1.194124e+01
1.114000e+03 2.352738e+00
1.115000e+03 1.771159e-01
1.116000e+03 8.060828e-02
1.117000e+03 1.447162e+01
1.118000e+03 2.251272e-01
1.119000e+03 5.286191e+00
1.120000e+03 1.038351e-01
1.121000e+03 1.364543e+01
1.122000e+03 1.598645e+01
1.123000e+03 2.085676e+01
1.124000e+03 2.353794e+01
1.125000e+03 1.572223e+01
1.126000e+03 2.791203e+01
1.127000e+03 1.902416e+01
1.128000e+03 1.721765e+01
1.129000e+03 1.048957e+01
1.130000e+03 2.217079e+01
1.131000e+03 2.048240e+01
1.132000e+03 1.834793e-01
1.133000e+03 1.086651e+00
1.134000e+03 1.133229e+01
1.135000e+03 9.657432e+00
1.136000e+03 2.424919e+00
1.137000e+03 1.847401e+01
1.138000e+03 9.360473e+00
1.139000e+03 2.230768e+01
1.140000e+03 2.157378e+01
1.141000e+03 2.156943e+01
1.142000e+03 2.265175e+01
1.143000e+03 1.251926e+01
1.144000e+03 2.248153e+01
1.145000e+03 9.153175e-02
1.146000e+03 2.392816e+01
1.147000e+03 2.344116e+01
1.148000e+03 6.632462e-01
1.149000e+03 2.078525e+01
1.150000e+03 1.799623e+01
1.151000e+03 2.394111e+01
1.152000e+03 2.208596e+01
1.153000e+03 2.294246e+01
1.154000e+03 2.363706e+01
1.155000e+03 1.942299e+01
1.156000e+03 1.947060e+01
1.157000e+03 2.221433e+01
1.158000e+03 1.282450e+01
1.159000e+03 2.295649e+01
1.160000e+03 1.365694e+01
1.161000e+03 2.162552e+01
1.162000e+03 2.515980e+00
1.163000e+03 7.115948e+00
1.164000e+03 9.424496e-02
1.165000e+03 1.399768e+01
1.166000e+03 8.285041e+00
1.167000e+03 6.026715e+00
1.168000e+03 2.459908e+01
1.169000e+03 2.508418e+01
1.170000e+03 5.920075e+00
1.171000e+03 1.369492e+01
1.172000e+03 9.906588e+00
1.173000e+03 1.032333e+01
1.174000e+03 5.313749e-01
1.175000e+03 7.377338e-02
1.176000e+03 3.227139e-02
1.177000e+03 3.069967e+01
1.178000e+03 2.956632e+01
1.179000e+03 2.821173e+01
1.180000e+03 2.250799e+01
1.181000e+03 2.666248e+01
1.182000e+03 2.576858e+01
1.183000e+03 2.193425e+01
1.184000e+03 2.038218e+01
1.185000e+03 2.142013e+01
1.186000e+03 2.500478e+00
1.187000e+03 2.217529e+01
1.188000e+03 1.677649e+01
1.189000e+03 2.209178e+01
1.190000e+03 2.168447e+01
1.191000e+03 2.005889e+01
1.192000e+03 1.904394e+01
1.193000e+03 1.738609e+01
1.194000e+03 1.837799e+01
1.195000e+03 1.771199e+01
1.196000e+03 1.217935e+02
1.197000e+03 1.268270e+02
1.198000e+03 8.636177e+00
1.199000e+03 1.166758e+02
1.200000e+03 2.343797e+01
1.201000e+03 1.016586e+02
1.202000e+03 6.930679e+01
1.203000e+03 8.304462e+01
1.204000e+03 2.025601e+01
1.205000e+03 6.240411e+01
1.206000e+03 5.306205e+01
1.207000e+03 1.021913e+01
1.208000e+03 2.980687e+01
1.209000e+03 2.335590e+01
1.210000e+03 1.375732e-01
1.211000e+03 9.592799e+00
1.212000e+03 4.890503e+00
1.213000e+03 2.216030e+00
1.214000e+03 6.639373e-01
1.215000e+03 1.332372e-01
1.216000e+03 1.171247e-01
1.217000e+03 4.209144e-01
1.218000e+03 1.806904e+00
1.219000e+03 4.794950e+00
1.220000e+03 7.864539e+00
1.221000e+03 1.831008e+01
1.222000e+03 2.908182e+01
1.223000e+03 4.025113e+01
1.224000e+03 5.606598e+01
1.225000e+03 1.118298e+01
1.226000e+03 1.010053e+02
1.227000e+03 1.253894e+02
1.228000e+03 6.620895e+01
1.229000e+03 1.662049e+02
1.230000e+03 1.519711e+02
1.231000e+03 4.733015e+01
1.232000e+03 2.451481e+02
1.233000e+03 2.710755e+02
1.234000e+03 2.322137e+02
1.235000e+03 3.093435e+02
1.236000e+03 1.218900e+02
1.237000e+03 3.570106e+02
1.238000e+03 3.729227e+02
1.239000e+03 3.420645e+02
1.240000e+03 1.447542e+02
1.241000e+03 3.545264e+02
1.242000e+03 4.389035e+02
1.243000e+03 4.725669e+02
1.244000e+03 4.941572e+02
1.245000e+03 5.066501e+02
1.246000e+03 4.892364e+02
1.247000e+03 5.256147e+02
1.248000e+03 4.551993e+02
1.249000e+03 5.856039e+02
1.250000e+03 4.704888e+02
1.251000e+03 6.191871e+02
1.252000e+03 6.006539e+02
1.253000e+03 6.489397e+02
1.254000e+03 6.388408e+02
1.255000e+03 2.968840e+02
1.256000e+03 5.924847e+02
1.257000e+03 5.205390e+02
1.258000e+03 5.779057e+02
1.259000e+03 6.309370e+02
1.260000e+03 7.414909e+02
1.261000e+03 4.255133e+01
1.262000e+03 7.727872e+02
1.263000e+03 7.548140e+02
1.264000e+03 6.677622e+02
1.265000e+03 5.747394e+01
1.266000e+03 8.698698e+02
1.267000e+03 8.263741e+02
