# wavelength_A flux
5.000000e+02 4.835671e-37
5.010000e+02 6.261470e-37
5.020000e+02 8.099163e-37
5.030000e+02 1.046528e-36
5.040000e+02 1.350864e-36
5.050000e+02 1.742424e-36
5.060000e+02 2.244489e-36
5.070000e+02 2.888258e-36
5.080000e+02 3.712943e-36
5.090000e+02 4.768284e-36
5.100000e+02 6.115989e-36
5.110000e+02 7.840608e-36
5.120000e+02 1.003914e-35
5.130000e+02 1.284165e-35
5.140000e+02 1.641040e-35
5.150000e+02 2.095056e-35
5.160000e+02 2.672102e-35
5.170000e+02 3.404819e-35
5.180000e+02 4.334316e-35
5.190000e+02 5.512329e-35
5.200000e+02 7.003906e-35
5.210000e+02 8.890748e-35
5.220000e+02 1.127536e-34
5.230000e+02 1.428638e-34
5.240000e+02 1.808477e-34
5.250000e+02 2.287209e-34
5.260000e+02 2.890035e-34
5.270000e+02 3.648439e-34
5.280000e+02 4.601718e-34
5.290000e+02 5.798879e-34
5.300000e+02 7.300987e-34
5.310000e+02 9.184058e-34
5.320000e+02 1.154265e-33
5.330000e+02 1.449427e-33
5.340000e+02 1.818482e-33
5.350000e+02 2.279534e-33
5.360000e+02 2.855022e-33
5.370000e+02 3.572540e-33
5.380000e+02 4.467077e-33
5.390000e+02 5.580566e-33
5.400000e+02 6.965748e-33
5.410000e+02 8.687479e-33
5.420000e+02 1.082577e-32
5.430000e+02 1.347920e-32
5.440000e+02 1.676919e-32
5.450000e+02 2.084515e-32
5.460000e+02 2.589074e-32
5.470000e+02 3.213160e-32
5.480000e+02 3.984472e-32
5.490000e+02 4.936984e-32
5.500000e+02 6.112333e-32
5.510000e+02 7.561508e-32
5.520000e+02 9.346909e-32
5.530000e+02 1.154483e-31
5.540000e+02 1.424849e-31
5.550000e+02 1.757170e-31
5.560000e+02 2.165332e-31
5.570000e+02 2.666258e-31
5.580000e+02 3.280569e-31
5.590000e+02 4.033360e-31
5.600000e+02 4.955157e-31
5.610000e+02 6.083063e-31
5.620000e+02 7.462140e-31
5.630000e+02 9.147078e-31
5.640000e+02 1.120420e-30
5.650000e+02 1.371390e-30
5.660000e+02 1.677351e-30
5.670000e+02 2.050084e-30
5.680000e+02 2.503836e-30
5.690000e+02 3.055823e-30
5.700000e+02 3.726835e-30
5.710000e+02 4.541962e-30
5.720000e+02 5.531461e-30
5.730000e+02 6.731794e-30
5.740000e+02 8.186872e-30
5.750000e+02 9.949541e-30
5.760000e+02 1.208335e-29
5.770000e+02 1.466469e-29
5.780000e+02 1.778529e-29
5.790000e+02 2.155524e-29
5.800000e+02 2.610662e-29
5.810000e+02 3.159770e-29
5.820000e+02 3.821810e-29
5.830000e+02 4.619477e-29
5.840000e+02 5.579922e-29
5.850000e+02 6.735609e-29
5.860000e+02 8.125315e-29
5.870000e+02 9.795343e-29
5.880000e+02 1.180094e-28
5.890000e+02 1.420799e-28
5.900000e+02 1.709501e-28
5.910000e+02 2.055549e-28
5.920000e+02 2.470072e-28
5.930000e+02 2.966307e-28
5.940000e+02 3.559990e-28
5.950000e+02 4.269814e-28
5.960000e+02 5.117974e-28
5.970000e+02 6.130805e-28
5.980000e+02 7.339535e-28
5.990000e+02 8.781175e-28
6.000000e+02 1.049956e-27
6.010000e+02 1.254657e-27
6.020000e+02 1.498360e-27
6.030000e+02 1.788322e-27
6.040000e+02 2.133117e-27
6.050000e+02 2.542873e-27
6.060000e+02 3.029542e-27
6.070000e+02 3.607221e-27
6.080000e+02 4.292529e-27
6.090000e+02 5.105048e-27
6.100000e+02 6.067834e-27
6.110000e+02 7.208024e-27
6.120000e+02 8.557531e-27
6.130000e+02 1.015387e-26
6.140000e+02 1.204113e-26
6.150000e+02 1.427107e-26
6.160000e+02 1.690442e-26
6.170000e+02 2.001243e-26
6.180000e+02 2.367864e-26
6.190000e+02 2.800088e-26
6.200000e+02 3.309377e-26
6.210000e+02 3.909141e-26
6.220000e+02 4.615069e-26
6.230000e+02 5.445504e-26
6.240000e+02 6.421877e-26
6.250000e+02 7.569221e-26
6.260000e+02 8.916753e-26
6.270000e+02 1.049856e-25
6.280000e+02 1.235439e-25
6.290000e+02 1.453058e-25
6.300000e+02 1.708107e-25
6.310000e+02 2.006870e-25
6.320000e+02 2.356657e-25
6.330000e+02 2.765971e-25
6.340000e+02 3.244697e-25
6.350000e+02 3.804319e-25
6.360000e+02 4.458173e-25
6.370000e+02 5.221742e-25
6.380000e+02 6.112984e-25
6.390000e+02 7.152726e-25
6.400000e+02 8.365105e-25
6.410000e+02 9.778084e-25
6.420000e+02 1.142404e-24
6.430000e+02 1.334044e-24
6.440000e+02 1.557064e-24
6.450000e+02 1.816473e-24
6.460000e+02 2.118065e-24
6.470000e+02 2.468529e-24
6.480000e+02 2.875589e-24
6.490000e+02 3.348156e-24
6.500000e+02 3.896515e-24
6.510000e+02 4.532517e-24
6.520000e+02 5.269822e-24
6.530000e+02 6.124165e-24
6.540000e+02 7.113661e-24
6.550000e+02 8.259159e-24
6.560000e+02 9.584639e-24
6.570000e+02 1.111767e-23
6.580000e+02 1.288994e-23
6.590000e+02 1.493786e-23
6.600000e+02 1.730320e-23
6.610000e+02 2.003395e-23
6.620000e+02 2.318512e-23
6.630000e+02 2.681982e-23
6.640000e+02 3.101037e-23
6.650000e+02 3.583962e-23
6.660000e+02 4.140247e-23
6.670000e+02 4.780754e-23
6.680000e+02 5.517909e-23
6.690000e+02 6.365927e-23
6.700000e+02 7.341058e-23
6.710000e+02 8.461868e-23
6.720000e+02 9.749569e-23
6.730000e+02 1.122838e-22
6.740000e+02 1.292593e-22
6.750000e+02 1.487375e-22
6.760000e+02 1.710780e-22
6.770000e+02 1.966906e-22
6.780000e+02 2.260422e-22
6.790000e+02 2.596647e-22
6.800000e+02 2.981634e-22
6.810000e+02 3.422275e-22
6.820000e+02 3.926405e-22
6.830000e+02 4.502938e-22
6.840000e+02 5.162001e-22
6.850000e+02 5.915105e-22
6.860000e+02 6.775320e-22
6.870000e+02 7.757483e-22
6.880000e+02 8.878434e-22
6.890000e+02 1.015727e-21
6.900000e+02 1.161566e-21
6.910000e+02 1.327815e-21
6.920000e+02 1.517256e-21
6.930000e+02 1.733039e-21
6.940000e+02 1.978732e-21
6.950000e+02 2.258371e-21
6.960000e+02 2.576524e-21
6.970000e+02 2.938356e-21
6.980000e+02 3.349706e-21
6.990000e+02 3.817171e-21
7.000000e+02 4.348205e-21
7.010000e+02 4.951224e-21
7.020000e+02 5.635729e-21
7.030000e+02 6.412438e-21
7.040000e+02 7.293444e-21
7.050000e+02 8.292377e-21
7.060000e+02 9.424606e-21
7.070000e+02 1.070744e-20
7.080000e+02 1.216039e-20
7.090000e+02 1.380540e-20
7.100000e+02 1.566718e-20
7.110000e+02 1.777354e-20
7.120000e+02 2.015574e-20
7.130000e+02 2.284894e-20
7.140000e+02 2.589266e-20
7.150000e+02 2.933128e-20
7.160000e+02 3.321467e-20
7.170000e+02 3.759880e-20
7.180000e+02 4.254649e-20
7.190000e+02 4.812824e-20
7.200000e+02 5.442311e-20
7.210000e+02 6.151974e-20
7.220000e+02 6.951747e-20
7.230000e+02 7.852762e-20
7.240000e+02 8.867486e-20
7.250000e+02 1.000988e-19
7.260000e+02 1.129557e-19
7.270000e+02 1.274204e-19
7.280000e+02 1.436885e-19
7.290000e+02 1.619786e-19
7.300000e+02 1.825352e-19
7.310000e+02 2.056315e-19
7.320000e+02 2.315726e-19
7.330000e+02 2.606993e-19
7.340000e+02 2.933920e-19
7.350000e+02 3.300754e-19
7.360000e+02 3.712231e-19
7.370000e+02 4.173634e-19
7.380000e+02 4.690852e-19
7.390000e+02 5.270453e-19
7.400000e+02 5.919751e-19
7.410000e+02 6.646893e-19
7.420000e+02 7.460955e-19
7.430000e+02 8.372038e-19
7.440000e+02 9.391382e-19
7.450000e+02 1.053149e-18
7.460000e+02 1.180628e-18
7.470000e+02 1.323120e-18
7.480000e+02 1.482346e-18
7.490000e+02 1.660214e-18
7.500000e+02 1.858846e-18
7.510000e+02 2.080599e-18
7.520000e+02 2.328086e-18
7.530000e+02 2.604213e-18
7.540000e+02 2.912198e-18
7.550000e+02 3.255613e-18
7.560000e+02 3.638421e-18
7.570000e+02 4.065011e-18
7.580000e+02 4.540249e-18
7.590000e+02 5.069525e-18
7.600000e+02 5.658810e-18
7.610000e+02 6.314714e-18
7.620000e+02 7.044555e-18
7.630000e+02 7.856427e-18
7.640000e+02 8.759291e-18
7.650000e+02 9.763051e-18
7.660000e+02 1.087866e-17
7.670000e+02 1.211823e-17
7.680000e+02 1.349513e-17
7.690000e+02 1.502415e-17
7.700000e+02 1.672160e-17
7.710000e+02 1.860551e-17
7.720000e+02 2.069576e-17
7.730000e+02 2.301432e-17
7.740000e+02 2.558539e-17
7.750000e+02 2.843568e-17
7.760000e+02 3.159463e-17
7.770000e+02 3.509472e-17
7.780000e+02 3.897169e-17
7.790000e+02 4.326496e-17
7.800000e+02 4.801793e-17
7.810000e+02 5.327838e-17
7.820000e+02 5.909893e-17
7.830000e+02 6.553747e-17
7.840000e+02 7.265770e-17
7.850000e+02 8.052967e-17
7.860000e+02 8.923044e-17
7.870000e+02 9.884471e-17
7.880000e+02 1.094656e-16
7.890000e+02 1.211953e-16
7.900000e+02 1.341462e-16
7.910000e+02 1.484418e-16
7.920000e+02 1.642176e-16
7.930000e+02 1.816222e-16
7.940000e+02 2.008189e-16
7.950000e+02 2.219867e-16
7.960000e+02 2.453220e-16
7.970000e+02 2.710402e-16
7.980000e+02 2.993775e-16
7.990000e+02 3.305924e-16
8.000000e+02 3.649687e-16
8.010000e+02 4.028169e-16
8.020000e+02 4.444773e-16
8.030000e+02 4.903222e-16
8.040000e+02 5.407595e-16
8.050000e+02 5.962353e-16
8.060000e+02 6.572381e-16
8.070000e+02 7.243017e-16
8.080000e+02 7.980104e-16
8.090000e+02 8.790027e-16
8.100000e+02 9.679767e-16
8.110000e+02 1.065695e-15
8.120000e+02 1.172992e-15
8.130000e+02 1.290777e-15
8.140000e+02 1.420044e-15
8.150000e+02 1.561880e-15
8.160000e+02 1.717469e-15
8.170000e+02 1.888104e-15
8.180000e+02 2.075195e-15
8.190000e+02 2.280283e-15
8.200000e+02 2.505044e-15
8.210000e+02 2.751308e-15
8.220000e+02 3.021071e-15
8.230000e+02 3.316505e-15
8.240000e+02 3.639978e-15
8.250000e+02 3.994071e-15
8.260000e+02 4.381592e-15
8.270000e+02 4.805601e-15
8.280000e+02 5.269427e-15
8.290000e+02 5.776694e-15
8.300000e+02 6.331345e-15
8.310000e+02 6.937670e-15
8.320000e+02 7.600334e-15
8.330000e+02 8.324410e-15
8.340000e+02 9.115414e-15
8.350000e+02 9.979338e-15
8.360000e+02 1.092270e-14
8.370000e+02 1.195257e-14
8.380000e+02 1.307664e-14
8.390000e+02 1.430325e-14
8.400000e+02 1.564147e-14
8.410000e+02 1.710114e-14
8.420000e+02 1.869293e-14
8.430000e+02 2.042843e-14
8.440000e+02 2.232020e-14
8.450000e+02 2.438188e-14
8.460000e+02 2.662825e-14
8.470000e+02 2.907532e-14
8.480000e+02 3.174047e-14
8.490000e+02 3.464252e-14
8.500000e+02 3.780186e-14
8.510000e+02 4.124058e-14
8.520000e+02 4.498261e-14
8.530000e+02 4.905385e-14
8.540000e+02 5.348234e-14
8.550000e+02 5.829845e-14
8.560000e+02 6.353500e-14
8.570000e+02 6.922756e-14
8.580000e+02 7.541455e-14
8.590000e+02 8.213755e-14
8.600000e+02 8.944153e-14
8.610000e+02 9.737507e-14
8.620000e+02 1.059907e-13
8.630000e+02 1.153452e-13
8.640000e+02 1.254999e-13
8.650000e+02 1.365210e-13
8.660000e+02 1.484802e-13
8.670000e+02 1.614545e-13
8.680000e+02 1.755276e-13
8.690000e+02 1.907893e-13
8.700000e+02 2.073370e-13
8.710000e+02 2.252753e-13
8.720000e+02 2.447174e-13
8.730000e+02 2.657853e-13
8.740000e+02 2.886104e-13
8.750000e+02 3.133347e-13
8.760000e+02 3.401111e-13
8.770000e+02 3.691041e-13
8.780000e+02 4.004915e-13
8.790000e+02 4.344644e-13
8.800000e+02 4.712290e-13
8.810000e+02 5.110070e-13
8.820000e+02 5.540375e-13
8.830000e+02 6.005776e-13
8.840000e+02 6.509042e-13
8.850000e+02 7.053152e-13
8.860000e+02 7.641312e-13
8.870000e+02 8.276971e-13
8.880000e+02 8.963839e-13
8.890000e+02 9.705904e-13
8.900000e+02 1.050746e-12
8.910000e+02 1.137311e-12
8.920000e+02 1.230781e-12
8.930000e+02 1.331689e-12
8.940000e+02 1.440607e-12
8.950000e+02 1.558151e-12
8.960000e+02 1.684979e-12
8.970000e+02 1.821802e-12
8.980000e+02 1.969380e-12
8.990000e+02 2.128531e-12
9.000000e+02 2.300132e-12
9.010000e+02 2.485124e-12
9.020000e+02 2.684518e-12
9.030000e+02 2.899396e-12
9.040000e+02 3.130922e-12
9.050000e+02 3.380340e-12
9.060000e+02 3.648989e-12
9.070000e+02 3.938300e-12
9.080000e+02 4.249808e-12
9.090000e+02 4.585161e-12
9.100000e+02 4.946121e-12
9.110000e+02 5.334577e-12
9.120000e+02 5.752552e-12
9.130000e+02 6.202215e-12
9.140000e+02 6.733281e-12
9.150000e+02 2.579728e-09
9.160000e+02 2.720334e-08
9.170000e+02 8.596341e-09
9.180000e+02 3.416147e-09
9.190000e+02 9.639657e-08
9.200000e+02 3.615947e-07
9.210000e+02 1.125612e-11
9.220000e+02 5.320317e-07
9.230000e+02 1.346219e-09
9.240000e+02 5.636716e-08
9.250000e+02 4.400382e-07
9.260000e+02 5.101636e-09
9.270000e+02 4.620590e-08
9.280000e+02 3.186921e-06
9.290000e+02 2.918270e-06
9.300000e+02 4.182805e-07
9.310000e+02 3.773271e-09
9.320000e+02 2.107941e-06
9.330000e+02 5.053867e-06
9.340000e+02 6.138182e-06
9.350000e+02 2.757452e-09
9.360000e+02 2.154682e-07
9.370000e+02 6.853416e-10
9.380000e+02 9.305931e-10
9.390000e+02 3.845508e-07
9.400000e+02 5.936343e-06
9.410000e+02 5.210116e-08
9.420000e+02 1.101386e-05
9.430000e+02 2.167244e-06
9.440000e+02 1.218682e-05
9.450000e+02 1.217074e-05
9.460000e+02 8.872500e-06
9.470000e+02 8.853021e-09
9.480000e+02 1.396633e-06
9.490000e+02 1.388356e-07
9.500000e+02 6.198550e-10
9.510000e+02 1.207011e-06
9.520000e+02 6.531312e-06
9.530000e+02 1.714423e-07
9.540000e+02 1.071274e-08
9.550000e+02 3.631858e-06
9.560000e+02 4.934580e-06
9.570000e+02 4.007616e-07
9.580000e+02 2.812158e-09
9.590000e+02 3.128055e-05
9.600000e+02 3.852620e-09
9.610000e+02 2.539102e-05
9.620000e+02 1.613824e-05
9.630000e+02 1.735905e-06
9.640000e+02 9.698851e-09
9.650000e+02 3.297100e-08
9.660000e+02 4.933378e-06
9.670000e+02 3.743280e-07
9.680000e+02 2.085708e-07
9.690000e+02 1.107584e-05
9.700000e+02 7.475270e-06
9.710000e+02 2.974134e-07
9.720000e+02 1.895696e-08
9.730000e+02 1.775690e-08
9.740000e+02 1.656443e-06
9.750000e+02 4.364063e-06
9.760000e+02 2.615741e-05
9.770000e+02 3.707199e-05
9.780000e+02 3.474047e-05
9.790000e+02 6.589686e-05
9.800000e+02 7.493106e-05
9.810000e+02 4.010597e-05
9.820000e+02 7.400740e-06
9.830000e+02 9.358803e-05
9.840000e+02 1.276645e-06
9.850000e+02 2.104469e-05
9.860000e+02 2.373525e-05
9.870000e+02 1.188035e-04
9.880000e+02 9.603536e-08
9.890000e+02 1.042368e-04
9.900000e+02 1.241845e-05
9.910000e+02 4.904432e-06
9.920000e+02 1.542219e-08
9.930000e+02 1.046550e-04
9.940000e+02 2.801244e-09
9.950000e+02 3.522359e-06
9.960000e+02 5.077309e-07
9.970000e+02 7.893618e-08
9.980000e+02 1.672957e-04
9.990000e+02 6.544356e-06
1.000000e+03 2.008924e-04
1.001000e+03 1.919311e-04
1.002000e+03 2.445063e-04
1.003000e+03 1.004494e-05
1.004000e+03 1.597946e-07
1.005000e+03 5.413630e-05
1.006000e+03 2.799803e-04
1.007000e+03 2.921377e-04
1.008000e+03 2.800995e-04
1.009000e+03 9.959214e-06
1.010000e+03 2.984278e-04
1.011000e+03 3.218581e-04
1.012000e+03 3.147876e-04
1.013000e+03 3.146258e-04
1.014000e+03 5.544280e-08
1.015000e+03 2.837915e-07
1.016000e+03 3.844223e-05
1.017000e+03 4.042522e-08
1.018000e+03 1.281829e-05
1.019000e+03 2.765737e-07
1.020000e+03 1.948765e-04
1.021000e+03 3.678026e-06
1.022000e+03 1.656011e-05
1.023000e+03 8.266325e-07
1.024000e+03 5.349168e-06
1.025000e+03 2.857642e-08
1.026000e+03 1.682340e-08
1.027000e+03 2.199999e-06
1.028000e+03 1.435783e-07
1.029000e+03 9.139330e-08
1.030000e+03 1.455870e-04
1.031000e+03 3.387104e-04
1.032000e+03 5.697998e-04
1.033000e+03 2.966379e-06
1.034000e+03 6.662123e-04
1.035000e+03 6.600749e-08
1.036000e+03 2.551824e-07
1.037000e+03 2.500873e-03
1.038000e+03 3.028067e-03
1.039000e+03 2.855337e-03
1.040000e+03 3.521089e-03
1.041000e+03 3.496102e-03
1.042000e+03 4.078978e-03
1.043000e+03 2.390628e-03
1.044000e+03 4.782141e-03
1.045000e+03 1.164767e-07
1.046000e+03 4.044779e-03
1.047000e+03 2.433412e-03
1.048000e+03 1.777709e-05
1.049000e+03 2.810800e-03
1.050000e+03 6.837174e-04
1.051000e+03 2.078237e-04
1.052000e+03 6.571752e-03
1.053000e+03 7.213549e-03
1.054000e+03 4.316680e-07
1.055000e+03 6.190077e-03
1.056000e+03 7.775680e-03
1.057000e+03 4.385895e-03
1.058000e+03 3.024070e-04
1.059000e+03 3.158953e-05
1.060000e+03 1.938827e-05
1.061000e+03 7.997563e-03
1.062000e+03 1.054808e-04
1.063000e+03 6.613942e-06
1.064000e+03 1.676381e-07
1.065000e+03 7.376075e-07
1.066000e+03 1.096530e-03
1.067000e+03 1.190513e-04
1.068000e+03 1.278977e-02
1.069000e+03 1.601678e-05
1.070000e+03 4.325377e-03
1.071000e+03 1.343652e-02
1.072000e+03 1.455240e-02
1.073000e+03 2.332963e-06
1.074000e+03 8.527422e-03
1.075000e+03 6.149398e-03
1.076000e+03 7.165542e-03
1.077000e+03 1.026317e-05
1.078000e+03 3.200471e-04
1.079000e+03 3.225579e-03
1.080000e+03 7.541793e-03
1.081000e+03 1.847347e-02
1.082000e+03 1.614930e-02
1.083000e+03 1.237469e-02
1.084000e+03 2.031732e-02
1.085000e+03 2.997382e-03
1.086000e+03 2.428008e-02
1.087000e+03 3.094636e-04
1.088000e+03 2.586916e-02
1.089000e+03 2.651125e-02
1.090000e+03 2.654452e-03
1.091000e+03 4.624732e-03
1.092000e+03 2.444206e-02
1.093000e+03 2.875587e-02
1.094000e+03 2.186910e-02
1.095000e+03 3.277455e-02
1.096000e+03 7.633623e-04
1.097000e+03 3.274392e-02
1.098000e+03 3.290741e-02
1.099000e+03 9.253800e-03
1.100000e+03 4.103110e-05
1.101000e+03 1.525470e-04
1.102000e+03 7.035942e-03
1.103000e+03 4.240644e-02
1.104000e+03 4.421626e-02
1.105000e+03 4.547929e-02
1.106000e+03 2.395559e-02
1.107000e+03 9.597093e-05
1.108000e+03 4.766818e-02
1.109000e+03 2.924509e-03
1.110000e+03 4.909312e-02
1.111000e+03 5.035399e-02
1.112000e+03 4.702535e-02
1.113000e+03 4.451224e-02
1.114000e+03 3.116492e-02
1.115000e+03 2.604265e-03
1.116000e+03 7.566080e-04
1.117000e+03 6.573484e-02
1.118000e+03 5.162243e-03
1.119000e+03 5.676280e-02
1.120000e+03 1.386449e-03
1.121000e+03 7.252943e-02
1.122000e+03 6.295176e-02
1.123000e+03 9.793694e-02
1.124000e+03 1.132706e-01
1.125000e+03 9.922867e-02
1.126000e+03 1.008402e-01
1.127000e+03 9.559762e-02
1.128000e+03 7.511289e-02
1.129000e+03 8.106323e-02
1.130000e+03 8.697395e-02
1.131000e+03 7.422296e-02
1.132000e+03 2.089515e-03
1.133000e+03 2.813401e-02
1.134000e+03 7.500766e-02
1.135000e+03 1.246317e-02
1.136000e+03 4.068870e-02
1.137000e+03 6.570421e-02
1.138000e+03 6.941321e-02
1.139000e+03 7.712866e-02
1.140000e+03 7.490563e-02
1.141000e+03 7.034484e-02
1.142000e+03 7.622514e-02
1.143000e+03 6.424353e-02
1.144000e+03 7.324736e-02
1.145000e+03 8.284748e-04
1.146000e+03 7.924306e-02
1.147000e+03 7.979225e-02
1.148000e+03 1.327518e-02
1.149000e+03 7.846515e-02
1.150000e+03 7.785127e-02
1.151000e+03 7.852514e-02
1.152000e+03 7.718731e-02
1.153000e+03 7.566239e-02
1.154000e+03 7.417242e-02
1.155000e+03 7.337529e-02
1.156000e+03 5.687245e-02
1.157000e+03 7.069021e-02
1.158000e+03 6.769547e-02
1.159000e+03 7.236412e-02
1.160000e+03 6.853723e-02
1.161000e+03 6.750199e-02
1.162000e+03 3.083059e-02
1.163000e+03 5.032045e-02
1.164000e+03 1.247264e-04
1.165000e+03 4.044728e-02
1.166000e+03 2.138718e-02
1.167000e+03 1.377844e-02
1.168000e+03 7.552174e-02
1.169000e+03 7.648890e-02
1.170000e+03 1.447890e-02
1.171000e+03 3.638461e-02
1.172000e+03 2.938813e-02
1.173000e+03 2.485042e-02
1.174000e+03 5.889058e-03
1.175000e+03 1.248792e-04
1.176000e+03 3.771670e-05
1.177000e+03 9.592913e-02
1.178000e+03 9.107872e-02
1.179000e+03 8.701172e-02
1.180000e+03 7.939482e-02
1.181000e+03 7.927219e-02
1.182000e+03 7.672234e-02
1.183000e+03 7.288905e-02
1.184000e+03 7.045738e-02
1.185000e+03 6.812003e-02
1.186000e+03 2.556266e-02
1.187000e+03 6.425069e-02
1.188000e+03 6.087462e-02
1.189000e+03 6.122389e-02
1.190000e+03 5.949625e-02
1.191000e+03 5.620914e-02
1.192000e+03 5.068137e-02
1.193000e+03 4.919253e-02
1.194000e+03 4.836608e-02
1.195000e+03 4.612141e-02
1.196000e+03 5.604609e-01
1.197000e+03 5.389641e-01
1.198000e+03 1.820410e-01
1.199000e+03 4.808933e-01
1.200000e+03 2.989286e-01
1.201000e+03 4.040419e-01
1.202000e+03 3.518746e-01
1.203000e+03 3.176535e-01
1.204000e+03 2.057522e-01
1.205000e+03 2.229086e-01
1.206000e+03 1.767053e-01
1.207000e+03 2.118295e-02
1.208000e+03 8.476587e-02
1.209000e+03 6.200051e-02
1.210000e+03 2.134219e-04
1.211000e+03 2.066655e-02
1.212000e+03 9.553887e-03
1.213000e+03 3.650483e-03
1.214000e+03 9.501096e-04
1.215000e+03 1.574617e-04
1.216000e+03 1.377871e-04
1.217000e+03 5.779712e-04
1.218000e+03 2.908004e-03
1.219000e+03 8.990620e-03
1.220000e+03 2.143551e-02
1.221000e+03 4.393431e-02
1.222000e+03 8.141845e-02
1.223000e+03 1.299518e-01
1.224000e+03 1.832261e-01
1.225000e+03 1.392324e-01
1.226000e+03 3.690508e-01
1.227000e+03 4.813128e-01
1.228000e+03 5.431564e-01
1.229000e+03 7.245353e-01
1.230000e+03 4.233672e-01
1.231000e+03 6.116406e-01
1.232000e+03 1.102040e+00
1.233000e+03 1.240074e+00
1.234000e+03 1.032044e+00
1.235000e+03 1.496846e+00
1.236000e+03 1.418844e+00
1.237000e+03 1.745288e+00
1.238000e+03 1.868320e+00
1.239000e+03 1.944943e+00
1.240000e+03 3.420975e-01
1.241000e+03 2.049546e+00
1.242000e+03 2.328758e+00
1.243000e+03 2.448420e+00
1.244000e+03 2.564083e+00
1.245000e+03 2.649357e+00
1.246000e+03 2.750659e+00
1.247000e+03 2.849193e+00
1.248000e+03 1.800640e+00
1.249000e+03 3.068636e+00
1.250000e+03 2.807832e+00
1.251000e+03 3.343915e+00
1.252000e+03 3.288530e+00
1.253000e+03 3.515419e+00
1.254000e+03 3.514906e+00
1.255000e+03 1.020074e+00
1.256000e+03 3.382371e+00
1.257000e+03 2.757462e+00
1.258000e+03 3.592307e+00
1.259000e+03 3.700275e+00
1.260000e+03 4.091841e+00
1.261000e+03 1.637893e-01
1.262000e+03 4.259039e+00
1.263000e+03 3.725230e+00
1.264000e+03 4.205457e+00
1.265000e+03 4.519885e-01
1.266000e+03 4.929899e+00
1.267000e+03 5.155792e+00
