# wavelength_A flux
5.000000e+02 3.362565e-37
5.010000e+02 4.357165e-37
5.020000e+02 5.640015e-37
5.030000e+02 7.292935e-37
5.040000e+02 9.420477e-37
5.050000e+02 1.215884e-36
5.060000e+02 1.567342e-36
5.070000e+02 2.018321e-36
5.080000e+02 2.596441e-36
5.090000e+02 3.336778e-36
5.100000e+02 4.283147e-36
5.110000e+02 5.494415e-36
5.120000e+02 7.039961e-36
5.130000e+02 9.011442e-36
5.140000e+02 1.152369e-35
5.150000e+02 1.472197e-35
5.160000e+02 1.878970e-35
5.170000e+02 2.395831e-35
5.180000e+02 3.051947e-35
5.190000e+02 3.884049e-35
5.200000e+02 4.938349e-35
5.210000e+02 6.272931e-35
5.220000e+02 7.960726e-35
5.230000e+02 1.009329e-34
5.240000e+02 1.278529e-34
5.250000e+02 1.618042e-34
5.260000e+02 2.045842e-34
5.270000e+02 2.584402e-34
5.280000e+02 3.261790e-34
5.290000e+02 4.113030e-34
5.300000e+02 5.181794e-34
5.310000e+02 6.522482e-34
5.320000e+02 8.202803e-34
5.330000e+02 1.030696e-33
5.340000e+02 1.293957e-33
5.350000e+02 1.623052e-33
5.360000e+02 2.034090e-33
5.370000e+02 2.546936e-33
5.380000e+02 3.186616e-33
5.390000e+02 3.983418e-33
5.400000e+02 4.975258e-33
5.410000e+02 6.208846e-33
5.420000e+02 7.741836e-33
5.430000e+02 9.645321e-33
5.440000e+02 1.200690e-32
5.450000e+02 1.493444e-32
5.460000e+02 1.856063e-32
5.470000e+02 2.304857e-32
5.480000e+02 2.859860e-32
5.490000e+02 3.545660e-32
5.500000e+02 4.392409e-32
5.510000e+02 5.437054e-32
5.520000e+02 6.724837e-32
5.530000e+02 8.311106e-32
5.540000e+02 1.026353e-31
5.550000e+02 1.266478e-31
5.560000e+02 1.561575e-31
5.570000e+02 1.923953e-31
5.580000e+02 2.368614e-31
5.590000e+02 2.913830e-31
5.600000e+02 3.581836e-31
5.610000e+02 4.399677e-31
5.620000e+02 5.400217e-31
5.630000e+02 6.623364e-31
5.640000e+02 8.117546e-31
5.650000e+02 9.941489e-31
5.660000e+02 1.216635e-30
5.670000e+02 1.487828e-30
5.680000e+02 1.818156e-30
5.690000e+02 2.220223e-30
5.700000e+02 2.709261e-30
5.710000e+02 3.303662e-30
5.720000e+02 4.025619e-30
5.730000e+02 4.901888e-30
5.740000e+02 5.964713e-30
5.750000e+02 7.252916e-30
5.760000e+02 8.813215e-30
5.770000e+02 1.070179e-29
5.780000e+02 1.298613e-29
5.790000e+02 1.574732e-29
5.800000e+02 1.908264e-29
5.810000e+02 2.310875e-29
5.820000e+02 2.796549e-29
5.830000e+02 3.382032e-29
5.840000e+02 4.087370e-29
5.850000e+02 4.936540e-29
5.860000e+02 5.958201e-29
5.870000e+02 7.186593e-29
5.880000e+02 8.662590e-29
5.890000e+02 1.043496e-28
5.900000e+02 1.256184e-28
5.910000e+02 1.511253e-28
5.920000e+02 1.816953e-28
5.930000e+02 2.183102e-28
5.940000e+02 2.621378e-28
5.950000e+02 3.145663e-28
5.960000e+02 3.772445e-28
5.970000e+02 4.521298e-28
5.980000e+02 5.415447e-28
5.990000e+02 6.482428e-28
6.000000e+02 7.754873e-28
6.010000e+02 9.271430e-28
6.020000e+02 1.107784e-27
6.030000e+02 1.322820e-27
6.040000e+02 1.578649e-27
6.050000e+02 1.882828e-27
6.060000e+02 2.244281e-27
6.070000e+02 2.673539e-27
6.080000e+02 3.183024e-27
6.090000e+02 3.787379e-27
6.100000e+02 4.503853e-27
6.110000e+02 5.352756e-27
6.120000e+02 6.357990e-27
6.130000e+02 7.547665e-27
6.140000e+02 8.954822e-27
6.150000e+02 1.061828e-26
6.160000e+02 1.258361e-26
6.170000e+02 1.490430e-26
6.180000e+02 1.764308e-26
6.190000e+02 2.087348e-26
6.200000e+02 2.468164e-26
6.210000e+02 2.916845e-26
6.220000e+02 3.445193e-26
6.230000e+02 4.067019e-26
6.240000e+02 4.798464e-26
6.250000e+02 5.658390e-26
6.260000e+02 6.668824e-26
6.270000e+02 7.855475e-26
6.280000e+02 9.248338e-26
6.290000e+02 1.088238e-25
6.300000e+02 1.279836e-25
6.310000e+02 1.504375e-25
6.320000e+02 1.767382e-25
6.330000e+02 2.075287e-25
6.340000e+02 2.435569e-25
6.350000e+02 2.856921e-25
6.360000e+02 3.349445e-25
6.370000e+02 3.924869e-25
6.380000e+02 4.596808e-25
6.390000e+02 5.381055e-25
6.400000e+02 6.295923e-25
6.410000e+02 7.362635e-25
6.420000e+02 8.605778e-25
6.430000e+02 1.005382e-24
6.440000e+02 1.173969e-24
6.450000e+02 1.370152e-24
6.460000e+02 1.598334e-24
6.470000e+02 1.863607e-24
6.480000e+02 2.171852e-24
6.490000e+02 2.529858e-24
6.500000e+02 2.945459e-24
6.510000e+02 3.427691e-24
6.520000e+02 3.986973e-24
6.530000e+02 4.635310e-24
6.540000e+02 5.386530e-24
6.550000e+02 6.256553e-24
6.560000e+02 7.263699e-24
6.570000e+02 8.429043e-24
6.580000e+02 9.776811e-24
6.590000e+02 1.133485e-23
6.600000e+02 1.313513e-23
6.610000e+02 1.521439e-23
6.620000e+02 1.761477e-23
6.630000e+02 2.038461e-23
6.640000e+02 2.357936e-23
6.650000e+02 2.726255e-23
6.660000e+02 3.150698e-23
6.670000e+02 3.639600e-23
6.680000e+02 4.202504e-23
6.690000e+02 4.850328e-23
6.700000e+02 5.595557e-23
6.710000e+02 6.452466e-23
6.720000e+02 7.437365e-23
6.730000e+02 8.568886e-23
6.740000e+02 9.868300e-23
6.750000e+02 1.135988e-22
6.760000e+02 1.307133e-22
6.770000e+02 1.503422e-22
6.780000e+02 1.728454e-22
6.790000e+02 1.986332e-22
6.800000e+02 2.281727e-22
6.810000e+02 2.619954e-22
6.820000e+02 3.007067e-22
6.830000e+02 3.449948e-22
6.840000e+02 3.956425e-22
6.850000e+02 4.535394e-22
6.860000e+02 5.196962e-22
6.870000e+02 5.952608e-22
6.880000e+02 6.815363e-22
6.890000e+02 7.800017e-22
6.900000e+02 8.923344e-22
6.910000e+02 1.020437e-21
6.920000e+02 1.166465e-21
6.930000e+02 1.332861e-21
6.940000e+02 1.522393e-21
6.950000e+02 1.738194e-21
6.960000e+02 1.983807e-21
6.970000e+02 2.263245e-21
6.980000e+02 2.581044e-21
6.990000e+02 2.942330e-21
7.000000e+02 3.352898e-21
7.010000e+02 3.819293e-21
7.020000e+02 4.348907e-21
7.030000e+02 4.950083e-21
7.040000e+02 5.632233e-21
7.050000e+02 6.405977e-21
7.060000e+02 7.283286e-21
7.070000e+02 8.277655e-21
7.080000e+02 9.404288e-21
7.090000e+02 1.068031e-20
7.100000e+02 1.212500e-20
7.110000e+02 1.376007e-20
7.120000e+02 1.560992e-20
7.130000e+02 1.770202e-20
7.140000e+02 2.006724e-20
7.150000e+02 2.274029e-20
7.160000e+02 2.576015e-20
7.170000e+02 2.917060e-20
7.180000e+02 3.302081e-20
7.190000e+02 3.736597e-20
7.200000e+02 4.226797e-20
7.210000e+02 4.779625e-20
7.220000e+02 5.402866e-20
7.230000e+02 6.105246e-20
7.240000e+02 6.896542e-20
7.250000e+02 7.787704e-20
7.260000e+02 8.790994e-20
7.270000e+02 9.920136e-20
7.280000e+02 1.119049e-19
7.290000e+02 1.261923e-19
7.300000e+02 1.422556e-19
7.310000e+02 1.603096e-19
7.320000e+02 1.805943e-19
7.330000e+02 2.033776e-19
7.340000e+02 2.289590e-19
7.350000e+02 2.576725e-19
7.360000e+02 2.898913e-19
7.370000e+02 3.260313e-19
7.380000e+02 3.665568e-19
7.390000e+02 4.119851e-19
7.400000e+02 4.628930e-19
7.410000e+02 5.199232e-19
7.420000e+02 5.837916e-19
7.430000e+02 6.552953e-19
7.440000e+02 7.353218e-19
7.450000e+02 8.248588e-19
7.460000e+02 9.250051e-19
7.470000e+02 1.036983e-18
7.480000e+02 1.162150e-18
7.490000e+02 1.302018e-18
7.500000e+02 1.458264e-18
7.510000e+02 1.632753e-18
7.520000e+02 1.827555e-18
7.530000e+02 2.044968e-18
7.540000e+02 2.287543e-18
7.550000e+02 2.558111e-18
7.560000e+02 2.859809e-18
7.570000e+02 3.196121e-18
7.580000e+02 3.570903e-18
7.590000e+02 3.988432e-18
7.600000e+02 4.453447e-18
7.610000e+02 4.971194e-18
7.620000e+02 5.547483e-18
7.630000e+02 6.188747e-18
7.640000e+02 6.902101e-18
7.650000e+02 7.695421e-18
7.660000e+02 8.577414e-18
7.670000e+02 9.557708e-18
7.680000e+02 1.064695e-17
7.690000e+02 1.185689e-17
7.700000e+02 1.320053e-17
7.710000e+02 1.469222e-17
7.720000e+02 1.634781e-17
7.730000e+02 1.818477e-17
7.740000e+02 2.022242e-17
7.750000e+02 2.248203e-17
7.760000e+02 2.498711e-17
7.770000e+02 2.776353e-17
7.780000e+02 3.083984e-17
7.790000e+02 3.424749e-17
7.800000e+02 3.802115e-17
7.810000e+02 4.219897e-17
7.820000e+02 4.682299e-17
7.830000e+02 5.193946e-17
7.840000e+02 5.759933e-17
7.850000e+02 6.385859e-17
7.860000e+02 7.077889e-17
7.870000e+02 7.842800e-17
7.880000e+02 8.688042e-17
7.890000e+02 9.621804e-17
7.900000e+02 1.065308e-16
7.910000e+02 1.179177e-16
7.920000e+02 1.304871e-16
7.930000e+02 1.443584e-16
7.940000e+02 1.596623e-16
7.950000e+02 1.765425e-16
7.960000e+02 1.951565e-16
7.970000e+02 2.156771e-16
7.980000e+02 2.382939e-16
7.990000e+02 2.632146e-16
8.000000e+02 2.906669e-16
8.010000e+02 3.209004e-16
8.020000e+02 3.541885e-16
8.030000e+02 3.908305e-16
8.040000e+02 4.311543e-16
8.050000e+02 4.755188e-16
8.060000e+02 5.243168e-16
8.070000e+02 5.779781e-16
8.080000e+02 6.369728e-16
8.090000e+02 7.018151e-16
8.100000e+02 7.730673e-16
8.110000e+02 8.513439e-16
8.120000e+02 9.373165e-16
8.130000e+02 1.031719e-15
8.140000e+02 1.135353e-15
8.150000e+02 1.249094e-15
8.160000e+02 1.373898e-15
8.170000e+02 1.510808e-15
8.180000e+02 1.660963e-15
8.190000e+02 1.825606e-15
8.200000e+02 2.006091e-15
8.210000e+02 2.203897e-15
8.220000e+02 2.420635e-15
8.230000e+02 2.658062e-15
8.240000e+02 2.918093e-15
8.250000e+02 3.202814e-15
8.260000e+02 3.514497e-15
8.270000e+02 3.855618e-15
8.280000e+02 4.228870e-15
8.290000e+02 4.637189e-15
8.300000e+02 5.083767e-15
8.310000e+02 5.572078e-15
8.320000e+02 6.105903e-15
8.330000e+02 6.689352e-15
8.340000e+02 7.326896e-15
8.350000e+02 8.023395e-15
8.360000e+02 8.784133e-15
8.370000e+02 9.614850e-15
8.380000e+02 1.052178e-14
8.390000e+02 1.151171e-14
8.400000e+02 1.259198e-14
8.410000e+02 1.377060e-14
8.420000e+02 1.505623e-14
8.430000e+02 1.645828e-14
8.440000e+02 1.798697e-14
8.450000e+02 1.965338e-14
8.460000e+02 2.146953e-14
8.470000e+02 2.344844e-14
8.480000e+02 2.560426e-14
8.490000e+02 2.795230e-14
8.500000e+02 3.050915e-14
8.510000e+02 3.329280e-14
8.520000e+02 3.632273e-14
8.530000e+02 3.962005e-14
8.540000e+02 4.320761e-14
8.550000e+02 4.711014e-14
8.560000e+02 5.135442e-14
8.570000e+02 5.596943e-14
8.580000e+02 6.098652e-14
8.590000e+02 6.643961e-14
8.600000e+02 7.236539e-14
8.610000e+02 7.880351e-14
8.620000e+02 8.579687e-14
8.630000e+02 9.339181e-14
8.640000e+02 1.016384e-13
8.650000e+02 1.105909e-13
8.660000e+02 1.203076e-13
8.670000e+02 1.308518e-13
8.680000e+02 1.422915e-13
8.690000e+02 1.547006e-13
8.700000e+02 1.681584e-13
8.710000e+02 1.827507e-13
8.720000e+02 1.985700e-13
8.730000e+02 2.157163e-13
8.740000e+02 2.342972e-13
8.750000e+02 2.544288e-13
8.760000e+02 2.762365e-13
8.770000e+02 2.998551e-13
8.780000e+02 3.254302e-13
8.790000e+02 3.531186e-13
8.800000e+02 3.830893e-13
8.810000e+02 4.155241e-13
8.820000e+02 4.506191e-13
8.830000e+02 4.885853e-13
8.840000e+02 5.296501e-13
8.850000e+02 5.740578e-13
8.860000e+02 6.220718e-13
8.870000e+02 6.739753e-13
8.880000e+02 7.300730e-13
8.890000e+02 7.906928e-13
8.900000e+02 8.561870e-13
8.910000e+02 9.269349e-13
8.920000e+02 1.003344e-12
8.930000e+02 1.085852e-12
8.940000e+02 1.174929e-12
8.950000e+02 1.271083e-12
8.960000e+02 1.374855e-12
8.970000e+02 1.486829e-12
8.980000e+02 1.607634e-12
8.990000e+02 1.737940e-12
9.000000e+02 1.878472e-12
9.010000e+02 2.030004e-12
9.020000e+02 2.193369e-12
9.030000e+02 2.369461e-12
9.040000e+02 2.559236e-12
9.050000e+02 2.763724e-12
9.060000e+02 2.984026e-12
9.070000e+02 3.221324e-12
9.080000e+02 3.476886e-12
9.090000e+02 3.752069e-12
9.100000e+02 4.048330e-12
9.110000e+02 4.367229e-12
9.120000e+02 4.710436e-12
9.130000e+02 5.079743e-12
9.140000e+02 5.528689e-12
9.150000e+02 1.834664e-09
9.160000e+02 1.691454e-08
9.170000e+02 2.177279e-09
9.180000e+02 2.416226e-09
9.190000e+02 5.718384e-08
9.200000e+02 2.040776e-07
9.210000e+02 9.234880e-12
9.220000e+02 2.516831e-07
9.230000e+02 7.738099e-10
9.240000e+02 5.182102e-09
9.250000e+02 8.772079e-08
9.260000e+02 3.633162e-09
9.270000e+02 4.461414e-09
9.280000e+02 1.730809e-06
9.290000e+02 1.607138e-06
9.300000e+02 2.436784e-07
9.310000e+02 1.931374e-09
9.320000e+02 1.178309e-06
9.330000e+02 1.124388e-06
9.340000e+02 3.012026e-07
9.350000e+02 1.662972e-09
9.360000e+02 2.072692e-08
9.370000e+02 4.241567e-10
9.380000e+02 7.277230e-10
9.390000e+02 5.971509e-08
9.400000e+02 3.304095e-06
9.410000e+02 4.687808e-08
9.420000e+02 6.050095e-06
9.430000e+02 1.442163e-07
9.440000e+02 6.973680e-06
9.450000e+02 6.831178e-06
9.460000e+02 3.115492e-06
9.470000e+02 1.221963e-09
9.480000e+02 1.188557e-06
9.490000e+02 9.110705e-08
9.500000e+02 6.028801e-10
9.510000e+02 6.147698e-07
9.520000e+02 2.993065e-06
9.530000e+02 2.012712e-08
9.540000e+02 1.399442e-09
9.550000e+02 3.633513e-07
9.560000e+02 6.270292e-06
9.570000e+02 8.694406e-08
9.580000e+02 4.333742e-10
9.590000e+02 1.349441e-05
9.600000e+02 2.777824e-09
9.610000e+02 7.229191e-06
9.620000e+02 2.498045e-06
9.630000e+02 1.391818e-07
9.640000e+02 1.244689e-08
9.650000e+02 4.618414e-09
9.660000e+02 4.161411e-07
9.670000e+02 3.905916e-08
9.680000e+02 2.491470e-08
9.690000e+02 2.547798e-06
9.700000e+02 2.659174e-06
9.710000e+02 5.223798e-08
9.720000e+02 7.971263e-09
9.730000e+02 1.393500e-08
9.740000e+02 7.870717e-07
9.750000e+02 7.592855e-07
9.760000e+02 1.438793e-05
9.770000e+02 1.592658e-05
9.780000e+02 9.151444e-06
9.790000e+02 4.009016e-05
9.800000e+02 4.589511e-05
9.810000e+02 6.707800e-06
9.820000e+02 6.777809e-07
9.830000e+02 5.524666e-05
9.840000e+02 7.286084e-07
9.850000e+02 2.181052e-06
9.860000e+02 2.501949e-06
9.870000e+02 6.687449e-05
9.880000e+02 1.522858e-08
9.890000e+02 3.720663e-05
9.900000e+02 2.088209e-05
9.910000e+02 6.026537e-07
9.920000e+02 2.889156e-09
9.930000e+02 7.003545e-05
9.940000e+02 2.190973e-09
9.950000e+02 2.098001e-06
9.960000e+02 7.677590e-08
9.970000e+02 1.214655e-07
9.980000e+02 8.079934e-05
9.990000e+02 9.485812e-07
1.000000e+03 1.338567e-04
1.001000e+03 1.235778e-04
1.002000e+03 1.520414e-04
1.003000e+03 1.018327e-06
1.004000e+03 2.500019e-08
1.005000e+03 6.336399e-06
1.006000e+03 1.629658e-04
1.007000e+03 1.840216e-04
1.008000e+03 1.453418e-04
1.009000e+03 1.143102e-06
1.010000e+03 1.472548e-04
1.011000e+03 1.690432e-04
1.012000e+03 1.769789e-04
1.013000e+03 1.730955e-04
1.014000e+03 1.111039e-08
1.015000e+03 4.986941e-08
1.016000e+03 5.288792e-06
1.017000e+03 8.745701e-09
1.018000e+03 1.454348e-06
1.019000e+03 4.579488e-08
1.020000e+03 1.179602e-04
1.021000e+03 1.662440e-06
1.022000e+03 3.868419e-06
1.023000e+03 1.544158e-07
1.024000e+03 3.947142e-06
1.025000e+03 1.061626e-08
1.026000e+03 1.389482e-08
1.027000e+03 1.568268e-06
1.028000e+03 1.049266e-07
1.029000e+03 1.993612e-08
1.030000e+03 2.851355e-05
1.031000e+03 8.580173e-05
1.032000e+03 3.561323e-04
1.033000e+03 1.796026e-06
1.034000e+03 1.228013e-04
1.035000e+03 5.227048e-08
1.036000e+03 4.871981e-08
1.037000e+03 1.146626e-03
1.038000e+03 2.130342e-03
1.039000e+03 1.500110e-03
1.040000e+03 1.481469e-03
1.041000e+03 2.480872e-03
1.042000e+03 2.662997e-03
1.043000e+03 1.635141e-03
1.044000e+03 3.543700e-03
1.045000e+03 8.017128e-08
1.046000e+03 1.537290e-03
1.047000e+03 5.130311e-04
1.048000e+03 2.607470e-06
1.049000e+03 5.294540e-04
1.050000e+03 5.922769e-05
1.051000e+03 2.219155e-05
1.052000e+03 4.384402e-03
1.053000e+03 5.342764e-03
1.054000e+03 9.243377e-08
1.055000e+03 4.816515e-03
1.056000e+03 5.514285e-03
1.057000e+03 1.523859e-03
1.058000e+03 2.566310e-05
1.059000e+03 1.082197e-05
1.060000e+03 3.205612e-06
1.061000e+03 3.619002e-03
1.062000e+03 1.113708e-05
1.063000e+03 1.274812e-05
1.064000e+03 1.443550e-07
1.065000e+03 1.597218e-07
1.066000e+03 1.640123e-03
1.067000e+03 1.708549e-05
1.068000e+03 9.696844e-03
1.069000e+03 2.824330e-06
1.070000e+03 5.483301e-04
1.071000e+03 8.870776e-03
1.072000e+03 1.119930e-02
1.073000e+03 4.572794e-07
1.074000e+03 2.176825e-03
1.075000e+03 1.104404e-03
1.076000e+03 6.936484e-03
1.077000e+03 4.925998e-06
1.078000e+03 3.376044e-05
1.079000e+03 3.168154e-04
1.080000e+03 1.796137e-03
1.081000e+03 1.092322e-02
1.082000e+03 6.837283e-03
1.083000e+03 3.725082e-03
1.084000e+03 1.733612e-02
1.085000e+03 4.160013e-04
1.086000e+03 1.985966e-02
1.087000e+03 4.410557e-05
1.088000e+03 2.160377e-02
1.089000e+03 2.209100e-02
1.090000e+03 3.120256e-04
1.091000e+03 6.000251e-04
1.092000e+03 2.248460e-02
1.093000e+03 2.473648e-02
1.094000e+03 7.044686e-03
1.095000e+03 2.788568e-02
1.096000e+03 5.354034e-04
1.097000e+03 2.458351e-02
1.098000e+03 2.896682e-02
1.099000e+03 1.393743e-03
1.100000e+03 7.451425e-06
1.101000e+03 2.565044e-05
1.102000e+03 9.721287e-04
1.103000e+03 3.622757e-02
1.104000e+03 3.840135e-02
1.105000e+03 3.922893e-02
1.106000e+03 7.461391e-03
1.107000e+03 1.797453e-05
1.108000e+03 3.540317e-02
1.109000e+03 3.937893e-04
1.110000e+03 4.474984e-02
1.111000e+03 4.227593e-02
1.112000e+03 2.507692e-02
1.113000e+03 3.647035e-02
1.114000e+03 1.212054e-02
1.115000e+03 3.915345e-04
1.116000e+03 1.008019e-04
1.117000e+03 5.565042e-02
1.118000e+03 7.166527e-04
1.119000e+03 2.746699e-02
1.120000e+03 1.903959e-04
1.121000e+03 5.824439e-02
1.122000e+03 6.989919e-02
1.123000e+03 8.573493e-02
1.124000e+03 1.004250e-01
1.125000e+03 8.027194e-02
1.126000e+03 9.485053e-02
1.127000e+03 7.909895e-02
1.128000e+03 6.594288e-02
1.129000e+03 5.088407e-02
1.130000e+03 7.768689e-02
1.131000e+03 6.444506e-02
1.132000e+03 3.234707e-04
1.133000e+03 6.262764e-03
1.134000e+03 5.617929e-02
1.135000e+03 2.983820e-02
1.136000e+03 1.180572e-02
1.137000e+03 5.639134e-02
1.138000e+03 4.607485e-02
1.139000e+03 6.795982e-02
1.140000e+03 6.537778e-02
1.141000e+03 6.312937e-02
1.142000e+03 6.665847e-02
1.143000e+03 4.510953e-02
1.144000e+03 6.430455e-02
1.145000e+03 1.614913e-04
1.146000e+03 6.968605e-02
1.147000e+03 6.967599e-02
1.148000e+03 2.275445e-03
1.149000e+03 6.605889e-02
1.150000e+03 6.473016e-02
1.151000e+03 6.844637e-02
1.152000e+03 6.435987e-02
1.153000e+03 6.557436e-02
1.154000e+03 6.439847e-02
1.155000e+03 6.108197e-02
1.156000e+03 4.871360e-02
1.157000e+03 6.020658e-02
1.158000e+03 4.686799e-02
1.159000e+03 6.186853e-02
1.160000e+03 5.089678e-02
1.161000e+03 5.699480e-02
1.162000e+03 9.353299e-03
1.163000e+03 2.863740e-02
1.164000e+03 9.733066e-05
1.165000e+03 3.227026e-02
1.166000e+03 1.657995e-02
1.167000e+03 1.065612e-02
1.168000e+03 6.403551e-02
1.169000e+03 6.490139e-02
1.170000e+03 1.087736e-02
1.171000e+03 2.922760e-02
1.172000e+03 2.269066e-02
1.173000e+03 1.966174e-02
1.174000e+03 1.153871e-03
1.175000e+03 9.083748e-05
1.176000e+03 2.951734e-05
1.177000e+03 8.188118e-02
1.178000e+03 7.736650e-02
1.179000e+03 7.335168e-02
1.180000e+03 6.439453e-02
1.181000e+03 6.627615e-02
1.182000e+03 6.389403e-02
1.183000e+03 5.816230e-02
1.184000e+03 5.577561e-02
1.185000e+03 5.431102e-02
1.186000e+03 6.731520e-03
1.187000e+03 5.236143e-02
1.188000e+03 4.685154e-02
1.189000e+03 5.000186e-02
1.190000e+03 4.843081e-02
1.191000e+03 4.534731e-02
1.192000e+03 4.085131e-02
1.193000e+03 3.979608e-02
1.194000e+03 3.887548e-02
1.195000e+03 3.694551e-02
1.196000e+03 5.478677e-01
1.197000e+03 5.306392e-01
1.198000e+03 3.858119e-02
1.199000e+03 4.649827e-01
1.200000e+03 1.329547e-01
1.201000e+03 3.802947e-01
1.202000e+03 3.031754e-01
1.203000e+03 2.887683e-01
1.204000e+03 1.059686e-01
1.205000e+03 1.944382e-01
1.206000e+03 1.513759e-01
1.207000e+03 1.757031e-02
1.208000e+03 6.898249e-02
1.209000e+03 5.010470e-02
1.210000e+03 1.648273e-04
1.211000e+03 1.650203e-02
1.212000e+03 7.675347e-03
1.213000e+03 3.025240e-03
1.214000e+03 8.086938e-04
1.215000e+03 1.344492e-04
1.216000e+03 1.185483e-04
1.217000e+03 4.946503e-04
1.218000e+03 2.435790e-03
1.219000e+03 7.327868e-03
1.220000e+03 1.606223e-02
1.221000e+03 3.539301e-02
1.222000e+03 6.562657e-02
1.223000e+03 1.045094e-01
1.224000e+03 1.518962e-01
1.225000e+03 4.447560e-02
1.226000e+03 3.251905e-01
1.227000e+03 4.360660e-01
1.228000e+03 3.706112e-01
1.229000e+03 6.771342e-01
1.230000e+03 5.649737e-01
1.231000e+03 2.918618e-01
1.232000e+03 1.085313e+00
1.233000e+03 1.238334e+00
1.234000e+03 1.069593e+00
1.235000e+03 1.519689e+00
1.236000e+03 1.002289e+00
1.237000e+03 1.806893e+00
1.238000e+03 1.945576e+00
1.239000e+03 1.956838e+00
1.240000e+03 3.205118e-01
1.241000e+03 2.082328e+00
1.242000e+03 2.464184e+00
1.243000e+03 2.618446e+00
1.244000e+03 2.759439e+00
1.245000e+03 2.870314e+00
1.246000e+03 2.915547e+00
1.247000e+03 3.080345e+00
1.248000e+03 2.182371e+00
1.249000e+03 3.361338e+00
1.250000e+03 2.940371e+00
1.251000e+03 3.661283e+00
1.252000e+03 3.595982e+00
1.253000e+03 3.855037e+00
1.254000e+03 3.830388e+00
1.255000e+03 1.034310e+00
1.256000e+03 3.586557e+00
1.257000e+03 2.787073e+00
1.258000e+03 3.843570e+00
1.259000e+03 4.043411e+00
1.260000e+03 4.485985e+00
1.261000e+03 1.171894e-01
1.262000e+03 4.665612e+00
1.263000e+03 4.213660e+00
1.264000e+03 4.418792e+00
1.265000e+03 1.404584e+00
1.266000e+03 5.450961e+00
1.267000e+03 5.628533e+00
