# wavelength_A flux
5.000000e+02 1.057448e-40
5.010000e+02 1.392456e-40
5.020000e+02 1.831553e-40
5.030000e+02 2.406450e-40
5.040000e+02 3.158317e-40
5.050000e+02 4.141776e-40
5.060000e+02 5.423866e-40
5.070000e+02 7.095110e-40
5.080000e+02 9.271397e-40
5.090000e+02 1.210220e-39
5.100000e+02 1.577669e-39
5.110000e+02 2.055513e-39
5.120000e+02 2.674607e-39
5.130000e+02 3.476560e-39
5.140000e+02 4.514258e-39
5.150000e+02 5.855641e-39
5.160000e+02 7.587810e-39
5.170000e+02 9.822351e-39
5.180000e+02 1.270204e-38
5.190000e+02 1.640943e-38
5.200000e+02 2.117764e-38
5.210000e+02 2.730415e-38
5.220000e+02 3.516803e-38
5.230000e+02 4.525235e-38
5.240000e+02 5.817115e-38
5.250000e+02 7.470521e-38
5.260000e+02 9.584583e-38
5.270000e+02 1.228506e-37
5.280000e+02 1.573132e-37
5.290000e+02 2.012516e-37
5.300000e+02 2.572185e-37
5.310000e+02 3.284400e-37
5.320000e+02 4.189896e-37
5.330000e+02 5.340060e-37
5.340000e+02 6.799654e-37
5.350000e+02 8.650231e-37
5.360000e+02 1.099439e-36
5.370000e+02 1.396028e-36
5.380000e+02 1.771225e-36
5.390000e+02 2.245110e-36
5.400000e+02 2.843236e-36
5.410000e+02 3.597505e-36
5.420000e+02 4.547844e-36
5.430000e+02 5.744172e-36
5.440000e+02 7.248851e-36
5.450000e+02 9.139716e-36
5.460000e+02 1.151384e-35
5.470000e+02 1.449219e-35
5.480000e+02 1.822535e-35
5.490000e+02 2.290065e-35
5.500000e+02 2.875094e-35
5.510000e+02 3.606539e-35
5.520000e+02 4.520279e-35
5.530000e+02 5.660805e-35
5.540000e+02 7.083230e-35
5.550000e+02 8.855776e-35
5.560000e+02 1.106282e-34
5.570000e+02 1.380865e-34
5.580000e+02 1.722204e-34
5.590000e+02 2.146188e-34
5.600000e+02 2.672407e-34
5.610000e+02 3.324995e-34
5.620000e+02 4.133661e-34
5.630000e+02 5.134948e-34
5.640000e+02 6.373770e-34
5.650000e+02 7.905287e-34
5.660000e+02 9.797193e-34
5.670000e+02 1.213250e-33
5.680000e+02 1.501292e-33
5.690000e+02 1.856300e-33
5.700000e+02 2.293513e-33
5.710000e+02 2.831559e-33
5.720000e+02 3.493201e-33
5.730000e+02 4.306223e-33
5.740000e+02 5.304521e-33
5.750000e+02 6.529417e-33
5.760000e+02 8.031243e-33
5.770000e+02 9.871269e-33
5.780000e+02 1.212402e-32
5.790000e+02 1.488009e-32
5.800000e+02 1.824951e-32
5.810000e+02 2.236584e-32
5.820000e+02 2.739109e-32
5.830000e+02 3.352162e-32
5.840000e+02 4.099527e-32
5.850000e+02 5.009999e-32
5.860000e+02 6.118399e-32
5.870000e+02 7.466824e-32
5.880000e+02 9.106123e-32
5.890000e+02 1.109768e-31
5.900000e+02 1.351554e-31
5.910000e+02 1.644897e-31
5.920000e+02 2.000551e-31
5.930000e+02 2.431463e-31
5.940000e+02 2.953210e-31
5.950000e+02 3.584520e-31
5.960000e+02 4.347897e-31
5.970000e+02 5.270362e-31
5.980000e+02 6.384343e-31
5.990000e+02 7.728723e-31
6.000000e+02 9.350109e-31
6.010000e+02 1.130432e-30
6.020000e+02 1.365816e-30
6.030000e+02 1.649155e-30
6.040000e+02 1.990003e-30
6.050000e+02 2.399774e-30
6.060000e+02 2.892096e-30
6.070000e+02 3.483231e-30
6.080000e+02 4.192567e-30
6.090000e+02 5.043217e-30
6.100000e+02 6.062705e-30
6.110000e+02 7.283793e-30
6.120000e+02 8.745458e-30
6.130000e+02 1.049404e-29
6.140000e+02 1.258459e-29
6.150000e+02 1.508249e-29
6.160000e+02 1.806534e-29
6.170000e+02 2.162517e-29
6.180000e+02 2.587106e-29
6.190000e+02 3.093227e-29
6.200000e+02 3.696183e-29
6.210000e+02 4.414082e-29
6.220000e+02 5.268340e-29
6.230000e+02 6.284271e-29
6.240000e+02 7.491780e-29
6.250000e+02 8.926173e-29
6.260000e+02 1.062911e-28
6.270000e+02 1.264973e-28
6.280000e+02 1.504594e-28
6.290000e+02 1.788596e-28
6.300000e+02 2.125011e-28
6.310000e+02 2.523293e-28
6.320000e+02 2.994556e-28
6.330000e+02 3.551869e-28
6.340000e+02 4.210583e-28
6.350000e+02 4.988722e-28
6.360000e+02 5.907442e-28
6.370000e+02 6.991556e-28
6.380000e+02 8.270150e-28
6.390000e+02 9.777309e-28
6.400000e+02 1.155295e-27
6.410000e+02 1.364378e-27
6.420000e+02 1.610447e-27
6.430000e+02 1.899892e-27
6.440000e+02 2.240182e-27
6.450000e+02 2.640039e-27
6.460000e+02 3.109650e-27
6.470000e+02 3.660899e-27
6.480000e+02 4.307645e-27
6.490000e+02 5.066047e-27
6.500000e+02 5.954931e-27
6.510000e+02 6.996219e-27
6.520000e+02 8.215429e-27
6.530000e+02 9.642249e-27
6.540000e+02 1.131120e-26
6.550000e+02 1.326240e-26
6.560000e+02 1.554247e-26
6.570000e+02 1.820552e-26
6.580000e+02 2.131435e-26
6.590000e+02 2.494185e-26
6.600000e+02 2.917247e-26
6.610000e+02 3.410413e-26
6.620000e+02 3.985022e-26
6.630000e+02 4.654206e-26
6.640000e+02 5.433161e-26
6.650000e+02 6.339462e-26
6.660000e+02 7.393433e-26
6.670000e+02 8.618560e-26
6.680000e+02 1.004197e-25
6.690000e+02 1.169500e-25
6.700000e+02 1.361378e-25
6.710000e+02 1.584002e-25
6.720000e+02 1.842181e-25
6.730000e+02 2.141456e-25
6.740000e+02 2.488212e-25
6.750000e+02 2.889798e-25
6.760000e+02 3.354677e-25
6.770000e+02 3.892582e-25
6.780000e+02 4.514707e-25
6.790000e+02 5.233919e-25
6.800000e+02 6.065002e-25
6.810000e+02 7.024933e-25
6.820000e+02 8.133203e-25
6.830000e+02 9.412178e-25
6.840000e+02 1.088751e-24
6.850000e+02 1.258860e-24
6.860000e+02 1.454917e-24
6.870000e+02 1.680782e-24
6.880000e+02 1.940875e-24
6.890000e+02 2.240257e-24
6.900000e+02 2.584717e-24
6.910000e+02 2.980876e-24
6.920000e+02 3.436301e-24
6.930000e+02 3.959640e-24
6.940000e+02 4.560772e-24
6.950000e+02 5.250973e-24
6.960000e+02 6.043116e-24
6.970000e+02 6.951883e-24
6.980000e+02 7.994020e-24
6.990000e+02 9.188613e-24
7.000000e+02 1.055741e-23
7.010000e+02 1.212519e-23
7.020000e+02 1.392014e-23
7.030000e+02 1.597438e-23
7.040000e+02 1.832442e-23
7.050000e+02 2.101178e-23
7.060000e+02 2.408367e-23
7.070000e+02 2.759374e-23
7.080000e+02 3.160292e-23
7.090000e+02 3.618040e-23
7.100000e+02 4.140470e-23
7.110000e+02 4.736493e-23
7.120000e+02 5.416214e-23
7.130000e+02 6.191090e-23
7.140000e+02 7.074103e-23
7.150000e+02 8.079965e-23
7.160000e+02 9.225334e-23
7.170000e+02 1.052907e-22
7.180000e+02 1.201250e-22
7.190000e+02 1.369978e-22
7.200000e+02 1.561821e-22
7.210000e+02 1.779863e-22
7.220000e+02 2.027592e-22
7.230000e+02 2.308946e-22
7.240000e+02 2.628373e-22
7.250000e+02 2.990893e-22
7.260000e+02 3.402170e-22
7.270000e+02 3.868594e-22
7.280000e+02 4.397369e-22
7.290000e+02 4.996614e-22
7.300000e+02 5.675482e-22
7.310000e+02 6.444277e-22
7.320000e+02 7.314604e-22
7.330000e+02 8.299526e-22
7.340000e+02 9.413741e-22
7.350000e+02 1.067378e-21
7.360000e+02 1.209824e-21
7.370000e+02 1.370801e-21
7.380000e+02 1.552657e-21
7.390000e+02 1.758030e-21
7.400000e+02 1.989881e-21
7.410000e+02 2.251536e-21
7.420000e+02 2.546726e-21
7.430000e+02 2.879635e-21
7.440000e+02 3.254958e-21
7.450000e+02 3.677956e-21
7.460000e+02 4.154526e-21
7.470000e+02 4.691275e-21
7.480000e+02 5.295602e-21
7.490000e+02 5.975791e-21
7.500000e+02 6.741114e-21
7.510000e+02 7.601943e-21
7.520000e+02 8.569885e-21
7.530000e+02 9.657912e-21
7.540000e+02 1.088053e-20
7.550000e+02 1.225394e-20
7.560000e+02 1.379626e-20
7.570000e+02 1.552769e-20
7.580000e+02 1.747082e-20
7.590000e+02 1.965083e-20
7.600000e+02 2.209583e-20
7.610000e+02 2.483718e-20
7.620000e+02 2.790982e-20
7.630000e+02 3.135273e-20
7.640000e+02 3.520932e-20
7.650000e+02 3.952798e-20
7.660000e+02 4.436256e-20
7.670000e+02 4.977305e-20
7.680000e+02 5.582620e-20
7.690000e+02 6.259629e-20
7.700000e+02 7.016593e-20
7.710000e+02 7.862700e-20
7.720000e+02 8.808164e-20
7.730000e+02 9.864337e-20
7.740000e+02 1.104383e-19
7.750000e+02 1.236065e-19
7.760000e+02 1.383035e-19
7.770000e+02 1.547019e-19
7.780000e+02 1.729935e-19
7.790000e+02 1.933907e-19
7.800000e+02 2.161293e-19
7.810000e+02 2.414707e-19
7.820000e+02 2.697048e-19
7.830000e+02 3.011526e-19
7.840000e+02 3.361699e-19
7.850000e+02 3.751508e-19
7.860000e+02 4.185315e-19
7.870000e+02 4.667949e-19
7.880000e+02 5.204755e-19
7.890000e+02 5.801645e-19
7.900000e+02 6.465158e-19
7.910000e+02 7.202525e-19
7.920000e+02 8.021738e-19
7.930000e+02 8.931631e-19
7.940000e+02 9.941959e-19
7.950000e+02 1.106351e-18
7.960000e+02 1.230817e-18
7.970000e+02 1.368909e-18
7.980000e+02 1.522076e-18
7.990000e+02 1.691919e-18
8.000000e+02 1.880202e-18
8.010000e+02 2.088871e-18
8.020000e+02 2.320072e-18
8.030000e+02 2.576169e-18
8.040000e+02 2.859767e-18
8.050000e+02 3.173738e-18
8.060000e+02 3.521241e-18
8.070000e+02 3.905758e-18
8.080000e+02 4.331119e-18
8.090000e+02 4.801541e-18
8.100000e+02 5.321662e-18
8.110000e+02 5.896583e-18
8.120000e+02 6.531915e-18
8.130000e+02 7.233826e-18
8.140000e+02 8.009094e-18
8.150000e+02 8.865168e-18
8.160000e+02 9.810228e-18
8.170000e+02 1.085326e-17
8.180000e+02 1.200414e-17
8.190000e+02 1.327369e-17
8.200000e+02 1.467380e-17
8.210000e+02 1.621750e-17
8.220000e+02 1.791912e-17
8.230000e+02 1.979433e-17
8.240000e+02 2.186033e-17
8.250000e+02 2.413598e-17
8.260000e+02 2.664194e-17
8.270000e+02 2.940085e-17
8.280000e+02 3.243750e-17
8.290000e+02 3.577904e-17
8.300000e+02 3.945520e-17
8.310000e+02 4.349852e-17
8.320000e+02 4.794460e-17
8.330000e+02 5.283239e-17
8.340000e+02 5.820450e-17
8.350000e+02 6.410754e-17
8.360000e+02 7.059243e-17
8.370000e+02 7.771486e-17
8.380000e+02 8.553567e-17
8.390000e+02 9.412134e-17
8.400000e+02 1.035445e-16
8.410000e+02 1.138844e-16
8.420000e+02 1.252276e-16
8.430000e+02 1.376687e-16
8.440000e+02 1.513108e-16
8.450000e+02 1.662663e-16
8.460000e+02 1.826580e-16
8.470000e+02 2.006199e-16
8.480000e+02 2.202977e-16
8.490000e+02 2.418506e-16
8.500000e+02 2.654521e-16
8.510000e+02 2.912910e-16
8.520000e+02 3.195731e-16
8.530000e+02 3.505226e-16
8.540000e+02 3.843836e-16
8.550000e+02 4.214218e-16
8.560000e+02 4.619265e-16
8.570000e+02 5.062124e-16
8.580000e+02 5.546219e-16
8.590000e+02 6.075276e-16
8.600000e+02 6.653344e-16
8.610000e+02 7.284829e-16
8.620000e+02 7.974517e-16
8.630000e+02 8.727614e-16
8.640000e+02 9.549771e-16
8.650000e+02 1.044713e-15
8.660000e+02 1.142637e-15
8.670000e+02 1.249473e-15
8.680000e+02 1.366008e-15
8.690000e+02 1.493095e-15
8.700000e+02 1.631661e-15
8.710000e+02 1.782711e-15
8.720000e+02 1.947337e-15
8.730000e+02 2.126721e-15
8.740000e+02 2.322145e-15
8.750000e+02 2.535002e-15
8.760000e+02 2.766797e-15
8.770000e+02 3.019166e-15
8.780000e+02 3.293877e-15
8.790000e+02 3.592848e-15
8.800000e+02 3.918157e-15
8.810000e+02 4.272052e-15
8.820000e+02 4.656968e-15
8.830000e+02 5.075541e-15
8.840000e+02 5.530624e-15
8.850000e+02 6.025302e-15
8.860000e+02 6.562915e-15
8.870000e+02 7.147074e-15
8.880000e+02 7.781685e-15
8.890000e+02 8.470969e-15
8.900000e+02 9.219492e-15
8.910000e+02 1.003219e-14
8.920000e+02 1.091438e-14
8.930000e+02 1.187184e-14
8.940000e+02 1.291078e-14
8.950000e+02 1.403793e-14
8.960000e+02 1.526053e-14
8.970000e+02 1.658641e-14
8.980000e+02 1.802404e-14
8.990000e+02 1.958253e-14
9.000000e+02 2.127173e-14
9.010000e+02 2.310225e-14
9.020000e+02 2.508555e-14
9.030000e+02 2.723398e-14
9.040000e+02 2.956085e-14
9.050000e+02 3.208052e-14
9.060000e+02 3.480846e-14
9.070000e+02 3.776135e-14
9.080000e+02 4.095714e-14
9.090000e+02 4.441518e-14
9.100000e+02 4.815632e-14
9.110000e+02 5.220299e-14
9.120000e+02 5.657936e-14
9.130000e+02 6.131144e-14
9.140000e+02 6.992323e-14
9.150000e+02 1.361565e-11
9.160000e+02 9.316115e-11
9.170000e+02 9.885474e-13
9.180000e+02 1.790362e-11
9.190000e+02 2.803846e-10
9.200000e+02 8.169493e-10
9.210000e+02 1.158216e-13
9.220000e+02 3.577914e-10
9.230000e+02 1.286755e-12
9.240000e+02 1.180500e-12
9.250000e+02 3.170050e-11
9.260000e+02 2.781360e-11
9.270000e+02 1.487117e-12
9.280000e+02 5.474030e-09
9.290000e+02 5.365613e-09
9.300000e+02 1.135211e-09
9.310000e+02 2.983210e-12
9.320000e+02 4.372513e-09
9.330000e+02 3.362297e-10
9.340000e+02 5.511591e-11
9.350000e+02 7.630848e-12
9.360000e+02 6.898903e-12
9.370000e+02 1.299090e-12
9.380000e+02 6.373752e-12
9.390000e+02 3.171708e-11
9.400000e+02 4.608148e-09
9.410000e+02 5.025725e-10
9.420000e+02 2.100407e-08
9.430000e+02 5.121414e-11
9.440000e+02 2.393791e-08
9.450000e+02 2.166116e-08
9.460000e+02 1.235393e-09
9.470000e+02 9.672818e-13
9.480000e+02 5.166040e-09
9.490000e+02 6.244030e-10
9.500000e+02 1.351536e-11
9.510000e+02 1.166021e-09
9.520000e+02 3.475732e-09
9.530000e+02 1.090782e-11
9.540000e+02 1.483458e-12
9.550000e+02 1.118625e-10
9.560000e+02 2.225006e-08
9.570000e+02 5.687761e-11
9.580000e+02 1.903089e-12
9.590000e+02 4.685879e-09
9.600000e+02 3.018405e-11
9.610000e+02 2.429083e-09
9.620000e+02 6.778897e-10
9.630000e+02 4.391509e-11
9.640000e+02 1.621875e-11
9.650000e+02 3.823608e-12
9.660000e+02 1.218439e-10
9.670000e+02 1.671951e-11
9.680000e+02 1.222311e-11
9.690000e+02 6.536620e-10
9.700000e+02 2.612468e-09
9.710000e+02 3.399452e-11
9.720000e+02 1.020753e-11
9.730000e+02 1.581180e-10
9.740000e+02 1.598616e-09
9.750000e+02 3.463037e-10
9.760000e+02 3.262377e-08
9.770000e+02 1.237210e-08
9.780000e+02 4.894543e-09
9.790000e+02 1.659950e-07
9.800000e+02 1.179064e-07
9.810000e+02 1.932804e-09
9.820000e+02 2.821121e-10
9.830000e+02 1.144212e-07
9.840000e+02 4.229582e-09
9.850000e+02 6.899010e-10
9.860000e+02 1.245556e-09
9.870000e+02 8.190121e-08
9.880000e+02 1.859490e-11
9.890000e+02 1.720994e-08
9.900000e+02 7.819985e-08
9.910000e+02 4.130146e-10
9.920000e+02 2.059463e-11
9.930000e+02 3.146420e-07
9.940000e+02 3.662515e-11
9.950000e+02 7.294603e-09
9.960000e+02 7.020873e-11
9.970000e+02 2.857976e-08
9.980000e+02 8.819270e-08
9.990000e+02 6.003141e-10
1.000000e+03 6.975865e-07
1.001000e+03 5.320417e-07
1.002000e+03 3.736509e-07
1.003000e+03 5.413341e-10
1.004000e+03 4.729372e-11
1.005000e+03 2.964555e-09
1.006000e+03 2.888889e-07
1.007000e+03 5.479129e-07
1.008000e+03 1.635098e-07
1.009000e+03 8.418033e-10
1.010000e+03 1.244213e-07
1.011000e+03 1.027634e-07
1.012000e+03 2.489515e-07
1.013000e+03 2.580527e-07
1.014000e+03 8.805756e-11
1.015000e+03 1.005844e-10
1.016000e+03 4.980222e-09
1.017000e+03 1.067804e-10
1.018000e+03 8.357262e-10
1.019000e+03 1.230092e-10
1.020000e+03 3.064867e-07
1.021000e+03 3.209692e-09
1.022000e+03 4.280139e-09
1.023000e+03 2.078053e-10
1.024000e+03 4.297402e-08
1.025000e+03 1.776848e-10
1.026000e+03 2.584502e-10
1.027000e+03 1.193775e-08
1.028000e+03 1.361187e-09
1.029000e+03 2.284821e-10
1.030000e+03 1.415617e-08
1.031000e+03 7.358648e-08
1.032000e+03 1.329846e-06
1.033000e+03 1.216645e-08
1.034000e+03 6.878119e-08
1.035000e+03 1.076842e-09
1.036000e+03 3.531682e-10
1.037000e+03 8.238853e-07
1.038000e+03 6.509807e-06
1.039000e+03 1.207223e-06
1.040000e+03 4.166705e-07
1.041000e+03 4.315161e-06
1.042000e+03 4.492181e-06
1.043000e+03 5.987628e-06
1.044000e+03 2.173477e-05
1.045000e+03 9.380323e-10
1.046000e+03 5.308439e-07
1.047000e+03 3.478435e-07
1.048000e+03 2.756167e-09
1.049000e+03 2.230096e-07
1.050000e+03 3.214552e-08
1.051000e+03 1.718581e-08
1.052000e+03 7.342140e-06
1.053000e+03 9.440139e-06
1.054000e+03 1.051831e-09
1.055000e+03 1.161429e-05
1.056000e+03 1.467244e-05
1.057000e+03 1.277616e-06
1.058000e+03 1.455427e-08
1.059000e+03 2.604247e-08
1.060000e+03 4.461981e-09
1.061000e+03 3.466164e-06
1.062000e+03 8.094915e-09
1.063000e+03 1.696953e-06
1.064000e+03 2.706656e-09
1.065000e+03 2.011348e-09
1.066000e+03 5.451560e-06
1.067000e+03 1.994554e-08
1.068000e+03 3.904509e-05
1.069000e+03 4.374243e-09
1.070000e+03 2.055895e-07
1.071000e+03 7.323341e-06
1.072000e+03 7.189837e-05
1.073000e+03 3.197783e-09
1.074000e+03 1.580352e-06
1.075000e+03 7.928902e-07
1.076000e+03 7.664830e-05
1.077000e+03 1.579224e-08
1.078000e+03 2.669913e-08
1.079000e+03 1.539804e-07
1.080000e+03 1.332557e-06
1.081000e+03 1.542458e-05
1.082000e+03 6.127368e-06
1.083000e+03 2.494453e-06
1.084000e+03 1.920647e-04
1.085000e+03 3.560999e-07
1.086000e+03 8.355285e-05
1.087000e+03 5.944457e-08
1.088000e+03 1.834528e-04
1.089000e+03 2.197962e-04
1.090000e+03 2.744332e-07
1.091000e+03 5.444454e-07
1.092000e+03 1.881462e-04
1.093000e+03 2.871116e-04
1.094000e+03 4.310013e-06
1.095000e+03 3.628654e-04
1.096000e+03 1.285077e-05
1.097000e+03 1.007129e-04
1.098000e+03 2.874212e-04
1.099000e+03 1.111475e-06
1.100000e+03 1.671651e-08
1.101000e+03 4.009711e-08
1.102000e+03 9.477736e-07
1.103000e+03 4.858506e-04
1.104000e+03 3.593465e-04
1.105000e+03 4.906332e-04
1.106000e+03 6.685238e-06
1.107000e+03 3.522291e-08
1.108000e+03 9.958777e-05
1.109000e+03 5.305919e-07
1.110000e+03 3.979811e-04
1.111000e+03 3.764977e-04
1.112000e+03 3.198379e-05
1.113000e+03 4.230691e-04
1.114000e+03 1.341088e-05
1.115000e+03 5.132333e-07
1.116000e+03 1.070315e-07
1.117000e+03 5.362059e-04
1.118000e+03 9.928262e-07
1.119000e+03 2.452276e-05
1.120000e+03 2.465385e-07
1.121000e+03 2.785498e-04
1.122000e+03 1.594888e-03
1.123000e+03 8.315451e-04
1.124000e+03 1.059344e-03
1.125000e+03 4.076726e-04
1.126000e+03 2.594052e-03
1.127000e+03 3.439890e-04
1.128000e+03 1.123137e-03
1.129000e+03 1.238959e-04
1.130000e+03 1.169608e-03
1.131000e+03 1.079595e-03
1.132000e+03 4.714129e-07
1.133000e+03 1.013512e-05
1.134000e+03 2.563542e-04
1.135000e+03 1.176236e-03
1.136000e+03 1.910684e-05
1.137000e+03 7.033916e-04
1.138000e+03 1.621950e-04
1.139000e+03 1.080703e-03
1.140000e+03 8.090888e-04
1.141000e+03 1.146818e-03
1.142000e+03 1.136707e-03
1.143000e+03 1.224293e-04
1.144000e+03 1.165552e-03
1.145000e+03 3.491878e-07
1.146000e+03 1.168980e-03
1.147000e+03 1.137686e-03
1.148000e+03 3.605208e-06
1.149000e+03 7.176432e-04
1.150000e+03 6.132813e-04
1.151000e+03 1.083027e-03
1.152000e+03 5.912359e-04
1.153000e+03 1.104886e-03
1.154000e+03 1.183340e-03
1.155000e+03 7.441423e-04
1.156000e+03 8.394570e-04
1.157000e+03 1.031850e-03
1.158000e+03 1.745875e-04
1.159000e+03 1.037769e-03
1.160000e+03 3.232626e-04
1.161000e+03 9.474066e-04
1.162000e+03 2.029614e-05
1.163000e+03 1.201684e-04
1.164000e+03 2.504908e-06
1.165000e+03 4.377399e-04
1.166000e+03 2.366458e-04
1.167000e+03 1.719226e-04
1.168000e+03 1.098716e-03
1.169000e+03 1.189407e-03
1.170000e+03 1.339714e-04
1.171000e+03 5.090703e-04
1.172000e+03 3.253197e-04
1.173000e+03 3.551294e-04
1.174000e+03 2.432702e-06
1.175000e+03 1.705805e-06
1.176000e+03 7.938943e-07
1.177000e+03 1.550962e-03
1.178000e+03 1.468001e-03
1.179000e+03 1.360351e-03
1.180000e+03 9.296161e-04
1.181000e+03 1.249194e-03
1.182000e+03 1.171162e-03
1.183000e+03 8.007957e-04
1.184000e+03 7.048222e-04
1.185000e+03 7.416366e-04
1.186000e+03 1.413634e-05
1.187000e+03 9.580306e-04
1.188000e+03 5.827237e-04
1.189000e+03 9.690271e-04
1.190000e+03 9.395252e-04
1.191000e+03 8.500631e-04
1.192000e+03 7.991473e-04
1.193000e+03 7.395577e-04
1.194000e+03 7.703330e-04
1.195000e+03 7.329474e-04
1.196000e+03 1.433584e-02
1.197000e+03 1.769700e-02
1.198000e+03 5.563116e-05
1.199000e+03 1.397255e-02
1.200000e+03 3.161286e-04
1.201000e+03 9.811833e-03
1.202000e+03 4.011187e-03
1.203000e+03 6.706453e-03
1.204000e+03 4.272268e-04
1.205000e+03 4.137459e-03
1.206000e+03 3.178622e-03
1.207000e+03 4.204819e-04
1.208000e+03 1.534074e-03
1.209000e+03 1.111743e-03
1.210000e+03 4.508940e-06
1.211000e+03 3.948496e-04
1.212000e+03 1.811548e-04
1.213000e+03 8.302804e-05
1.214000e+03 2.480122e-05
1.215000e+03 4.857809e-06
1.216000e+03 4.300640e-06
1.217000e+03 1.615528e-05
1.218000e+03 7.002347e-05
1.219000e+03 1.931916e-04
1.220000e+03 2.395789e-04
1.221000e+03 8.685099e-04
1.222000e+03 1.440226e-03
1.223000e+03 1.770690e-03
1.224000e+03 3.351291e-03
1.225000e+03 1.289858e-04
1.226000e+03 7.894123e-03
1.227000e+03 1.113031e-02
1.228000e+03 1.968783e-03
1.229000e+03 1.734603e-02
1.230000e+03 1.453497e-02
1.231000e+03 7.829554e-04
1.232000e+03 3.574804e-02
1.233000e+03 4.357188e-02
1.234000e+03 4.837511e-02
1.235000e+03 5.327073e-02
1.236000e+03 4.322961e-03
1.237000e+03 7.563473e-02
1.238000e+03 8.054181e-02
1.239000e+03 3.418075e-02
1.240000e+03 2.550744e-02
1.241000e+03 5.181622e-02
1.242000e+03 9.836363e-02
1.243000e+03 1.346937e-01
1.244000e+03 1.476764e-01
1.245000e+03 1.535001e-01
1.246000e+03 1.004182e-01
1.247000e+03 1.390696e-01
1.248000e+03 1.443694e-01
1.249000e+03 2.068483e-01
1.250000e+03 1.375330e-01
1.251000e+03 2.208571e-01
1.252000e+03 1.885814e-01
1.253000e+03 2.381460e-01
1.254000e+03 1.991021e-01
1.255000e+03 3.600961e-02
1.256000e+03 1.408682e-01
1.257000e+03 1.086065e-01
1.258000e+03 9.551808e-02
1.259000e+03 1.362182e-01
1.260000e+03 2.628591e-01
1.261000e+03 2.752066e-03
1.262000e+03 2.730938e-01
1.263000e+03 2.453184e-01
1.264000e+03 1.161023e-01
1.265000e+03 1.928138e-01
1.266000e+03 3.367378e-01
1.267000e+03 2.255686e-01
