# wavelength_A flux
5.000000e+02 5.226064e-33
5.010000e+02 6.642598e-33
5.020000e+02 8.434856e-33
5.030000e+02 1.070031e-32
5.040000e+02 1.356115e-32
5.050000e+02 1.719681e-32
5.060000e+02 2.175188e-32
5.070000e+02 2.748684e-32
5.080000e+02 3.470235e-32
5.090000e+02 4.377037e-32
5.100000e+02 5.508374e-32
5.110000e+02 6.944110e-32
5.120000e+02 8.734284e-32
5.130000e+02 1.097640e-31
5.140000e+02 1.378129e-31
5.150000e+02 1.728735e-31
5.160000e+02 2.166595e-31
5.170000e+02 2.712948e-31
5.180000e+02 3.394063e-31
5.190000e+02 4.242443e-31
5.200000e+02 5.298244e-31
5.210000e+02 6.611040e-31
5.220000e+02 8.241903e-31
5.230000e+02 1.026645e-30
5.240000e+02 1.277726e-30
5.250000e+02 1.588859e-30
5.260000e+02 1.974085e-30
5.270000e+02 2.450649e-30
5.280000e+02 3.039717e-30
5.290000e+02 3.767248e-30
5.300000e+02 4.665050e-30
5.310000e+02 5.772067e-30
5.320000e+02 7.135944e-30
5.330000e+02 8.814923e-30
5.340000e+02 1.088014e-29
5.350000e+02 1.341843e-29
5.360000e+02 1.653566e-29
5.370000e+02 2.035352e-29
5.380000e+02 2.505119e-29
5.390000e+02 3.079775e-29
5.400000e+02 3.783294e-29
5.410000e+02 4.643904e-29
5.420000e+02 5.695892e-29
5.430000e+02 6.980813e-29
5.440000e+02 8.549059e-29
5.450000e+02 1.046166e-28
5.460000e+02 1.279247e-28
5.470000e+02 1.563083e-28
5.480000e+02 1.908468e-28
5.490000e+02 2.328439e-28
5.500000e+02 2.838727e-28
5.510000e+02 3.458304e-28
5.520000e+02 4.210028e-28
5.530000e+02 5.121427e-28
5.540000e+02 6.225623e-28
5.550000e+02 7.562443e-28
5.560000e+02 9.179747e-28
5.570000e+02 1.113500e-27
5.580000e+02 1.349715e-27
5.590000e+02 1.634890e-27
5.600000e+02 1.978931e-27
5.610000e+02 2.393703e-27
5.620000e+02 2.893404e-27
5.630000e+02 3.495011e-27
5.640000e+02 4.218814e-27
5.650000e+02 5.089044e-27
5.660000e+02 6.134618e-27
5.670000e+02 7.390026e-27
5.680000e+02 8.896373e-27
5.690000e+02 1.070262e-26
5.700000e+02 1.286705e-26
5.710000e+02 1.545900e-26
5.720000e+02 1.856086e-26
5.730000e+02 2.227057e-26
5.740000e+02 2.670437e-26
5.750000e+02 3.200018e-26
5.760000e+02 3.832156e-26
5.770000e+02 4.586235e-26
5.780000e+02 5.485205e-26
5.790000e+02 6.556235e-26
5.800000e+02 7.831457e-26
5.810000e+02 9.348859e-26
5.820000e+02 1.115331e-25
5.830000e+02 1.329780e-25
5.840000e+02 1.584480e-25
5.850000e+02 1.886815e-25
5.860000e+02 2.245464e-25
5.870000e+02 2.670662e-25
5.880000e+02 3.174455e-25
5.890000e+02 3.771017e-25
5.900000e+02 4.477009e-25
5.910000e+02 5.312012e-25
5.920000e+02 6.299021e-25
5.930000e+02 7.465025e-25
5.940000e+02 8.841684e-25
5.950000e+02 1.046612e-24
5.960000e+02 1.238181e-24
5.970000e+02 1.463970e-24
5.980000e+02 1.729939e-24
5.990000e+02 2.043061e-24
6.000000e+02 2.411488e-24
6.010000e+02 2.844744e-24
6.020000e+02 3.353953e-24
6.030000e+02 3.952096e-24
6.040000e+02 4.654318e-24
6.050000e+02 5.478277e-24
6.060000e+02 6.444546e-24
6.070000e+02 7.577089e-24
6.080000e+02 8.903797e-24
6.090000e+02 1.045712e-23
6.100000e+02 1.227480e-23
6.110000e+02 1.440067e-23
6.120000e+02 1.688569e-23
6.130000e+02 1.978898e-23
6.140000e+02 2.317916e-23
6.150000e+02 2.713583e-23
6.160000e+02 3.175123e-23
6.170000e+02 3.713224e-23
6.180000e+02 4.340263e-23
6.190000e+02 5.070564e-23
6.200000e+02 5.920699e-23
6.210000e+02 6.909828e-23
6.220000e+02 8.060096e-23
6.230000e+02 9.397080e-23
6.240000e+02 1.095031e-22
6.250000e+02 1.275386e-22
6.260000e+02 1.484704e-22
6.270000e+02 1.727516e-22
6.280000e+02 2.009043e-22
6.290000e+02 2.335299e-22
6.300000e+02 2.713206e-22
6.310000e+02 3.150726e-22
6.320000e+02 3.657030e-22
6.330000e+02 4.242638e-22
6.340000e+02 4.919655e-22
6.350000e+02 5.701976e-22
6.360000e+02 6.605553e-22
6.370000e+02 7.648690e-22
6.380000e+02 8.852378e-22
6.390000e+02 1.024068e-21
6.400000e+02 1.184118e-21
6.410000e+02 1.368544e-21
6.420000e+02 1.580962e-21
6.430000e+02 1.825509e-21
6.440000e+02 2.106917e-21
6.450000e+02 2.430594e-21
6.460000e+02 2.802723e-21
6.470000e+02 3.230363e-21
6.480000e+02 3.721578e-21
6.490000e+02 4.285567e-21
6.500000e+02 4.932825e-21
6.510000e+02 5.675320e-21
6.520000e+02 6.526691e-21
6.530000e+02 7.502479e-21
6.540000e+02 8.620379e-21
6.550000e+02 9.900535e-21
6.560000e+02 1.136587e-20
6.570000e+02 1.304245e-20
6.580000e+02 1.495990e-20
6.590000e+02 1.715192e-20
6.600000e+02 1.965675e-20
6.610000e+02 2.251784e-20
6.620000e+02 2.578448e-20
6.630000e+02 2.951262e-20
6.640000e+02 3.376567e-20
6.650000e+02 3.861556e-20
6.660000e+02 4.414376e-20
6.670000e+02 5.044257e-20
6.680000e+02 5.761648e-20
6.690000e+02 6.578377e-20
6.700000e+02 7.507825e-20
6.710000e+02 8.565122e-20
6.720000e+02 9.767376e-20
6.730000e+02 1.113392e-19
6.740000e+02 1.268658e-19
6.750000e+02 1.445001e-19
6.760000e+02 1.645204e-19
6.770000e+02 1.872407e-19
6.780000e+02 2.130151e-19
6.790000e+02 2.422427e-19
6.800000e+02 2.753735e-19
6.810000e+02 3.129143e-19
6.820000e+02 3.554358e-19
6.830000e+02 4.035806e-19
6.840000e+02 4.580717e-19
6.850000e+02 5.197223e-19
6.860000e+02 5.894469e-19
6.870000e+02 6.682737e-19
6.880000e+02 7.573575e-19
6.890000e+02 8.579959e-19
6.900000e+02 9.716454e-19
6.910000e+02 1.099941e-18
6.920000e+02 1.244718e-18
6.930000e+02 1.408034e-18
6.940000e+02 1.592195e-18
6.950000e+02 1.799787e-18
6.960000e+02 2.033709e-18
6.970000e+02 2.297205e-18
6.980000e+02 2.593908e-18
6.990000e+02 2.927884e-18
7.000000e+02 3.303685e-18
7.010000e+02 3.726398e-18
7.020000e+02 4.201714e-18
7.030000e+02 4.735992e-18
7.040000e+02 5.336339e-18
7.050000e+02 6.010691e-18
7.060000e+02 6.767912e-18
7.070000e+02 7.617892e-18
7.080000e+02 8.571671e-18
7.090000e+02 9.641559e-18
7.100000e+02 1.084129e-17
7.110000e+02 1.218616e-17
7.120000e+02 1.369323e-17
7.130000e+02 1.538150e-17
7.140000e+02 1.727213e-17
7.150000e+02 1.938866e-17
7.160000e+02 2.175732e-17
7.170000e+02 2.440725e-17
7.180000e+02 2.737092e-17
7.190000e+02 3.068436e-17
7.200000e+02 3.438767e-17
7.210000e+02 3.852539e-17
7.220000e+02 4.314698e-17
7.230000e+02 4.830738e-17
7.240000e+02 5.406758e-17
7.250000e+02 6.049525e-17
7.260000e+02 6.766547e-17
7.270000e+02 7.566150e-17
7.280000e+02 8.457567e-17
7.290000e+02 9.451031e-17
7.300000e+02 1.055788e-16
7.310000e+02 1.179067e-16
7.320000e+02 1.316331e-16
7.330000e+02 1.469120e-16
7.340000e+02 1.639138e-16
7.350000e+02 1.828270e-16
7.360000e+02 2.038601e-16
7.370000e+02 2.272436e-16
7.380000e+02 2.532325e-16
7.390000e+02 2.821083e-16
7.400000e+02 3.141823e-16
7.410000e+02 3.497980e-16
7.420000e+02 3.893348e-16
7.430000e+02 4.332115e-16
7.440000e+02 4.818903e-16
7.450000e+02 5.358810e-16
7.460000e+02 5.957457e-16
7.470000e+02 6.621044e-16
7.480000e+02 7.356403e-16
7.490000e+02 8.171062e-16
7.500000e+02 9.073316e-16
7.510000e+02 1.007230e-15
7.520000e+02 1.117806e-15
7.530000e+02 1.240168e-15
7.540000e+02 1.375533e-15
7.550000e+02 1.525242e-15
7.560000e+02 1.690767e-15
7.570000e+02 1.873729e-15
7.580000e+02 2.075909e-15
7.590000e+02 2.299264e-15
7.600000e+02 2.545943e-15
7.610000e+02 2.818309e-15
7.620000e+02 3.118953e-15
7.630000e+02 3.450722e-15
7.640000e+02 3.816739e-15
7.650000e+02 4.220431e-15
7.660000e+02 4.665555e-15
7.670000e+02 5.156235e-15
7.680000e+02 5.696987e-15
7.690000e+02 6.292764e-15
7.700000e+02 6.948993e-15
7.710000e+02 7.671616e-15
7.720000e+02 8.467142e-15
7.730000e+02 9.342698e-15
7.740000e+02 1.030609e-14
7.750000e+02 1.136584e-14
7.760000e+02 1.253130e-14
7.770000e+02 1.381269e-14
7.780000e+02 1.522116e-14
7.790000e+02 1.676894e-14
7.800000e+02 1.846937e-14
7.810000e+02 2.033703e-14
7.820000e+02 2.238785e-14
7.830000e+02 2.463923e-14
7.840000e+02 2.711016e-14
7.850000e+02 2.982139e-14
7.860000e+02 3.279554e-14
7.870000e+02 3.605730e-14
7.880000e+02 3.963362e-14
7.890000e+02 4.355385e-14
7.900000e+02 4.785003e-14
7.910000e+02 5.255707e-14
7.920000e+02 5.771300e-14
7.930000e+02 6.335928e-14
7.940000e+02 6.954105e-14
7.950000e+02 7.630748e-14
7.960000e+02 8.371210e-14
7.970000e+02 9.181317e-14
7.980000e+02 1.006741e-13
7.990000e+02 1.103639e-13
8.000000e+02 1.209576e-13
8.010000e+02 1.325368e-13
8.020000e+02 1.451902e-13
8.030000e+02 1.590143e-13
8.040000e+02 1.741139e-13
8.050000e+02 1.906029e-13
8.060000e+02 2.086050e-13
8.070000e+02 2.282545e-13
8.080000e+02 2.496973e-13
8.090000e+02 2.730919e-13
8.100000e+02 2.986100e-13
8.110000e+02 3.264381e-13
8.120000e+02 3.567786e-13
8.130000e+02 3.898509e-13
8.140000e+02 4.258929e-13
8.150000e+02 4.651625e-13
8.160000e+02 5.079393e-13
8.170000e+02 5.545264e-13
8.180000e+02 6.052519e-13
8.190000e+02 6.604715e-13
8.200000e+02 7.205700e-13
8.210000e+02 7.859646e-13
8.220000e+02 8.571065e-13
8.230000e+02 9.344842e-13
8.240000e+02 1.018626e-12
8.250000e+02 1.110104e-12
8.260000e+02 1.209536e-12
8.270000e+02 1.317591e-12
8.280000e+02 1.434993e-12
8.290000e+02 1.562522e-12
8.300000e+02 1.701024e-12
8.310000e+02 1.851410e-12
8.320000e+02 2.014667e-12
8.330000e+02 2.191860e-12
8.340000e+02 2.384137e-12
8.350000e+02 2.592741e-12
8.360000e+02 2.819011e-12
8.370000e+02 3.064394e-12
8.380000e+02 3.330448e-12
8.390000e+02 3.618858e-12
8.400000e+02 3.931437e-12
8.410000e+02 4.270145e-12
8.420000e+02 4.637090e-12
8.430000e+02 5.034547e-12
8.440000e+02 5.464969e-12
8.450000e+02 5.930995e-12
8.460000e+02 6.435471e-12
8.470000e+02 6.981462e-12
8.480000e+02 7.572269e-12
8.490000e+02 8.211445e-12
8.500000e+02 8.902813e-12
8.510000e+02 9.650490e-12
8.520000e+02 1.045891e-11
8.530000e+02 1.133283e-11
8.540000e+02 1.227739e-11
8.550000e+02 1.329808e-11
8.560000e+02 1.440085e-11
8.570000e+02 1.559207e-11
8.580000e+02 1.687857e-11
8.590000e+02 1.826773e-11
8.600000e+02 1.976746e-11
8.610000e+02 2.138624e-11
8.620000e+02 2.313320e-11
8.630000e+02 2.501815e-11
8.640000e+02 2.705159e-11
8.650000e+02 2.924484e-11
8.660000e+02 3.161000e-11
8.670000e+02 3.416008e-11
8.680000e+02 3.690905e-11
8.690000e+02 3.987187e-11
8.700000e+02 4.306459e-11
8.710000e+02 4.650444e-11
8.720000e+02 5.020986e-11
8.730000e+02 5.420066e-11
8.740000e+02 5.849803e-11
8.750000e+02 6.312470e-11
8.760000e+02 6.810502e-11
8.770000e+02 7.346507e-11
8.780000e+02 7.923277e-11
8.790000e+02 8.543805e-11
8.800000e+02 9.211293e-11
8.810000e+02 9.929169e-11
8.820000e+02 1.070110e-10
8.830000e+02 1.153102e-10
8.840000e+02 1.242312e-10
8.850000e+02 1.338190e-10
8.860000e+02 1.441216e-10
8.870000e+02 1.551905e-10
8.880000e+02 1.670806e-10
8.890000e+02 1.798506e-10
8.900000e+02 1.935634e-10
8.910000e+02 2.082861e-10
8.920000e+02 2.240904e-10
8.930000e+02 2.410529e-10
8.940000e+02 2.592553e-10
8.950000e+02 2.787852e-10
8.960000e+02 2.997359e-10
8.970000e+02 3.222069e-10
8.980000e+02 3.463046e-10
8.990000e+02 3.721425e-10
9.000000e+02 3.998419e-10
9.010000e+02 4.295318e-10
9.020000e+02 4.613502e-10
9.030000e+02 4.954442e-10
9.040000e+02 5.319706e-10
9.050000e+02 5.710966e-10
9.060000e+02 6.130004e-10
9.070000e+02 6.578723e-10
9.080000e+02 7.059145e-10
9.090000e+02 7.573432e-10
9.100000e+02 8.123881e-10
9.110000e+02 8.712943e-10
9.120000e+02 9.343227e-10
9.130000e+02 1.001751e-09
9.140000e+02 1.094733e-09
9.150000e+02 2.365070e-07
9.160000e+02 1.220960e-06
9.170000e+02 1.636376e-08
9.180000e+02 3.046338e-07
9.190000e+02 3.360249e-06
9.200000e+02 8.628892e-06
9.210000e+02 1.739423e-09
9.220000e+02 2.221944e-06
9.230000e+02 2.192369e-08
9.240000e+02 2.478828e-08
9.250000e+02 2.919747e-07
9.260000e+02 4.274540e-07
9.270000e+02 2.330921e-08
9.280000e+02 4.119803e-05
9.290000e+02 4.486176e-05
9.300000e+02 1.109140e-05
9.310000e+02 3.620811e-08
9.320000e+02 3.709183e-05
9.330000e+02 1.862707e-06
9.340000e+02 4.704416e-07
9.350000e+02 1.285831e-07
9.360000e+02 7.620059e-08
9.370000e+02 1.911897e-08
9.380000e+02 9.405318e-08
9.390000e+02 2.486777e-07
9.400000e+02 2.084104e-05
9.410000e+02 3.164267e-06
9.420000e+02 1.444504e-04
9.430000e+02 3.703062e-07
9.440000e+02 1.640953e-04
9.450000e+02 1.344288e-04
9.460000e+02 6.213179e-06
9.470000e+02 1.288981e-08
9.480000e+02 3.872198e-05
9.490000e+02 6.486477e-06
9.500000e+02 1.920416e-07
9.510000e+02 5.935060e-06
9.520000e+02 1.323975e-05
9.530000e+02 8.520306e-08
9.540000e+02 1.748080e-08
9.550000e+02 9.118012e-07
9.560000e+02 1.340956e-04
9.570000e+02 4.811636e-07
9.580000e+02 1.974331e-08
9.590000e+02 3.854246e-05
9.600000e+02 3.691459e-07
9.610000e+02 9.291332e-06
9.620000e+02 3.260447e-06
9.630000e+02 5.089969e-07
9.640000e+02 1.321071e-07
9.650000e+02 4.306639e-08
9.660000e+02 9.790238e-07
9.670000e+02 1.694243e-07
9.680000e+02 1.196750e-07
9.690000e+02 6.086018e-06
9.700000e+02 9.389685e-06
9.710000e+02 2.794471e-07
9.720000e+02 1.269905e-07
9.730000e+02 1.762576e-06
9.740000e+02 9.430716e-06
9.750000e+02 2.225711e-06
9.760000e+02 1.002531e-04
9.770000e+02 4.167989e-05
9.780000e+02 1.596128e-05
9.790000e+02 7.340709e-04
9.800000e+02 5.466435e-04
9.810000e+02 9.229814e-06
9.820000e+02 1.659449e-06
9.830000e+02 3.511848e-04
9.840000e+02 3.150353e-05
9.850000e+02 4.112910e-06
9.860000e+02 7.159217e-06
9.870000e+02 3.487160e-04
9.880000e+02 1.581211e-07
9.890000e+02 5.414574e-05
9.900000e+02 2.037432e-04
9.910000e+02 1.872668e-06
9.920000e+02 1.554660e-07
9.930000e+02 1.384805e-03
9.940000e+02 3.160203e-07
9.950000e+02 5.460889e-05
9.960000e+02 5.084730e-07
9.970000e+02 1.168130e-04
9.980000e+02 2.224887e-04
9.990000e+02 3.203694e-06
1.000000e+03 2.661374e-03
1.001000e+03 1.979865e-03
1.002000e+03 1.206496e-03
1.003000e+03 3.192457e-06
1.004000e+03 3.413297e-07
1.005000e+03 1.247739e-05
1.006000e+03 7.707545e-04
1.007000e+03 1.565148e-03
1.008000e+03 3.724873e-04
1.009000e+03 5.106505e-06
1.010000e+03 3.732241e-04
1.011000e+03 5.007416e-04
1.012000e+03 5.619163e-04
1.013000e+03 5.235712e-04
1.014000e+03 5.475304e-07
1.015000e+03 6.451155e-07
1.016000e+03 1.745392e-05
1.017000e+03 6.469199e-07
1.018000e+03 4.927308e-06
1.019000e+03 7.499475e-07
1.020000e+03 1.105651e-03
1.021000e+03 1.126702e-05
1.022000e+03 1.604122e-05
1.023000e+03 1.191220e-06
1.024000e+03 2.440614e-04
1.025000e+03 1.005601e-06
1.026000e+03 1.640787e-06
1.027000e+03 5.639725e-05
1.028000e+03 9.688898e-06
1.029000e+03 1.250475e-06
1.030000e+03 6.279116e-05
1.031000e+03 1.494413e-04
1.032000e+03 2.196907e-03
1.033000e+03 7.673638e-05
1.034000e+03 1.841255e-04
1.035000e+03 7.235678e-06
1.036000e+03 1.824694e-06
1.037000e+03 1.539949e-03
1.038000e+03 1.173185e-02
1.039000e+03 1.649493e-03
1.040000e+03 1.353319e-03
1.041000e+03 1.140745e-02
1.042000e+03 6.197190e-03
1.043000e+03 7.295290e-03
1.044000e+03 4.293940e-02
1.045000e+03 5.412716e-06
1.046000e+03 1.343357e-03
1.047000e+03 5.372381e-04
1.048000e+03 1.030427e-05
1.049000e+03 4.898396e-04
1.050000e+03 1.275400e-04
1.051000e+03 6.981846e-05
1.052000e+03 8.538338e-03
1.053000e+03 1.599973e-02
1.054000e+03 4.693400e-06
1.055000e+03 2.019892e-02
1.056000e+03 2.331853e-02
1.057000e+03 1.678183e-03
1.058000e+03 6.588649e-05
1.059000e+03 6.824546e-05
1.060000e+03 1.659803e-05
1.061000e+03 3.089793e-03
1.062000e+03 3.611675e-05
1.063000e+03 2.560409e-03
1.064000e+03 1.251698e-05
1.065000e+03 8.227304e-06
1.066000e+03 4.671778e-03
1.067000e+03 5.306008e-05
1.068000e+03 6.202617e-02
1.069000e+03 1.527164e-05
1.070000e+03 6.549880e-04
1.071000e+03 1.284158e-02
1.072000e+03 5.896434e-02
1.073000e+03 1.231581e-05
1.074000e+03 1.913238e-03
1.075000e+03 1.072094e-03
1.076000e+03 6.590881e-02
1.077000e+03 5.954597e-05
1.078000e+03 9.972602e-05
1.079000e+03 4.771269e-04
1.080000e+03 2.242121e-03
1.081000e+03 1.239333e-02
1.082000e+03 6.322041e-03
1.083000e+03 3.150709e-03
1.084000e+03 2.121706e-01
1.085000e+03 7.259883e-04
1.086000e+03 1.012314e-01
1.087000e+03 1.444370e-04
1.088000e+03 2.503058e-01
1.089000e+03 2.745113e-01
1.090000e+03 5.734461e-04
1.091000e+03 8.978546e-04
1.092000e+03 1.855541e-01
1.093000e+03 2.739159e-01
1.094000e+03 7.947679e-03
1.095000e+03 4.269854e-01
1.096000e+03 3.145507e-02
1.097000e+03 5.327288e-02
1.098000e+03 3.205565e-01
1.099000e+03 2.199650e-03
1.100000e+03 5.497783e-05
1.101000e+03 1.195011e-04
1.102000e+03 1.533371e-03
1.103000e+03 3.350551e-01
1.104000e+03 4.825134e-01
1.105000e+03 4.230524e-01
1.106000e+03 7.880570e-03
1.107000e+03 9.043515e-05
1.108000e+03 6.368816e-02
1.109000e+03 8.980483e-04
1.110000e+03 5.406384e-01
1.111000e+03 2.295655e-01
1.112000e+03 2.566255e-02
1.113000e+03 4.236335e-01
1.114000e+03 1.439931e-02
1.115000e+03 1.079323e-03
1.116000e+03 3.753117e-04
1.117000e+03 2.721022e-01
1.118000e+03 1.547333e-03
1.119000e+03 2.793145e-02
1.120000e+03 5.811751e-04
1.121000e+03 1.565373e-01
1.122000e+03 1.186794e+00
1.123000e+03 3.922718e-01
1.124000e+03 4.736624e-01
1.125000e+03 1.812157e-01
1.126000e+03 2.365506e+00
1.127000e+03 2.230664e-01
1.128000e+03 9.776460e-01
1.129000e+03 9.470481e-02
1.130000e+03 7.373116e-01
1.131000e+03 1.069834e+00
1.132000e+03 1.086343e-03
1.133000e+03 9.364605e-03
1.134000e+03 1.286067e-01
1.135000e+03 9.701083e-01
1.136000e+03 1.942036e-02
1.137000e+03 4.744771e-01
1.138000e+03 9.976039e-02
1.139000e+03 1.061555e+00
1.140000e+03 9.059735e-01
1.141000e+03 9.594638e-01
1.142000e+03 1.280377e+00
1.143000e+03 1.202779e-01
1.144000e+03 1.256197e+00
1.145000e+03 6.913543e-04
1.146000e+03 1.380833e+00
1.147000e+03 1.077654e+00
1.148000e+03 5.023122e-03
1.149000e+03 5.262814e-01
1.150000e+03 3.740864e-01
1.151000e+03 1.241494e+00
1.152000e+03 6.340875e-01
1.153000e+03 1.101485e+00
1.154000e+03 1.456357e+00
1.155000e+03 5.012780e-01
1.156000e+03 1.099834e+00
1.157000e+03 1.291359e+00
1.158000e+03 1.489278e-01
1.159000e+03 1.200536e+00
1.160000e+03 2.130534e-01
1.161000e+03 1.034630e+00
1.162000e+03 2.324903e-02
1.163000e+03 9.088421e-02
1.164000e+03 5.959839e-03
1.165000e+03 4.836749e-01
1.166000e+03 2.810404e-01
1.167000e+03 2.390344e-01
1.168000e+03 1.351279e+00
1.169000e+03 1.490859e+00
1.170000e+03 1.717119e-01
1.171000e+03 6.706172e-01
1.172000e+03 3.010216e-01
1.173000e+03 5.384125e-01
1.174000e+03 4.088417e-03
1.175000e+03 3.731936e-03
1.176000e+03 1.586944e-03
1.177000e+03 1.874929e+00
1.178000e+03 1.806056e+00
1.179000e+03 1.563731e+00
1.180000e+03 7.018703e-01
1.181000e+03 1.578776e+00
1.182000e+03 1.384249e+00
1.183000e+03 6.882739e-01
1.184000e+03 5.633157e-01
1.185000e+03 6.895210e-01
1.186000e+03 2.114044e-02
1.187000e+03 1.065287e+00
1.188000e+03 4.372563e-01
1.189000e+03 1.280117e+00
1.190000e+03 1.229516e+00
1.191000e+03 9.598642e-01
1.192000e+03 1.044923e+00
1.193000e+03 8.264465e-01
1.194000e+03 1.010443e+00
1.195000e+03 9.554629e-01
1.196000e+03 6.650604e+00
1.197000e+03 1.301189e+01
1.198000e+03 6.739378e-02
1.199000e+03 1.113530e+01
1.200000e+03 2.431631e-01
1.201000e+03 7.921443e+00
1.202000e+03 1.824320e+00
1.203000e+03 5.232651e+00
1.204000e+03 2.738175e-01
1.205000e+03 3.450812e+00
1.206000e+03 3.106045e+00
1.207000e+03 6.264117e-01
1.208000e+03 1.706417e+00
1.209000e+03 1.434730e+00
1.210000e+03 7.581770e-03
1.211000e+03 5.829978e-01
1.212000e+03 2.575309e-01
1.213000e+03 1.441240e-01
1.214000e+03 4.530719e-02
1.215000e+03 7.812522e-03
1.216000e+03 6.272585e-03
1.217000e+03 2.900039e-02
1.218000e+03 1.207681e-01
1.219000e+03 3.073353e-01
1.220000e+03 2.359060e-01
1.221000e+03 1.144853e+00
1.222000e+03 1.555122e+00
1.223000e+03 1.561632e+00
1.224000e+03 3.631547e+00
1.225000e+03 1.249309e-01
1.226000e+03 7.474909e+00
1.227000e+03 9.198191e+00
1.228000e+03 1.051240e+00
1.229000e+03 1.002917e+01
1.230000e+03 7.161818e+00
1.231000e+03 5.494423e-01
1.232000e+03 2.519803e+01
1.233000e+03 2.987975e+01
1.234000e+03 3.009816e+01
1.235000e+03 2.717438e+01
1.236000e+03 1.776124e+00
1.237000e+03 4.276336e+01
1.238000e+03 3.817592e+01
1.239000e+03 1.250265e+01
1.240000e+03 2.100747e+01
1.241000e+03 1.535883e+01
1.242000e+03 3.665108e+01
1.243000e+03 6.483777e+01
1.244000e+03 7.244762e+01
1.245000e+03 6.630239e+01
1.246000e+03 3.129670e+01
1.247000e+03 4.993162e+01
1.248000e+03 6.823449e+01
1.249000e+03 9.750845e+01
1.250000e+03 5.618877e+01
1.251000e+03 9.518270e+01
1.252000e+03 6.390493e+01
1.253000e+03 1.061571e+02
1.254000e+03 7.106225e+01
1.255000e+03 2.656238e+01
1.256000e+03 5.178871e+01
1.257000e+03 5.981394e+01
1.258000e+03 2.312199e+01
1.259000e+03 3.904028e+01
1.260000e+03 1.099557e+02
1.261000e+03 2.922180e+00
1.262000e+03 1.217438e+02
1.263000e+03 9.060997e+01
1.264000e+03 3.094508e+01
1.265000e+03 4.697649e+01
1.266000e+03 1.294355e+02
1.267000e+03 5.435538e+01
