# wavelength_A flux
5.000000e+02 1.580467e-05
5.010000e+02 1.769735e-05
5.020000e+02 1.980738e-05
5.030000e+02 2.215864e-05
5.040000e+02 2.477753e-05
5.050000e+02 2.890236e-05
5.060000e+02 3.228060e-05
5.070000e+02 3.603731e-05
5.080000e+02 4.021316e-05
5.090000e+02 4.485598e-05
5.100000e+02 5.000972e-05
5.110000e+02 5.573013e-05
5.120000e+02 6.207756e-05
5.130000e+02 6.911770e-05
5.140000e+02 7.692281e-05
5.150000e+02 8.557116e-05
5.160000e+02 9.514926e-05
5.170000e+02 1.057496e-04
5.180000e+02 1.174989e-04
5.190000e+02 1.304883e-04
5.200000e+02 1.448530e-04
5.210000e+02 1.607314e-04
5.220000e+02 1.782430e-04
5.230000e+02 1.976552e-04
5.240000e+02 2.190484e-04
5.250000e+02 2.426679e-04
5.260000e+02 2.687183e-04
5.270000e+02 2.974453e-04
5.280000e+02 3.291040e-04
5.290000e+02 3.638424e-04
5.300000e+02 4.024264e-04
5.310000e+02 4.447193e-04
5.320000e+02 4.912909e-04
5.330000e+02 5.425243e-04
5.340000e+02 5.988681e-04
5.350000e+02 6.608084e-04
5.360000e+02 7.288678e-04
5.370000e+02 7.858779e-04
5.380000e+02 8.857232e-04
5.390000e+02 9.758968e-04
5.400000e+02 1.074804e-03
5.410000e+02 1.183142e-03
5.420000e+02 1.302219e-03
5.430000e+02 1.432631e-03
5.440000e+02 1.575495e-03
5.450000e+02 1.731888e-03
5.460000e+02 1.902661e-03
5.470000e+02 2.090734e-03
5.480000e+02 2.295899e-03
5.490000e+02 2.520313e-03
5.500000e+02 2.765680e-03
5.510000e+02 3.033867e-03
5.520000e+02 3.326892e-03
5.530000e+02 3.646955e-03
5.540000e+02 3.996423e-03
5.550000e+02 4.377868e-03
5.560000e+02 4.794081e-03
5.570000e+02 5.248076e-03
5.580000e+02 5.743115e-03
5.590000e+02 6.282409e-03
5.600000e+02 6.870401e-03
5.610000e+02 7.510737e-03
5.620000e+02 8.208233e-03
5.630000e+02 8.967552e-03
5.640000e+02 9.793893e-03
5.650000e+02 1.069290e-02
5.660000e+02 1.167064e-02
5.670000e+02 1.273367e-02
5.680000e+02 1.388907e-02
5.690000e+02 1.514447e-02
5.700000e+02 1.650807e-02
5.710000e+02 1.798883e-02
5.720000e+02 1.959513e-02
5.730000e+02 2.133940e-02
5.740000e+02 2.323169e-02
5.750000e+02 2.528466e-02
5.760000e+02 2.750599e-02
5.770000e+02 2.992165e-02
5.780000e+02 3.253503e-02
5.790000e+02 3.536594e-02
5.800000e+02 3.843153e-02
5.810000e+02 4.175033e-02
5.820000e+02 4.534207e-02
5.830000e+02 4.922731e-02
5.840000e+02 5.340076e-02
5.850000e+02 5.796742e-02
5.860000e+02 6.288781e-02
5.870000e+02 6.819896e-02
5.880000e+02 7.393698e-02
5.890000e+02 8.013356e-02
5.900000e+02 8.682600e-02
5.910000e+02 9.404788e-02
5.920000e+02 1.018440e-01
5.930000e+02 1.102552e-01
5.940000e+02 1.193276e-01
5.950000e+02 1.290999e-01
5.960000e+02 1.396570e-01
5.970000e+02 1.510142e-01
5.980000e+02 1.632598e-01
5.990000e+02 1.764498e-01
6.000000e+02 1.906542e-01
6.010000e+02 2.059461e-01
6.020000e+02 2.224054e-01
6.030000e+02 2.401155e-01
6.040000e+02 2.591666e-01
6.050000e+02 2.796549e-01
6.060000e+02 3.016817e-01
6.070000e+02 3.253626e-01
6.080000e+02 3.508086e-01
6.090000e+02 3.781231e-01
6.100000e+02 4.074843e-01
6.110000e+02 4.390121e-01
6.120000e+02 4.728587e-01
6.130000e+02 5.091851e-01
6.140000e+02 5.481618e-01
6.150000e+02 5.899757e-01
6.160000e+02 6.348193e-01
6.170000e+02 6.828815e-01
6.180000e+02 7.344212e-01
6.190000e+02 7.896555e-01
6.200000e+02 8.488079e-01
6.210000e+02 9.121978e-01
6.220000e+02 9.800826e-01
6.230000e+02 1.052765e+00
6.240000e+02 1.130564e+00
6.250000e+02 1.213818e+00
6.260000e+02 1.302895e+00
6.270000e+02 1.398177e+00
6.280000e+02 1.500072e+00
6.290000e+02 1.609013e+00
6.300000e+02 1.725465e+00
6.310000e+02 1.849905e+00
6.320000e+02 1.982873e+00
6.330000e+02 2.124905e+00
6.340000e+02 2.276583e+00
6.350000e+02 2.438528e+00
6.360000e+02 2.604496e+00
6.370000e+02 2.795893e+00
6.380000e+02 2.992749e+00
6.390000e+02 3.202746e+00
6.400000e+02 3.426714e+00
6.410000e+02 3.665526e+00
6.420000e+02 3.919995e+00
6.430000e+02 4.191342e+00
6.440000e+02 4.480488e+00
6.450000e+02 4.788524e+00
6.460000e+02 5.116654e+00
6.470000e+02 5.466047e+00
6.480000e+02 5.838074e+00
6.490000e+02 6.234099e+00
6.500000e+02 6.655556e+00
6.510000e+02 7.104001e+00
6.520000e+02 7.581063e+00
6.530000e+02 8.088463e+00
6.540000e+02 8.628019e+00
6.550000e+02 9.201649e+00
6.560000e+02 9.811389e+00
6.570000e+02 1.045917e+01
6.580000e+02 1.114787e+01
6.590000e+02 1.187927e+01
6.600000e+02 1.265596e+01
6.610000e+02 1.348082e+01
6.620000e+02 1.435656e+01
6.630000e+02 1.528611e+01
6.640000e+02 1.627263e+01
6.650000e+02 1.731878e+01
6.660000e+02 1.842918e+01
6.670000e+02 1.960689e+01
6.680000e+02 2.085578e+01
6.690000e+02 2.217990e+01
6.700000e+02 2.358348e+01
6.710000e+02 2.507108e+01
6.720000e+02 2.663623e+01
6.730000e+02 2.831735e+01
6.740000e+02 3.008624e+01
6.750000e+02 3.195956e+01
6.760000e+02 3.394310e+01
6.770000e+02 3.604297e+01
6.780000e+02 3.826559e+01
6.790000e+02 4.061769e+01
6.800000e+02 4.310635e+01
6.810000e+02 4.573907e+01
6.820000e+02 4.852365e+01
6.830000e+02 5.146835e+01
6.840000e+02 5.458179e+01
6.850000e+02 5.787301e+01
6.860000e+02 6.135167e+01
6.870000e+02 6.502448e+01
6.880000e+02 6.890927e+01
6.890000e+02 7.301175e+01
6.900000e+02 7.734535e+01
6.910000e+02 8.192154e+01
6.920000e+02 8.675311e+01
6.930000e+02 9.185351e+01
6.940000e+02 9.723684e+01
6.950000e+02 1.029176e+02
6.960000e+02 1.089118e+02
6.970000e+02 1.152309e+02
6.980000e+02 1.219046e+02
6.990000e+02 1.289382e+02
7.000000e+02 1.363544e+02
7.010000e+02 1.441728e+02
7.020000e+02 1.524138e+02
7.030000e+02 1.610989e+02
7.040000e+02 1.702504e+02
7.050000e+02 1.798920e+02
7.060000e+02 1.900480e+02
7.070000e+02 2.007444e+02
7.080000e+02 2.120005e+02
7.090000e+02 2.238591e+02
7.100000e+02 2.363428e+02
7.110000e+02 2.494783e+02
7.120000e+02 2.633055e+02
7.130000e+02 2.778544e+02
7.140000e+02 2.931603e+02
7.150000e+02 3.092602e+02
7.160000e+02 3.261923e+02
7.170000e+02 3.439959e+02
7.180000e+02 3.627086e+02
7.190000e+02 3.823960e+02
7.200000e+02 4.030797e+02
7.210000e+02 4.248163e+02
7.220000e+02 4.476558e+02
7.230000e+02 4.716508e+02
7.240000e+02 4.968557e+02
7.250000e+02 5.233275e+02
7.260000e+02 5.511262e+02
7.270000e+02 5.802919e+02
7.280000e+02 6.109321e+02
7.290000e+02 6.430938e+02
7.300000e+02 6.768450e+02
7.310000e+02 7.122662e+02
7.320000e+02 7.494272e+02
7.330000e+02 7.884113e+02
7.340000e+02 8.293014e+02
7.350000e+02 8.721845e+02
7.360000e+02 9.171492e+02
7.370000e+02 9.642966e+02
7.380000e+02 1.013719e+03
7.390000e+02 1.065521e+03
7.400000e+02 1.119808e+03
7.410000e+02 1.176696e+03
7.420000e+02 1.236295e+03
7.430000e+02 1.298732e+03
7.440000e+02 1.364128e+03
7.450000e+02 1.432615e+03
7.460000e+02 1.504272e+03
7.470000e+02 1.579356e+03
7.480000e+02 1.657957e+03
7.490000e+02 1.740230e+03
7.500000e+02 1.826334e+03
7.510000e+02 1.916437e+03
7.520000e+02 2.010710e+03
7.530000e+02 2.109334e+03
7.540000e+02 2.212496e+03
7.550000e+02 2.320388e+03
7.560000e+02 2.433180e+03
7.570000e+02 2.551143e+03
7.580000e+02 2.674490e+03
7.590000e+02 2.803406e+03
7.600000e+02 2.938172e+03
7.610000e+02 3.079003e+03
7.620000e+02 3.226158e+03
7.630000e+02 3.379904e+03
7.640000e+02 3.540370e+03
7.650000e+02 3.708128e+03
7.660000e+02 3.883336e+03
7.670000e+02 4.066299e+03
7.680000e+02 4.257312e+03
7.690000e+02 4.456787e+03
7.700000e+02 4.664987e+03
7.710000e+02 4.882292e+03
7.720000e+02 5.109079e+03
7.730000e+02 5.345729e+03
7.740000e+02 5.592641e+03
7.750000e+02 5.850229e+03
7.760000e+02 6.118793e+03
7.770000e+02 6.399168e+03
7.780000e+02 6.691427e+03
7.790000e+02 6.996171e+03
7.800000e+02 7.313906e+03
7.810000e+02 7.644818e+03
7.820000e+02 7.990076e+03
7.830000e+02 8.349920e+03
7.840000e+02 8.724924e+03
7.850000e+02 9.115677e+03
7.860000e+02 9.522794e+03
7.870000e+02 9.946957e+03
7.880000e+02 1.038874e+04
7.890000e+02 1.084886e+04
7.900000e+02 1.132800e+04
7.910000e+02 1.182698e+04
7.920000e+02 1.234648e+04
7.930000e+02 1.288730e+04
7.940000e+02 1.345025e+04
7.950000e+02 1.403618e+04
7.960000e+02 1.464595e+04
7.970000e+02 1.528021e+04
7.980000e+02 1.593967e+04
7.990000e+02 1.662650e+04
8.000000e+02 1.734094e+04
8.010000e+02 1.808404e+04
8.020000e+02 1.885687e+04
8.030000e+02 1.966052e+04
8.040000e+02 2.049617e+04
8.050000e+02 2.136496e+04
8.060000e+02 2.226812e+04
8.070000e+02 2.320690e+04
8.080000e+02 2.418262e+04
8.090000e+02 2.519661e+04
8.100000e+02 2.625026e+04
8.110000e+02 2.734500e+04
8.120000e+02 2.848228e+04
8.130000e+02 2.966380e+04
8.140000e+02 3.088955e+04
8.150000e+02 3.216388e+04
8.160000e+02 3.348743e+04
8.170000e+02 3.486161e+04
8.180000e+02 3.628842e+04
8.190000e+02 3.776968e+04
8.200000e+02 3.930725e+04
8.210000e+02 4.090314e+04
8.220000e+02 4.255941e+04
8.230000e+02 4.427813e+04
8.240000e+02 4.606157e+04
8.250000e+02 4.791187e+04
8.260000e+02 4.983138e+04
8.270000e+02 5.182255e+04
8.280000e+02 5.388780e+04
8.290000e+02 5.602968e+04
8.300000e+02 5.824944e+04
8.310000e+02 6.055251e+04
8.320000e+02 6.294033e+04
8.330000e+02 6.541455e+04
8.340000e+02 6.798059e+04
8.350000e+02 7.062783e+04
8.360000e+02 7.339586e+04
8.370000e+02 7.625327e+04
8.380000e+02 7.921326e+04
8.390000e+02 8.228012e+04
8.400000e+02 8.545741e+04
8.410000e+02 8.874870e+04
8.420000e+02 9.215399e+04
8.430000e+02 9.568906e+04
8.440000e+02 9.934585e+04
8.450000e+02 1.031325e+05
8.460000e+02 1.070533e+05
8.470000e+02 1.111127e+05
8.480000e+02 1.153151e+05
8.490000e+02 1.196652e+05
8.500000e+02 1.241683e+05
8.510000e+02 1.288283e+05
8.520000e+02 1.336505e+05
8.530000e+02 1.386404e+05
8.540000e+02 1.438044e+05
8.550000e+02 1.491460e+05
8.560000e+02 1.546718e+05
8.570000e+02 1.603877e+05
8.580000e+02 1.662996e+05
8.590000e+02 1.724139e+05
8.600000e+02 1.787368e+05
8.610000e+02 1.852749e+05
8.620000e+02 1.920348e+05
8.630000e+02 1.990234e+05
8.640000e+02 2.062484e+05
8.650000e+02 2.137163e+05
8.660000e+02 2.214352e+05
8.670000e+02 2.294126e+05
8.680000e+02 2.376515e+05
8.690000e+02 2.461699e+05
8.700000e+02 2.549699e+05
8.710000e+02 2.640645e+05
8.720000e+02 2.734583e+05
8.730000e+02 2.831618e+05
8.740000e+02 2.931844e+05
8.750000e+02 3.035357e+05
8.760000e+02 3.142255e+05
8.770000e+02 3.252635e+05
8.780000e+02 3.366620e+05
8.790000e+02 3.484296e+05
8.800000e+02 3.605783e+05
8.810000e+02 3.731193e+05
8.820000e+02 3.860641e+05
8.830000e+02 3.994248e+05
8.840000e+02 4.132130e+05
8.850000e+02 4.274420e+05
8.860000e+02 4.421249e+05
8.870000e+02 4.572745e+05
8.880000e+02 4.729042e+05
8.890000e+02 4.890283e+05
8.900000e+02 5.056610e+05
8.910000e+02 5.228170e+05
8.920000e+02 5.391242e+05
8.930000e+02 5.587595e+05
8.940000e+02 5.775773e+05
8.950000e+02 5.969808e+05
8.960000e+02 6.169877e+05
8.970000e+02 6.376140e+05
8.980000e+02 6.588776e+05
8.990000e+02 6.807964e+05
9.000000e+02 7.033718e+05
9.010000e+02 7.266571e+05
9.020000e+02 7.506545e+05
9.030000e+02 7.753841e+05
9.040000e+02 8.008508e+05
9.050000e+02 8.271217e+05
9.060000e+02 8.541724e+05
9.070000e+02 8.820297e+05
9.080000e+02 9.107467e+05
9.090000e+02 9.403162e+05
9.100000e+02 9.707718e+05
9.110000e+02 1.002143e+06
9.120000e+02 1.034477e+06
9.130000e+02 1.049998e+06
9.140000e+02 1.122100e+06
9.150000e+02 4.666494e+06
9.160000e+02 3.557016e+07
9.170000e+02 4.971401e+07
9.180000e+02 4.046290e+07
9.190000e+02 6.890652e+07
9.200000e+02 7.709434e+07
9.210000e+02 1.328058e+06
9.220000e+02 8.266447e+07
9.230000e+02 5.125922e+07
9.240000e+02 4.823970e+07
9.250000e+02 8.606250e+07
9.260000e+02 6.971094e+07
9.270000e+02 9.226300e+07
9.280000e+02 9.607280e+07
9.290000e+02 5.725787e+07
9.300000e+02 9.618773e+07
9.310000e+02 8.112410e+07
9.320000e+02 1.052396e+08
9.330000e+02 1.071906e+08
9.340000e+02 1.105496e+08
9.350000e+02 3.589578e+07
9.360000e+02 1.143882e+08
9.370000e+02 2.405514e+07
9.380000e+02 5.837904e+07
9.390000e+02 1.225545e+08
9.400000e+02 1.261839e+08
9.410000e+02 9.368981e+07
9.420000e+02 1.318985e+08
9.430000e+02 1.347083e+08
9.440000e+02 6.347758e+07
9.450000e+02 1.401897e+08
9.460000e+02 1.437449e+08
9.470000e+02 7.631557e+07
9.480000e+02 1.480364e+08
9.490000e+02 1.463791e+08
9.500000e+02 2.671108e+07
9.510000e+02 1.349563e+08
9.520000e+02 1.633796e+08
9.530000e+02 1.663971e+08
9.540000e+02 1.101248e+08
9.550000e+02 1.747633e+08
9.560000e+02 1.791986e+08
9.570000e+02 1.512510e+08
9.580000e+02 1.820153e+08
9.590000e+02 1.915261e+08
9.600000e+02 3.948798e+07
9.610000e+02 2.006710e+08
9.620000e+02 2.020643e+08
9.630000e+02 2.091736e+08
9.640000e+02 5.396992e+06
9.650000e+02 1.722062e+08
9.660000e+02 2.224476e+08
9.670000e+02 2.263893e+08
9.680000e+02 2.253503e+08
9.690000e+02 2.325278e+08
9.700000e+02 2.390964e+08
9.710000e+02 2.383369e+08
9.720000e+02 1.879066e+08
9.730000e+02 1.790722e+08
9.740000e+02 2.502940e+08
9.750000e+02 2.646084e+08
9.760000e+02 2.722420e+08
9.770000e+02 2.779860e+08
9.780000e+02 2.834098e+08
9.790000e+02 2.904116e+08
9.800000e+02 2.965044e+08
9.810000e+02 3.027756e+08
9.820000e+02 3.009698e+08
9.830000e+02 3.147473e+08
9.840000e+02 4.520170e+07
9.850000e+02 3.279559e+08
9.860000e+02 3.344511e+08
9.870000e+02 3.404434e+08
9.880000e+02 3.422500e+08
9.890000e+02 1.388385e+08
9.900000e+02 1.326085e+07
9.910000e+02 3.615832e+08
9.920000e+02 3.485982e+08
9.930000e+02 3.473156e+08
9.940000e+02 3.541590e+07
9.950000e+02 3.000371e+07
9.960000e+02 4.734176e+07
9.970000e+02 4.732096e+07
9.980000e+02 4.190423e+08
9.990000e+02 4.158893e+08
1.000000e+03 4.401935e+08
1.001000e+03 4.488147e+08
1.002000e+03 4.568371e+08
1.003000e+03 3.247115e+08
1.004000e+03 4.750635e+08
1.005000e+03 3.711131e+08
1.006000e+03 4.935212e+08
1.007000e+03 5.029505e+08
1.008000e+03 5.115696e+08
1.009000e+03 4.548148e+08
1.010000e+03 5.316103e+08
1.011000e+03 5.414905e+08
1.012000e+03 5.509589e+08
1.013000e+03 5.615482e+08
1.014000e+03 5.704765e+08
1.015000e+03 5.467600e+08
1.016000e+03 5.895255e+08
1.017000e+03 6.006447e+08
1.018000e+03 6.116343e+08
1.019000e+03 6.204890e+08
1.020000e+03 6.283655e+08
1.021000e+03 5.497722e+08
1.022000e+03 6.216805e+08
1.023000e+03 6.225188e+08
1.024000e+03 5.553303e+08
1.025000e+03 2.828025e+08
1.026000e+03 7.709812e+07
1.027000e+03 5.014845e+08
1.028000e+03 1.843837e+08
1.029000e+03 7.155017e+08
1.030000e+03 7.205734e+08
1.031000e+03 7.736890e+08
1.032000e+03 7.719636e+08
1.033000e+03 4.582855e+08
1.034000e+03 8.293473e+08
1.035000e+03 1.432467e+08
1.036000e+03 8.442348e+08
1.037000e+03 4.019936e+07
1.038000e+03 8.940167e+08
1.039000e+03 8.936648e+08
1.040000e+03 9.300528e+08
1.041000e+03 9.439599e+08
1.042000e+03 8.690948e+08
1.043000e+03 9.714438e+08
1.044000e+03 9.899439e+08
1.045000e+03 1.014639e+09
1.046000e+03 1.035342e+09
1.047000e+03 1.054580e+09
1.048000e+03 1.047734e+09
1.049000e+03 1.081926e+09
1.050000e+03 1.112596e+09
1.051000e+03 1.132147e+09
1.052000e+03 1.152099e+09
1.053000e+03 1.096616e+09
1.054000e+03 1.189545e+09
1.055000e+03 1.213159e+09
1.056000e+03 1.234772e+09
1.057000e+03 1.254643e+09
1.058000e+03 1.277090e+09
1.059000e+03 1.299181e+09
1.060000e+03 1.321556e+09
1.061000e+03 1.344963e+09
1.062000e+03 1.367826e+09
1.063000e+03 1.042749e+09
1.064000e+03 1.939174e+08
1.065000e+03 1.487816e+09
1.066000e+03 1.504240e+09
1.067000e+03 1.330381e+09
1.068000e+03 1.567969e+09
1.069000e+03 1.591396e+09
1.070000e+03 1.535788e+09
1.071000e+03 1.653314e+09
1.072000e+03 1.680181e+09
1.073000e+03 1.706744e+09
1.074000e+03 1.736813e+09
1.075000e+03 1.762105e+09
1.076000e+03 1.795758e+09
1.077000e+03 1.821786e+09
1.078000e+03 1.855477e+09
1.079000e+03 1.864481e+09
1.080000e+03 1.910074e+09
1.081000e+03 1.949003e+09
1.082000e+03 1.977881e+09
1.083000e+03 2.013131e+09
1.084000e+03 1.239669e+09
1.085000e+03 1.652920e+09
1.086000e+03 2.113846e+09
1.087000e+03 2.145235e+09
1.088000e+03 2.163340e+09
1.089000e+03 2.215354e+09
1.090000e+03 2.247543e+09
1.091000e+03 2.287488e+09
1.092000e+03 2.325536e+09
1.093000e+03 2.357909e+09
1.094000e+03 2.401677e+09
1.095000e+03 2.426845e+09
1.096000e+03 2.477649e+09
1.097000e+03 2.471926e+09
1.098000e+03 2.485793e+09
1.099000e+03 2.591460e+09
1.100000e+03 2.554226e+09
1.101000e+03 2.418048e+09
1.102000e+03 5.699143e+09
1.103000e+03 1.911336e+10
1.104000e+03 6.377632e+09
1.105000e+03 2.617565e+09
1.106000e+03 4.583225e+10
1.107000e+03 4.116219e+10
1.108000e+03 4.708428e+10
1.109000e+03 1.998707e+10
1.110000e+03 3.322822e+09
1.111000e+03 6.066389e+09
1.112000e+03 4.186853e+10
1.113000e+03 4.972681e+10
1.114000e+03 1.915048e+09
1.115000e+03 4.707072e+10
1.116000e+03 4.941936e+10
1.117000e+03 1.858662e+09
1.118000e+03 4.175495e+10
1.119000e+03 5.130122e+10
1.120000e+03 5.192531e+10
1.121000e+03 2.446768e+10
1.122000e+03 2.780529e+08
1.123000e+03 5.997496e+09
1.124000e+03 5.361179e+10
1.125000e+03 1.275626e+10
1.126000e+03 5.547364e+10
1.127000e+03 5.061715e+10
1.128000e+03 2.409829e+10
1.129000e+03 5.589338e+10
1.130000e+03 2.796445e+10
1.131000e+03 5.917479e+10
1.132000e+03 8.304189e+08
1.133000e+03 5.470812e+10
1.134000e+03 5.585436e+10
1.135000e+03 5.578854e+08
1.136000e+03 5.827454e+10
1.137000e+03 6.256785e+10
1.138000e+03 6.419685e+10
1.139000e+03 6.291284e+10
1.140000e+03 6.706790e+08
1.141000e+03 6.643095e+10
1.142000e+03 5.341741e+10
1.143000e+03 6.696492e+10
1.144000e+03 6.798247e+10
1.145000e+03 4.199288e+10
1.146000e+03 6.868025e+10
1.147000e+03 6.697366e+10
1.148000e+03 6.769295e+10
1.149000e+03 7.116479e+10
1.150000e+03 6.072921e+10
1.151000e+03 7.112502e+10
1.152000e+03 7.052059e+10
1.153000e+03 1.040060e+10
1.154000e+03 1.215480e+09
1.155000e+03 5.575884e+10
1.156000e+03 2.414282e+10
1.157000e+03 7.643478e+10
1.158000e+03 1.349511e+09
1.159000e+03 6.334794e+10
1.160000e+03 7.745610e+10
1.161000e+03 8.035621e+10
1.162000e+03 4.310540e+09
1.163000e+03 7.211101e+10
1.164000e+03 2.901381e+09
1.165000e+03 8.293662e+10
1.166000e+03 7.888392e+10
1.167000e+03 6.306759e+10
1.168000e+03 8.489227e+10
1.169000e+03 8.083876e+10
1.170000e+03 8.632453e+10
1.171000e+03 8.691178e+10
1.172000e+03 7.221250e+10
1.173000e+03 8.739810e+10
1.174000e+03 8.200101e+10
1.175000e+03 2.647114e+09
1.176000e+03 1.532985e+09
1.177000e+03 8.554172e+10
1.178000e+03 7.016487e+10
1.179000e+03 8.965514e+10
1.180000e+03 5.828479e+10
1.181000e+03 8.325376e+10
1.182000e+03 9.028030e+10
1.183000e+03 8.994193e+10
1.184000e+03 9.005393e+10
1.185000e+03 8.059371e+10
1.186000e+03 8.913005e+10
1.187000e+03 8.878431e+10
1.188000e+03 7.864069e+10
1.189000e+03 1.430106e+09
1.190000e+03 1.903922e+10
1.191000e+03 8.073331e+10
1.192000e+03 8.069030e+10
1.193000e+03 9.834865e+08
1.194000e+03 1.664004e+09
1.195000e+03 2.503064e+10
1.196000e+03 7.386104e+10
1.197000e+03 7.260202e+10
1.198000e+03 7.382255e+10
1.199000e+03 6.946058e+10
1.200000e+03 5.770558e+10
1.201000e+03 6.068006e+10
1.202000e+03 5.870657e+10
1.203000e+03 5.576156e+10
1.204000e+03 4.892854e+10
1.205000e+03 4.429753e+10
1.206000e+03 3.170920e+10
1.207000e+03 2.323218e+10
1.208000e+03 2.696468e+10
1.209000e+03 2.005047e+10
1.210000e+03 3.001374e+09
1.211000e+03 1.161914e+10
1.212000e+03 7.683476e+09
1.213000e+03 4.667635e+09
1.214000e+03 2.649605e+09
1.215000e+03 1.565745e+09
1.216000e+03 1.365799e+09
1.217000e+03 2.281222e+09
1.218000e+03 4.152986e+09
1.219000e+03 7.243061e+09
1.220000e+03 1.156365e+10
1.221000e+03 1.699975e+10
1.222000e+03 2.340097e+10
1.223000e+03 3.062612e+10
1.224000e+03 3.853466e+10
1.225000e+03 4.699514e+10
1.226000e+03 5.528373e+10
1.227000e+03 6.469373e+10
1.228000e+03 7.487922e+10
1.229000e+03 8.423231e+10
1.230000e+03 9.375493e+10
1.231000e+03 1.042918e+11
1.232000e+03 1.143635e+11
1.233000e+03 1.242367e+11
1.234000e+03 7.086336e+10
1.235000e+03 1.429750e+11
1.236000e+03 1.527725e+11
1.237000e+03 1.615793e+11
1.238000e+03 1.710370e+11
1.239000e+03 1.800845e+11
1.240000e+03 1.728485e+11
1.241000e+03 2.845459e+11
1.242000e+03 1.696790e+11
1.243000e+03 2.513872e+11
1.244000e+03 1.055319e+11
1.245000e+03 1.631608e+11
1.246000e+03 4.323123e+11
1.247000e+03 4.885798e+11
1.248000e+03 1.196402e+11
1.249000e+03 1.545250e+11
1.250000e+03 5.784618e+11
1.251000e+03 5.886010e+11
1.252000e+03 5.825146e+11
1.253000e+03 6.740182e+11
1.254000e+03 6.869670e+11
1.255000e+03 7.084145e+11
1.256000e+03 7.314282e+11
1.257000e+03 7.945274e+11
1.258000e+03 7.899905e+11
1.259000e+03 7.234704e+11
1.260000e+03 5.490990e+11
1.261000e+03 3.322821e+09
1.262000e+03 7.255274e+10
1.263000e+03 9.104599e+11
1.264000e+03 7.300093e+11
1.265000e+03 2.712035e+09
1.266000e+03 9.515536e+11
1.267000e+03 1.076318e+12
