# wavelength_A flux
5.000000e+02 1.210088e-05
5.010000e+02 1.355677e-05
5.020000e+02 1.518067e-05
5.030000e+02 1.699113e-05
5.040000e+02 1.900866e-05
5.050000e+02 2.232147e-05
5.060000e+02 2.494171e-05
5.070000e+02 2.785686e-05
5.080000e+02 3.109868e-05
5.090000e+02 3.470479e-05
5.100000e+02 3.870980e-05
5.110000e+02 4.315674e-05
5.120000e+02 4.809330e-05
5.130000e+02 5.357082e-05
5.140000e+02 5.964643e-05
5.150000e+02 6.638127e-05
5.160000e+02 7.384684e-05
5.170000e+02 8.210844e-05
5.180000e+02 9.127152e-05
5.190000e+02 1.014014e-04
5.200000e+02 1.126125e-04
5.210000e+02 1.250103e-04
5.220000e+02 1.386844e-04
5.230000e+02 1.538584e-04
5.240000e+02 1.705835e-04
5.250000e+02 1.890578e-04
5.260000e+02 2.094416e-04
5.270000e+02 2.319293e-04
5.280000e+02 2.567282e-04
5.290000e+02 2.839262e-04
5.300000e+02 3.141880e-04
5.310000e+02 3.473675e-04
5.320000e+02 3.839034e-04
5.330000e+02 4.241109e-04
5.340000e+02 4.683305e-04
5.350000e+02 5.169811e-04
5.360000e+02 5.704591e-04
5.370000e+02 6.133154e-04
5.380000e+02 6.937858e-04
5.390000e+02 7.647340e-04
5.400000e+02 8.425810e-04
5.410000e+02 9.278674e-04
5.420000e+02 1.021679e-03
5.430000e+02 1.124444e-03
5.440000e+02 1.237069e-03
5.450000e+02 1.360478e-03
5.460000e+02 1.495151e-03
5.470000e+02 1.643668e-03
5.480000e+02 1.805676e-03
5.490000e+02 1.982870e-03
5.500000e+02 2.176768e-03
5.510000e+02 2.388780e-03
5.520000e+02 2.620522e-03
5.530000e+02 2.873730e-03
5.540000e+02 3.150324e-03
5.550000e+02 3.452348e-03
5.560000e+02 3.782028e-03
5.570000e+02 4.141774e-03
5.580000e+02 4.534197e-03
5.590000e+02 4.962119e-03
5.600000e+02 5.428605e-03
5.610000e+02 5.936962e-03
5.620000e+02 6.490763e-03
5.630000e+02 7.093464e-03
5.640000e+02 7.750030e-03
5.650000e+02 8.464601e-03
5.660000e+02 9.242042e-03
5.670000e+02 1.008763e-02
5.680000e+02 1.100701e-02
5.690000e+02 1.200636e-02
5.700000e+02 1.309225e-02
5.710000e+02 1.427187e-02
5.720000e+02 1.555284e-02
5.730000e+02 1.694348e-02
5.740000e+02 1.845270e-02
5.750000e+02 2.009077e-02
5.760000e+02 2.186226e-02
5.770000e+02 2.379139e-02
5.780000e+02 2.587867e-02
5.790000e+02 2.814055e-02
5.800000e+02 3.059084e-02
5.810000e+02 3.324446e-02
5.820000e+02 3.611731e-02
5.830000e+02 3.922592e-02
5.840000e+02 4.256572e-02
5.850000e+02 4.622502e-02
5.860000e+02 5.016728e-02
5.870000e+02 5.442338e-02
5.880000e+02 5.902315e-02
5.890000e+02 6.398896e-02
5.900000e+02 6.935737e-02
5.910000e+02 7.515447e-02
5.920000e+02 8.141265e-02
5.930000e+02 8.816507e-02
5.940000e+02 9.545268e-02
5.950000e+02 1.033039e-01
5.960000e+02 1.117915e-01
5.970000e+02 1.209312e-01
5.980000e+02 1.307821e-01
5.990000e+02 1.413965e-01
6.000000e+02 1.528309e-01
6.010000e+02 1.651365e-01
6.020000e+02 1.783945e-01
6.030000e+02 1.926649e-01
6.040000e+02 2.080208e-01
6.050000e+02 2.245416e-01
6.060000e+02 2.423081e-01
6.070000e+02 2.614156e-01
6.080000e+02 2.819541e-01
6.090000e+02 3.040265e-01
6.100000e+02 3.277421e-01
6.110000e+02 3.532165e-01
6.120000e+02 3.805733e-01
6.130000e+02 4.099221e-01
6.140000e+02 4.414455e-01
6.150000e+02 4.752733e-01
6.160000e+02 5.115645e-01
6.170000e+02 5.504891e-01
6.180000e+02 5.922273e-01
6.190000e+02 6.369725e-01
6.200000e+02 6.849297e-01
6.210000e+02 7.362994e-01
6.220000e+02 7.913464e-01
6.230000e+02 8.503025e-01
6.240000e+02 9.133800e-01
6.250000e+02 9.809548e-01
6.260000e+02 1.053276e+00
6.270000e+02 1.130659e+00
6.280000e+02 1.213441e+00
6.290000e+02 1.301974e+00
6.300000e+02 1.396640e+00
6.310000e+02 1.497835e+00
6.320000e+02 1.605996e+00
6.330000e+02 1.721564e+00
6.340000e+02 1.845021e+00
6.350000e+02 1.976765e+00
6.360000e+02 2.111214e+00
6.370000e+02 2.267863e+00
6.380000e+02 2.428286e+00
6.390000e+02 2.599472e+00
6.400000e+02 2.782103e+00
6.410000e+02 2.976897e+00
6.420000e+02 3.184626e+00
6.430000e+02 3.406102e+00
6.440000e+02 3.642175e+00
6.450000e+02 3.893747e+00
6.460000e+02 4.161593e+00
6.470000e+02 4.447100e+00
6.480000e+02 4.751212e+00
6.490000e+02 5.075027e+00
6.500000e+02 5.419737e+00
6.510000e+02 5.786626e+00
6.520000e+02 6.177049e+00
6.530000e+02 6.592427e+00
6.540000e+02 7.034261e+00
6.550000e+02 7.504137e+00
6.560000e+02 8.003740e+00
6.570000e+02 8.534647e+00
6.580000e+02 9.099301e+00
6.590000e+02 9.699113e+00
6.600000e+02 1.033635e+01
6.610000e+02 1.101322e+01
6.620000e+02 1.173204e+01
6.630000e+02 1.249524e+01
6.640000e+02 1.330547e+01
6.650000e+02 1.416537e+01
6.660000e+02 1.507790e+01
6.670000e+02 1.604600e+01
6.680000e+02 1.707291e+01
6.690000e+02 1.816200e+01
6.700000e+02 1.931628e+01
6.710000e+02 2.054051e+01
6.720000e+02 2.182240e+01
6.730000e+02 2.321319e+01
6.740000e+02 2.467011e+01
6.750000e+02 2.621351e+01
6.760000e+02 2.784819e+01
6.770000e+02 2.957923e+01
6.780000e+02 3.141195e+01
6.790000e+02 3.335197e+01
6.800000e+02 3.540523e+01
6.810000e+02 3.757793e+01
6.820000e+02 3.987652e+01
6.830000e+02 4.230804e+01
6.840000e+02 4.487981e+01
6.850000e+02 4.759900e+01
6.860000e+02 5.047380e+01
6.870000e+02 5.351168e+01
6.880000e+02 5.672407e+01
6.890000e+02 6.011725e+01
6.900000e+02 6.370263e+01
6.910000e+02 6.748972e+01
6.920000e+02 7.148731e+01
6.930000e+02 7.571024e+01
6.940000e+02 8.016878e+01
6.950000e+02 8.487492e+01
6.960000e+02 8.984208e+01
6.970000e+02 9.507941e+01
6.980000e+02 1.006131e+02
6.990000e+02 1.064461e+02
7.000000e+02 1.125982e+02
7.010000e+02 1.190855e+02
7.020000e+02 1.259253e+02
7.030000e+02 1.331356e+02
7.040000e+02 1.407352e+02
7.050000e+02 1.487438e+02
7.060000e+02 1.571814e+02
7.070000e+02 1.660708e+02
7.080000e+02 1.754341e+02
7.090000e+02 1.852947e+02
7.100000e+02 1.956779e+02
7.110000e+02 2.066091e+02
7.120000e+02 2.181157e+02
7.130000e+02 2.302196e+02
7.140000e+02 2.429630e+02
7.150000e+02 2.563708e+02
7.160000e+02 2.704756e+02
7.170000e+02 2.853097e+02
7.180000e+02 3.009047e+02
7.190000e+02 3.173169e+02
7.200000e+02 3.345639e+02
7.210000e+02 3.526933e+02
7.220000e+02 3.717475e+02
7.230000e+02 3.917707e+02
7.240000e+02 4.128089e+02
7.250000e+02 4.349099e+02
7.260000e+02 4.581248e+02
7.270000e+02 4.825053e+02
7.280000e+02 5.081065e+02
7.290000e+02 5.349854e+02
7.300000e+02 5.631996e+02
7.310000e+02 5.928177e+02
7.320000e+02 6.238980e+02
7.330000e+02 6.564896e+02
7.340000e+02 6.907043e+02
7.350000e+02 7.265954e+02
7.360000e+02 7.642379e+02
7.370000e+02 8.037169e+02
7.380000e+02 8.451110e+02
7.390000e+02 8.885088e+02
7.400000e+02 9.339992e+02
7.410000e+02 9.816809e+02
7.420000e+02 1.031647e+03
7.430000e+02 1.084005e+03
7.440000e+02 1.138857e+03
7.450000e+02 1.196316e+03
7.460000e+02 1.256494e+03
7.470000e+02 1.319518e+03
7.480000e+02 1.385511e+03
7.490000e+02 1.454603e+03
7.500000e+02 1.526929e+03
7.510000e+02 1.602631e+03
7.520000e+02 1.681804e+03
7.530000e+02 1.764703e+03
7.540000e+02 1.851436e+03
7.550000e+02 1.942167e+03
7.560000e+02 2.037074e+03
7.570000e+02 2.136321e+03
7.580000e+02 2.240122e+03
7.590000e+02 2.348635e+03
7.600000e+02 2.462079e+03
7.610000e+02 2.580674e+03
7.620000e+02 2.704623e+03
7.630000e+02 2.834153e+03
7.640000e+02 2.969500e+03
7.650000e+02 3.110904e+03
7.660000e+02 3.258622e+03
7.670000e+02 3.412911e+03
7.680000e+02 3.574023e+03
7.690000e+02 3.742316e+03
7.700000e+02 3.917882e+03
7.710000e+02 4.101292e+03
7.720000e+02 4.292747e+03
7.730000e+02 4.492575e+03
7.740000e+02 4.701113e+03
7.750000e+02 4.918717e+03
7.760000e+02 5.145633e+03
7.770000e+02 5.382602e+03
7.780000e+02 5.629660e+03
7.790000e+02 5.887330e+03
7.800000e+02 6.156038e+03
7.810000e+02 6.436229e+03
7.820000e+02 6.728354e+03
7.830000e+02 7.032885e+03
7.840000e+02 7.350314e+03
7.850000e+02 7.681148e+03
7.860000e+02 8.025910e+03
7.870000e+02 8.384910e+03
7.880000e+02 8.759176e+03
7.890000e+02 9.149068e+03
7.900000e+02 9.555159e+03
7.910000e+02 9.978165e+03
7.920000e+02 1.041865e+04
7.930000e+02 1.087731e+04
7.940000e+02 1.135485e+04
7.950000e+02 1.185198e+04
7.960000e+02 1.236945e+04
7.970000e+02 1.290804e+04
7.980000e+02 1.346851e+04
7.990000e+02 1.405177e+04
8.000000e+02 1.465860e+04
8.010000e+02 1.528972e+04
8.020000e+02 1.594642e+04
8.030000e+02 1.662944e+04
8.040000e+02 1.733922e+04
8.050000e+02 1.807790e+04
8.060000e+02 1.884595e+04
8.070000e+02 1.964447e+04
8.080000e+02 2.047457e+04
8.090000e+02 2.133741e+04
8.100000e+02 2.223418e+04
8.110000e+02 2.316612e+04
8.120000e+02 2.413446e+04
8.130000e+02 2.514069e+04
8.140000e+02 2.618598e+04
8.150000e+02 2.727173e+04
8.160000e+02 2.839964e+04
8.170000e+02 2.957092e+04
8.180000e+02 3.078732e+04
8.190000e+02 3.205038e+04
8.200000e+02 3.336053e+04
8.210000e+02 3.472184e+04
8.220000e+02 3.613495e+04
8.230000e+02 3.760161e+04
8.240000e+02 3.912382e+04
8.250000e+02 4.070342e+04
8.260000e+02 4.234245e+04
8.270000e+02 4.404296e+04
8.280000e+02 4.580710e+04
8.290000e+02 4.763704e+04
8.300000e+02 4.953508e+04
8.310000e+02 5.150355e+04
8.320000e+02 5.354486e+04
8.330000e+02 5.566150e+04
8.340000e+02 5.785603e+04
8.350000e+02 6.011741e+04
8.360000e+02 6.248631e+04
8.370000e+02 6.493146e+04
8.380000e+02 6.746488e+04
8.390000e+02 7.008931e+04
8.400000e+02 7.280966e+04
8.410000e+02 7.562814e+04
8.420000e+02 7.854456e+04
8.430000e+02 8.157327e+04
8.440000e+02 8.470655e+04
8.450000e+02 8.795177e+04
8.460000e+02 9.131255e+04
8.470000e+02 9.479279e+04
8.480000e+02 9.839632e+04
8.490000e+02 1.021272e+05
8.500000e+02 1.059895e+05
8.510000e+02 1.099835e+05
8.520000e+02 1.141215e+05
8.530000e+02 1.184042e+05
8.540000e+02 1.228373e+05
8.550000e+02 1.274236e+05
8.560000e+02 1.321689e+05
8.570000e+02 1.370783e+05
8.580000e+02 1.421571e+05
8.590000e+02 1.474107e+05
8.600000e+02 1.528445e+05
8.610000e+02 1.584643e+05
8.620000e+02 1.642758e+05
8.630000e+02 1.702851e+05
8.640000e+02 1.764987e+05
8.650000e+02 1.829224e+05
8.660000e+02 1.895596e+05
8.670000e+02 1.964240e+05
8.680000e+02 2.035189e+05
8.690000e+02 2.108515e+05
8.700000e+02 2.184279e+05
8.710000e+02 2.262596e+05
8.720000e+02 2.343502e+05
8.730000e+02 2.427090e+05
8.740000e+02 2.513408e+05
8.750000e+02 2.602607e+05
8.760000e+02 2.694741e+05
8.770000e+02 2.789893e+05
8.780000e+02 2.888169e+05
8.790000e+02 2.989648e+05
8.800000e+02 3.094430e+05
8.810000e+02 3.202615e+05
8.820000e+02 3.314302e+05
8.830000e+02 3.429598e+05
8.840000e+02 3.548608e+05
8.850000e+02 3.671441e+05
8.860000e+02 3.798213e+05
8.870000e+02 3.929038e+05
8.880000e+02 4.064034e+05
8.890000e+02 4.203324e+05
8.900000e+02 4.347031e+05
8.910000e+02 4.495286e+05
8.920000e+02 4.635774e+05
8.930000e+02 4.805967e+05
8.940000e+02 4.968667e+05
8.950000e+02 5.136459e+05
8.960000e+02 5.309500e+05
8.970000e+02 5.487927e+05
8.980000e+02 5.671933e+05
8.990000e+02 5.861609e+05
9.000000e+02 6.057151e+05
9.010000e+02 6.258722e+05
9.020000e+02 6.466494e+05
9.030000e+02 6.680641e+05
9.040000e+02 6.901202e+05
9.050000e+02 7.128780e+05
9.060000e+02 7.363145e+05
9.070000e+02 7.604428e+05
9.080000e+02 7.853313e+05
9.090000e+02 8.109628e+05
9.100000e+02 8.373665e+05
9.110000e+02 8.645690e+05
9.120000e+02 8.926101e+05
9.130000e+02 9.071212e+05
9.140000e+02 9.690638e+05
9.150000e+02 4.448253e+06
9.160000e+02 3.725765e+07
9.170000e+02 7.515907e+07
9.180000e+02 5.953419e+07
9.190000e+02 1.086470e+08
9.200000e+02 1.240164e+08
9.210000e+02 1.155615e+06
9.220000e+02 1.335795e+08
9.230000e+02 7.616428e+07
9.240000e+02 6.079971e+07
9.250000e+02 1.365734e+08
9.260000e+02 1.064585e+08
9.270000e+02 1.483383e+08
9.280000e+02 1.551171e+08
9.290000e+02 7.355622e+07
9.300000e+02 1.523995e+08
9.310000e+02 1.238646e+08
9.320000e+02 1.697544e+08
9.330000e+02 1.720423e+08
9.340000e+02 1.783147e+08
9.350000e+02 5.940107e+07
9.360000e+02 1.833554e+08
9.370000e+02 3.826459e+07
9.380000e+02 7.515900e+07
9.390000e+02 1.964872e+08
9.400000e+02 2.027180e+08
9.410000e+02 1.523811e+08
9.420000e+02 2.115346e+08
9.430000e+02 2.157944e+08
9.440000e+02 7.525957e+07
9.450000e+02 2.237822e+08
9.460000e+02 2.298397e+08
9.470000e+02 9.259155e+07
9.480000e+02 2.359958e+08
9.490000e+02 2.293034e+08
9.500000e+02 3.132139e+07
9.510000e+02 1.973845e+08
9.520000e+02 2.601593e+08
9.530000e+02 2.643534e+08
9.540000e+02 1.454065e+08
9.550000e+02 2.781398e+08
9.560000e+02 2.863630e+08
9.570000e+02 2.447747e+08
9.580000e+02 2.856731e+08
9.590000e+02 3.046544e+08
9.600000e+02 6.124570e+07
9.610000e+02 3.195906e+08
9.620000e+02 3.185137e+08
9.630000e+02 3.326524e+08
9.640000e+02 4.720448e+06
9.650000e+02 2.448401e+08
9.660000e+02 3.529121e+08
9.670000e+02 3.583455e+08
9.680000e+02 3.513432e+08
9.690000e+02 3.653733e+08
9.700000e+02 3.763196e+08
9.710000e+02 3.707017e+08
9.720000e+02 2.621246e+08
9.730000e+02 2.442628e+08
9.740000e+02 3.860664e+08
9.750000e+02 4.149173e+08
9.760000e+02 4.284030e+08
9.770000e+02 4.371855e+08
9.780000e+02 4.454513e+08
9.790000e+02 4.569648e+08
9.800000e+02 4.664619e+08
9.810000e+02 4.762179e+08
9.820000e+02 4.657500e+08
9.830000e+02 4.940853e+08
9.840000e+02 4.613894e+07
9.850000e+02 5.145225e+08
9.860000e+02 5.243051e+08
9.870000e+02 5.325378e+08
9.880000e+02 5.301859e+08
9.890000e+02 1.553000e+08
9.900000e+02 1.180499e+07
9.910000e+02 5.592887e+08
9.920000e+02 5.217202e+08
9.930000e+02 5.193841e+08
9.940000e+02 4.471290e+07
9.950000e+02 2.777020e+07
9.960000e+02 4.431149e+07
9.970000e+02 4.556928e+07
9.980000e+02 6.487693e+08
9.990000e+02 6.340291e+08
1.000000e+03 6.843667e+08
1.001000e+03 6.973992e+08
1.002000e+03 7.087748e+08
1.003000e+03 4.230378e+08
1.004000e+03 7.368506e+08
1.005000e+03 5.025288e+08
1.006000e+03 7.641573e+08
1.007000e+03 7.783747e+08
1.008000e+03 7.903134e+08
1.009000e+03 6.516246e+08
1.010000e+03 8.206401e+08
1.011000e+03 8.352109e+08
1.012000e+03 8.485220e+08
1.013000e+03 8.645455e+08
1.014000e+03 8.785071e+08
1.015000e+03 8.123686e+08
1.016000e+03 9.025457e+08
1.017000e+03 9.207851e+08
1.018000e+03 9.351847e+08
1.019000e+03 9.465870e+08
1.020000e+03 9.545318e+08
1.021000e+03 8.419615e+08
1.022000e+03 9.372524e+08
1.023000e+03 9.159944e+08
1.024000e+03 7.689338e+08
1.025000e+03 3.161054e+08
1.026000e+03 7.219283e+07
1.027000e+03 6.520535e+08
1.028000e+03 2.666501e+08
1.029000e+03 1.065522e+09
1.030000e+03 1.061570e+09
1.031000e+03 1.173920e+09
1.032000e+03 1.154507e+09
1.033000e+03 7.123669e+08
1.034000e+03 1.266007e+09
1.035000e+03 1.968253e+08
1.036000e+03 1.277607e+09
1.037000e+03 3.571629e+07
1.038000e+03 1.363404e+09
1.039000e+03 1.346884e+09
1.040000e+03 1.420653e+09
1.041000e+03 1.439263e+09
1.042000e+03 1.243177e+09
1.043000e+03 1.483704e+09
1.044000e+03 1.499535e+09
1.045000e+03 1.543951e+09
1.046000e+03 1.576759e+09
1.047000e+03 1.606118e+09
1.048000e+03 1.569206e+09
1.049000e+03 1.636536e+09
1.050000e+03 1.693007e+09
1.051000e+03 1.721972e+09
1.052000e+03 1.751217e+09
1.053000e+03 1.597840e+09
1.054000e+03 1.807771e+09
1.055000e+03 1.840773e+09
1.056000e+03 1.872986e+09
1.057000e+03 1.900494e+09
1.058000e+03 1.934308e+09
1.059000e+03 1.967604e+09
1.060000e+03 2.000581e+09
1.061000e+03 2.034572e+09
1.062000e+03 2.067911e+09
1.063000e+03 1.541369e+09
1.064000e+03 2.444951e+08
1.065000e+03 2.300441e+09
1.066000e+03 2.326099e+09
1.067000e+03 1.871667e+09
1.068000e+03 2.419571e+09
1.069000e+03 2.455866e+09
1.070000e+03 2.278358e+09
1.071000e+03 2.551533e+09
1.072000e+03 2.590717e+09
1.073000e+03 2.632513e+09
1.074000e+03 2.675343e+09
1.075000e+03 2.708781e+09
1.076000e+03 2.763474e+09
1.077000e+03 2.801428e+09
1.078000e+03 2.851937e+09
1.079000e+03 2.843909e+09
1.080000e+03 2.924528e+09
1.081000e+03 2.991020e+09
1.082000e+03 3.030384e+09
1.083000e+03 3.085459e+09
1.084000e+03 1.097811e+09
1.085000e+03 2.231907e+09
1.086000e+03 3.235271e+09
1.087000e+03 3.279894e+09
1.088000e+03 3.290503e+09
1.089000e+03 3.381856e+09
1.090000e+03 3.425739e+09
1.091000e+03 3.490283e+09
1.092000e+03 3.546750e+09
1.093000e+03 3.589714e+09
1.094000e+03 3.659905e+09
1.095000e+03 3.682444e+09
1.096000e+03 3.770772e+09
1.097000e+03 3.720130e+09
1.098000e+03 3.700054e+09
1.099000e+03 3.930443e+09
1.100000e+03 3.807868e+09
1.101000e+03 3.651814e+09
1.102000e+03 8.763697e+09
1.103000e+03 2.877307e+10
1.104000e+03 9.597329e+09
1.105000e+03 3.938615e+09
1.106000e+03 6.437466e+10
1.107000e+03 5.866253e+10
1.108000e+03 6.610844e+10
1.109000e+03 2.297537e+10
1.110000e+03 3.280092e+09
1.111000e+03 9.370558e+09
1.112000e+03 5.777789e+10
1.113000e+03 6.964068e+10
1.114000e+03 2.775863e+09
1.115000e+03 6.443525e+10
1.116000e+03 6.892632e+10
1.117000e+03 2.695242e+09
1.118000e+03 5.441579e+10
1.119000e+03 7.093060e+10
1.120000e+03 7.233124e+10
1.121000e+03 2.828873e+10
1.122000e+03 2.671616e+08
1.123000e+03 8.938706e+09
1.124000e+03 7.372341e+10
1.125000e+03 1.362126e+10
1.126000e+03 7.649468e+10
1.127000e+03 6.759373e+10
1.128000e+03 3.638029e+10
1.129000e+03 7.729648e+10
1.130000e+03 3.228777e+10
1.131000e+03 8.186373e+10
1.132000e+03 7.672054e+08
1.133000e+03 7.377589e+10
1.134000e+03 7.520465e+10
1.135000e+03 5.146829e+08
1.136000e+03 7.851603e+10
1.137000e+03 8.621241e+10
1.138000e+03 8.911243e+10
1.139000e+03 8.746395e+10
1.140000e+03 7.496581e+08
1.141000e+03 9.209208e+10
1.142000e+03 6.794701e+10
1.143000e+03 9.221539e+10
1.144000e+03 9.370071e+10
1.145000e+03 5.152395e+10
1.146000e+03 9.404836e+10
1.147000e+03 9.082551e+10
1.148000e+03 9.247791e+10
1.149000e+03 9.771087e+10
1.150000e+03 7.862496e+10
1.151000e+03 9.686308e+10
1.152000e+03 9.517883e+10
1.153000e+03 1.057408e+10
1.154000e+03 1.119429e+09
1.155000e+03 6.916176e+10
1.156000e+03 3.515353e+10
1.157000e+03 1.044609e+11
1.158000e+03 1.624836e+09
1.159000e+03 8.622169e+10
1.160000e+03 1.048008e+11
1.161000e+03 1.097354e+11
1.162000e+03 4.132897e+09
1.163000e+03 9.367431e+10
1.164000e+03 4.058685e+09
1.165000e+03 1.126522e+11
1.166000e+03 1.046604e+11
1.167000e+03 7.782583e+10
1.168000e+03 1.146247e+11
1.169000e+03 1.085883e+11
1.170000e+03 1.162255e+11
1.171000e+03 1.167847e+11
1.172000e+03 9.084513e+10
1.173000e+03 1.165136e+11
1.174000e+03 1.070814e+11
1.175000e+03 3.644301e+09
1.176000e+03 1.843749e+09
1.177000e+03 1.111155e+11
1.178000e+03 8.582174e+10
1.179000e+03 1.176068e+11
1.180000e+03 7.233768e+10
1.181000e+03 1.058823e+11
1.182000e+03 1.173970e+11
1.183000e+03 1.164038e+11
1.184000e+03 1.162310e+11
1.185000e+03 1.000907e+11
1.186000e+03 1.140691e+11
1.187000e+03 1.130178e+11
1.188000e+03 9.629735e+10
1.189000e+03 1.538507e+09
1.190000e+03 2.645509e+10
1.191000e+03 9.933577e+10
1.192000e+03 9.925596e+10
1.193000e+03 9.306194e+08
1.194000e+03 1.821172e+09
1.195000e+03 2.595439e+10
1.196000e+03 8.820398e+10
1.197000e+03 8.263564e+10
1.198000e+03 8.423281e+10
1.199000e+03 7.853993e+10
1.200000e+03 6.384065e+10
1.201000e+03 6.740187e+10
1.202000e+03 6.492865e+10
1.203000e+03 6.027848e+10
1.204000e+03 5.230684e+10
1.205000e+03 4.694127e+10
1.206000e+03 3.256474e+10
1.207000e+03 2.679332e+10
1.208000e+03 2.744955e+10
1.209000e+03 2.001076e+10
1.210000e+03 3.557052e+09
1.211000e+03 1.126207e+10
1.212000e+03 7.321962e+09
1.213000e+03 4.382342e+09
1.214000e+03 2.457363e+09
1.215000e+03 1.430800e+09
1.216000e+03 1.235590e+09
1.217000e+03 2.107329e+09
1.218000e+03 3.882720e+09
1.219000e+03 6.866580e+09
1.220000e+03 1.114386e+10
1.221000e+03 1.666765e+10
1.222000e+03 2.333226e+10
1.223000e+03 3.101618e+10
1.224000e+03 3.958215e+10
1.225000e+03 4.890518e+10
1.226000e+03 5.811108e+10
1.227000e+03 6.887998e+10
1.228000e+03 8.042168e+10
1.229000e+03 9.119916e+10
1.230000e+03 1.023271e+11
1.231000e+03 1.148309e+11
1.232000e+03 1.268068e+11
1.233000e+03 1.387127e+11
1.234000e+03 7.522125e+10
1.235000e+03 1.616065e+11
1.236000e+03 1.739837e+11
1.237000e+03 1.847952e+11
1.238000e+03 1.968294e+11
1.239000e+03 2.083775e+11
1.240000e+03 2.049319e+11
1.241000e+03 2.990311e+11
1.242000e+03 2.078197e+11
1.243000e+03 2.836347e+11
1.244000e+03 1.318809e+11
1.245000e+03 2.070091e+11
1.246000e+03 4.235688e+11
1.247000e+03 4.783392e+11
1.248000e+03 1.604947e+11
1.249000e+03 2.023708e+11
1.250000e+03 5.613396e+11
1.251000e+03 5.692310e+11
1.252000e+03 5.644987e+11
1.253000e+03 6.491408e+11
1.254000e+03 6.612964e+11
1.255000e+03 6.814998e+11
1.256000e+03 7.059778e+11
1.257000e+03 7.632446e+11
1.258000e+03 7.615233e+11
1.259000e+03 6.978966e+11
1.260000e+03 5.358542e+11
1.261000e+03 3.252875e+09
1.262000e+03 1.011393e+11
1.263000e+03 8.758814e+11
1.264000e+03 7.050652e+11
1.265000e+03 2.435801e+09
1.266000e+03 9.125674e+11
1.267000e+03 1.035888e+12
