# wavelength_A flux
5.000000e+02 2.802597e-45
5.010000e+02 4.203895e-45
5.020000e+02 5.605194e-45
5.030000e+02 7.006492e-45
5.040000e+02 9.809089e-45
5.050000e+02 1.541428e-44
5.060000e+02 2.101948e-44
5.070000e+02 2.802597e-44
5.080000e+02 3.643376e-44
5.090000e+02 4.904545e-44
5.100000e+02 5.324934e-44
5.110000e+02 8.547921e-44
5.120000e+02 1.135052e-43
5.130000e+02 1.499389e-43
5.140000e+02 1.989844e-43
5.150000e+02 2.620428e-43
5.160000e+02 3.461207e-43
5.170000e+02 4.554220e-43
5.180000e+02 5.997557e-43
5.190000e+02 7.889310e-43
5.200000e+02 1.035560e-42
5.210000e+02 1.357858e-42
5.220000e+02 1.778248e-42
5.230000e+02 2.328958e-42
5.240000e+02 3.045022e-42
5.250000e+02 3.976885e-42
5.260000e+02 5.189008e-42
5.270000e+02 6.764068e-42
5.280000e+02 8.808562e-42
5.290000e+02 1.145982e-41
5.300000e+02 1.489300e-41
5.310000e+02 1.933652e-41
5.320000e+02 2.508184e-41
5.330000e+02 3.250172e-41
5.340000e+02 4.207539e-41
5.350000e+02 5.441662e-41
5.360000e+02 7.030735e-41
5.370000e+02 8.598367e-41
5.380000e+02 1.170407e-40
5.390000e+02 1.508035e-40
5.400000e+02 1.941149e-40
5.410000e+02 2.495993e-40
5.420000e+02 3.207264e-40
5.430000e+02 4.116889e-40
5.440000e+02 5.279630e-40
5.450000e+02 6.764586e-40
5.460000e+02 8.659324e-40
5.470000e+02 1.107474e-39
5.480000e+02 1.415117e-39
5.490000e+02 1.806602e-39
5.500000e+02 2.304336e-39
5.510000e+02 2.936600e-39
5.520000e+02 3.739050e-39
5.530000e+02 4.756607e-39
5.540000e+02 6.045769e-39
5.550000e+02 7.677787e-39
5.560000e+02 9.741879e-39
5.570000e+02 1.235029e-38
5.580000e+02 1.564374e-38
5.590000e+02 1.979866e-38
5.600000e+02 2.503597e-38
5.610000e+02 3.163211e-38
5.620000e+02 3.993275e-38
5.630000e+02 5.036969e-38
5.640000e+02 6.348195e-38
5.650000e+02 7.994185e-38
5.660000e+02 1.005872e-37
5.670000e+02 1.264613e-37
5.680000e+02 1.588624e-37
5.690000e+02 1.994045e-37
5.700000e+02 2.500923e-37
5.710000e+02 3.134150e-37
5.720000e+02 3.924593e-37
5.730000e+02 4.910512e-37
5.740000e+02 6.139287e-37
5.750000e+02 7.669550e-37
5.760000e+02 9.574121e-37
5.770000e+02 1.194259e-36
5.780000e+02 1.488479e-36
5.790000e+02 1.853763e-36
5.800000e+02 2.306931e-36
5.810000e+02 2.868699e-36
5.820000e+02 3.564551e-36
5.830000e+02 4.425711e-36
5.840000e+02 5.485222e-36
5.850000e+02 6.806439e-36
5.860000e+02 8.434443e-36
5.870000e+02 1.044195e-35
5.880000e+02 1.291757e-35
5.890000e+02 1.596842e-35
5.900000e+02 1.972550e-35
5.910000e+02 2.434899e-35
5.920000e+02 3.003463e-35
5.930000e+02 3.702149e-35
5.940000e+02 4.560130e-35
5.950000e+02 5.612984e-35
5.960000e+02 6.904071e-35
5.970000e+02 8.486196e-35
5.980000e+02 1.042362e-34
5.990000e+02 1.279451e-34
6.000000e+02 1.569384e-34
6.010000e+02 1.923700e-34
6.020000e+02 2.356400e-34
6.030000e+02 2.884470e-34
6.040000e+02 3.528495e-34
6.050000e+02 4.313413e-34
6.060000e+02 5.269411e-34
6.070000e+02 6.433007e-34
6.080000e+02 7.848347e-34
6.090000e+02 9.568769e-34
6.100000e+02 1.165867e-33
6.110000e+02 1.419575e-33
6.120000e+02 1.727370e-33
6.130000e+02 2.100544e-33
6.140000e+02 2.552693e-33
6.150000e+02 3.100183e-33
6.160000e+02 3.762696e-33
6.170000e+02 4.563893e-33
6.180000e+02 5.532197e-33
6.190000e+02 6.701730e-33
6.200000e+02 8.113433e-33
6.210000e+02 9.816398e-33
6.220000e+02 1.186945e-32
6.230000e+02 1.434304e-32
6.240000e+02 1.732151e-32
6.250000e+02 2.090570e-32
6.260000e+02 2.521622e-32
6.270000e+02 3.039713e-32
6.280000e+02 3.662045e-32
6.290000e+02 4.409148e-32
6.300000e+02 5.305496e-32
6.310000e+02 6.369330e-32
6.320000e+02 7.668282e-32
6.330000e+02 9.210852e-32
6.340000e+02 1.105727e-31
6.350000e+02 1.326542e-31
6.360000e+02 1.590691e-31
6.370000e+02 1.906243e-31
6.380000e+02 2.283080e-31
6.390000e+02 2.732849e-31
6.400000e+02 3.269361e-31
6.410000e+02 3.908986e-31
6.420000e+02 4.671114e-31
6.430000e+02 5.578699e-31
6.440000e+02 6.658903e-31
6.450000e+02 7.943849e-31
6.460000e+02 9.471500e-31
6.470000e+02 1.128670e-30
6.480000e+02 1.344242e-30
6.490000e+02 1.600112e-30
6.500000e+02 1.903650e-30
6.510000e+02 2.263545e-30
6.520000e+02 2.690030e-30
6.530000e+02 3.195158e-30
6.540000e+02 3.793112e-30
6.550000e+02 4.500577e-30
6.560000e+02 5.337169e-30
6.570000e+02 6.325939e-30
6.580000e+02 7.493960e-30
6.590000e+02 8.873013e-30
6.600000e+02 1.050039e-29
6.610000e+02 1.241980e-29
6.620000e+02 1.468252e-29
6.630000e+02 1.734858e-29
6.640000e+02 2.048828e-29
6.650000e+02 2.418391e-29
6.660000e+02 2.853207e-29
6.670000e+02 3.364464e-29
6.680000e+02 3.965343e-29
6.690000e+02 4.671205e-29
6.700000e+02 5.499983e-29
6.710000e+02 6.472602e-29
6.720000e+02 7.613470e-29
6.730000e+02 8.951039e-29
6.740000e+02 1.051846e-28
6.750000e+02 1.235436e-28
6.760000e+02 1.450367e-28
6.770000e+02 1.701870e-28
6.780000e+02 1.996028e-28
6.790000e+02 2.339912e-28
6.800000e+02 2.741738e-28
6.810000e+02 3.211048e-28
6.820000e+02 3.758920e-28
6.830000e+02 4.398206e-28
6.840000e+02 5.143813e-28
6.850000e+02 6.013021e-28
6.860000e+02 7.025856e-28
6.870000e+02 8.205508e-28
6.880000e+02 9.578827e-28
6.890000e+02 1.117688e-27
6.900000e+02 1.303561e-27
6.910000e+02 1.519656e-27
6.920000e+02 1.770774e-27
6.930000e+02 2.062461e-27
6.940000e+02 2.401123e-27
6.950000e+02 2.794149e-27
6.960000e+02 3.250064e-27
6.970000e+02 3.778701e-27
6.980000e+02 4.391392e-27
6.990000e+02 5.101189e-27
7.000000e+02 5.923137e-27
7.010000e+02 6.874535e-27
7.020000e+02 7.975302e-27
7.030000e+02 9.248345e-27
7.040000e+02 1.072000e-26
7.050000e+02 1.242053e-26
7.060000e+02 1.438449e-26
7.070000e+02 1.665243e-26
7.080000e+02 1.926955e-26
7.090000e+02 2.228862e-26
7.100000e+02 2.576993e-26
7.110000e+02 2.978260e-26
7.120000e+02 3.440582e-26
7.130000e+02 3.973032e-26
7.140000e+02 4.585996e-26
7.150000e+02 5.291363e-26
7.160000e+02 6.102735e-26
7.170000e+02 7.035665e-26
7.180000e+02 8.107935e-26
7.190000e+02 9.339865e-26
7.200000e+02 1.075466e-25
7.210000e+02 1.237883e-25
7.220000e+02 1.424262e-25
7.230000e+02 1.638055e-25
7.240000e+02 1.883196e-25
7.250000e+02 2.164174e-25
7.260000e+02 2.486102e-25
7.270000e+02 2.854806e-25
7.280000e+02 3.276921e-25
7.290000e+02 3.759997e-25
7.300000e+02 4.312628e-25
7.310000e+02 4.944589e-25
7.320000e+02 5.666993e-25
7.330000e+02 6.492503e-25
7.340000e+02 7.435417e-25
7.350000e+02 8.512063e-25
7.360000e+02 9.740940e-25
7.370000e+02 1.114309e-24
7.380000e+02 1.274230e-24
7.390000e+02 1.456564e-24
7.400000e+02 1.664373e-24
7.410000e+02 1.901131e-24
7.420000e+02 2.170772e-24
7.430000e+02 2.477754e-24
7.440000e+02 2.827120e-24
7.450000e+02 3.224580e-24
7.460000e+02 3.676594e-24
7.470000e+02 4.190464e-24
7.480000e+02 4.774450e-24
7.490000e+02 5.437883e-24
7.500000e+02 6.191307e-24
7.510000e+02 7.046629e-24
7.520000e+02 8.017292e-24
7.530000e+02 9.118465e-24
7.540000e+02 1.036727e-23
7.550000e+02 1.178299e-23
7.560000e+02 1.338741e-23
7.570000e+02 1.520504e-23
7.580000e+02 1.726354e-23
7.590000e+02 1.959401e-23
7.600000e+02 2.223149e-23
7.610000e+02 2.521544e-23
7.620000e+02 2.859022e-23
7.630000e+02 3.240576e-23
7.640000e+02 3.671818e-23
7.650000e+02 4.159045e-23
7.660000e+02 4.709383e-23
7.670000e+02 5.330764e-23
7.680000e+02 6.032135e-23
7.690000e+02 6.823441e-23
7.700000e+02 7.716254e-23
7.710000e+02 8.722907e-23
7.720000e+02 9.857680e-23
7.730000e+02 1.113647e-22
7.740000e+02 1.257709e-22
7.750000e+02 1.419950e-22
7.760000e+02 1.602607e-22
7.770000e+02 1.808184e-22
7.780000e+02 2.039483e-22
7.790000e+02 2.299641e-22
7.800000e+02 2.592167e-22
7.810000e+02 2.920987e-22
7.820000e+02 3.290489e-22
7.830000e+02 3.705577e-22
7.840000e+02 4.171732e-22
7.850000e+02 4.695076e-22
7.860000e+02 5.282446e-22
7.870000e+02 5.941482e-22
7.880000e+02 6.680686e-22
7.890000e+02 7.509571e-22
7.900000e+02 8.438735e-22
7.910000e+02 9.479999e-22
7.920000e+02 1.064640e-21
7.930000e+02 1.195300e-21
7.940000e+02 1.341586e-21
7.950000e+02 1.505321e-21
7.960000e+02 1.688539e-21
7.970000e+02 1.893498e-21
7.980000e+02 2.122709e-21
7.990000e+02 2.378970e-21
8.000000e+02 2.665388e-21
8.010000e+02 2.985420e-21
8.020000e+02 3.342909e-21
8.030000e+02 3.742125e-21
8.040000e+02 4.187810e-21
8.050000e+02 4.681175e-21
8.060000e+02 5.240234e-21
8.070000e+02 5.859325e-21
8.080000e+02 6.549693e-21
8.090000e+02 7.319334e-21
8.100000e+02 8.177113e-21
8.110000e+02 9.132855e-21
8.120000e+02 1.019746e-20
8.130000e+02 1.138299e-20
8.140000e+02 1.270281e-20
8.150000e+02 1.417177e-20
8.160000e+02 1.580624e-20
8.170000e+02 1.762439e-20
8.180000e+02 1.964629e-20
8.190000e+02 2.189420e-20
8.200000e+02 2.439269e-20
8.210000e+02 2.716896e-20
8.220000e+02 3.025306e-20
8.230000e+02 3.367822e-20
8.240000e+02 3.748115e-20
8.250000e+02 4.170239e-20
8.260000e+02 4.638674e-20
8.270000e+02 5.158363e-20
8.280000e+02 5.734764e-20
8.290000e+02 6.373899e-20
8.300000e+02 7.082413e-20
8.310000e+02 7.867634e-20
8.320000e+02 8.737644e-20
8.330000e+02 9.701350e-20
8.340000e+02 1.076857e-19
8.350000e+02 1.194971e-19
8.360000e+02 1.325793e-19
8.370000e+02 1.470511e-19
8.380000e+02 1.630611e-19
8.390000e+02 1.807684e-19
8.400000e+02 2.003481e-19
8.410000e+02 2.219927e-19
8.420000e+02 2.459142e-19
8.430000e+02 2.723453e-19
8.440000e+02 3.015423e-19
8.450000e+02 3.337862e-19
8.460000e+02 3.693881e-19
8.470000e+02 4.086670e-19
8.480000e+02 4.520400e-19
8.490000e+02 4.999013e-19
8.500000e+02 5.526221e-19
8.510000e+02 6.108802e-19
8.520000e+02 6.749562e-19
8.530000e+02 7.457754e-19
8.540000e+02 8.237162e-19
8.550000e+02 9.095844e-19
8.560000e+02 1.004166e-18
8.570000e+02 1.108318e-18
8.580000e+02 1.222936e-18
8.590000e+02 1.349195e-18
8.600000e+02 1.488072e-18
8.610000e+02 1.640879e-18
8.620000e+02 1.808947e-18
8.630000e+02 1.993764e-18
8.640000e+02 2.196682e-18
8.650000e+02 2.420294e-18
8.660000e+02 2.665719e-18
8.670000e+02 2.935370e-18
8.680000e+02 3.231553e-18
8.690000e+02 3.556811e-18
8.700000e+02 3.912334e-18
8.710000e+02 4.305905e-18
8.720000e+02 4.735726e-18
8.730000e+02 5.208071e-18
8.740000e+02 5.725813e-18
8.750000e+02 6.293621e-18
8.760000e+02 6.916160e-18
8.770000e+02 7.598680e-18
8.780000e+02 8.343638e-18
8.790000e+02 9.166025e-18
8.800000e+02 1.006354e-17
8.810000e+02 1.104645e-17
8.820000e+02 1.212442e-17
8.830000e+02 1.330298e-17
8.840000e+02 1.459079e-17
8.850000e+02 1.600595e-17
8.860000e+02 1.755098e-17
8.870000e+02 1.924103e-17
8.880000e+02 2.108830e-17
8.890000e+02 2.310947e-17
8.900000e+02 2.531949e-17
8.910000e+02 2.773400e-17
8.920000e+02 3.037249e-17
8.930000e+02 3.325495e-17
8.940000e+02 3.640226e-17
8.950000e+02 3.984156e-17
8.960000e+02 4.359544e-17
8.970000e+02 4.769313e-17
8.980000e+02 5.216350e-17
8.990000e+02 5.704492e-17
9.000000e+02 6.236769e-17
9.010000e+02 6.817464e-17
9.020000e+02 7.450046e-17
9.030000e+02 8.137205e-17
9.040000e+02 8.892096e-17
9.050000e+02 9.713411e-17
9.060000e+02 1.060709e-16
9.070000e+02 1.158055e-16
9.080000e+02 1.264083e-16
9.090000e+02 1.379543e-16
9.100000e+02 1.505253e-16
9.110000e+02 1.641984e-16
9.120000e+02 1.791026e-16
9.130000e+02 1.952320e-16
9.140000e+02 3.469549e-16
9.150000e+02 1.588212e-15
9.160000e+02 8.338085e-15
9.170000e+02 5.310189e-16
9.180000e+02 2.435069e-15
9.190000e+02 2.664158e-14
9.200000e+02 1.084446e-13
9.210000e+02 3.890003e-16
9.220000e+02 1.589442e-15
9.230000e+02 8.845147e-16
9.240000e+02 8.310081e-16
9.250000e+02 8.397812e-16
9.260000e+02 3.759803e-15
9.270000e+02 1.124462e-15
9.280000e+02 5.659679e-13
9.290000e+02 2.696549e-13
9.300000e+02 2.016376e-14
9.310000e+02 1.832069e-15
9.320000e+02 7.234959e-15
9.330000e+02 1.365729e-15
9.340000e+02 1.884282e-15
9.350000e+02 1.934226e-15
9.360000e+02 2.809563e-15
9.370000e+02 2.284617e-15
9.380000e+02 2.748337e-15
9.390000e+02 3.322033e-15
9.400000e+02 2.934415e-14
9.410000e+02 2.882904e-15
9.420000e+02 2.604256e-12
9.430000e+02 4.389745e-15
9.440000e+02 1.408964e-12
9.450000e+02 8.229935e-13
9.460000e+02 4.223136e-15
9.470000e+02 3.432883e-15
9.480000e+02 1.883107e-14
9.490000e+02 3.054995e-14
9.500000e+02 6.624403e-15
9.510000e+02 8.055412e-15
9.520000e+02 1.590319e-14
9.530000e+02 1.003995e-14
9.540000e+02 5.853306e-15
9.550000e+02 1.198930e-14
9.560000e+02 4.316738e-14
9.570000e+02 1.509632e-14
9.580000e+02 7.937522e-15
9.590000e+02 1.021987e-14
9.600000e+02 1.426716e-14
9.610000e+02 1.358139e-14
9.620000e+02 1.422318e-14
9.630000e+02 2.294675e-14
9.640000e+02 2.103688e-14
9.650000e+02 1.440455e-14
9.660000e+02 3.044167e-14
9.670000e+02 2.436509e-14
9.680000e+02 2.374809e-14
9.690000e+02 3.335364e-14
9.700000e+02 2.703491e-14
9.710000e+02 3.815618e-14
9.720000e+02 2.812594e-14
9.730000e+02 4.323771e-14
9.740000e+02 3.473865e-14
9.750000e+02 5.628402e-14
9.760000e+02 3.261750e-13
9.770000e+02 6.057183e-14
9.780000e+02 4.599217e-14
9.790000e+02 5.841507e-12
9.800000e+02 4.388930e-13
9.810000e+02 6.423551e-14
9.820000e+02 1.013341e-13
9.830000e+02 4.645931e-13
9.840000e+02 1.084205e-13
9.850000e+02 1.188991e-13
9.860000e+02 1.185135e-13
9.870000e+02 1.359736e-13
9.880000e+02 8.158762e-14
9.890000e+02 1.029154e-13
9.900000e+02 2.321142e-13
9.910000e+02 1.956426e-13
9.920000e+02 1.036465e-13
9.930000e+02 1.384524e-12
9.940000e+02 2.082973e-13
9.950000e+02 1.663558e-13
9.960000e+02 1.862858e-13
9.970000e+02 8.567707e-13
9.980000e+02 3.190029e-13
9.990000e+02 3.466500e-13
1.000000e+03 2.172525e-11
1.001000e+03 9.071459e-12
1.002000e+03 1.294180e-12
1.003000e+03 4.426179e-13
1.004000e+03 2.479491e-13
1.005000e+03 4.694786e-13
1.006000e+03 1.046044e-12
1.007000e+03 3.743039e-12
1.008000e+03 8.093886e-13
1.009000e+03 6.773058e-13
1.010000e+03 4.908033e-13
1.011000e+03 4.726376e-13
1.012000e+03 1.078599e-12
1.013000e+03 1.262167e-12
1.014000e+03 4.970581e-13
1.015000e+03 5.464002e-13
1.016000e+03 9.958258e-13
1.017000e+03 6.121284e-13
1.018000e+03 1.132506e-12
1.019000e+03 7.059839e-13
1.020000e+03 1.467493e-12
1.021000e+03 1.572964e-12
1.022000e+03 1.650293e-12
1.023000e+03 1.023439e-12
1.024000e+03 4.601817e-12
1.025000e+03 1.060320e-12
1.026000e+03 1.836576e-12
1.027000e+03 1.618656e-12
1.028000e+03 2.080124e-12
1.029000e+03 1.390893e-12
1.030000e+03 2.671892e-12
1.031000e+03 1.885209e-12
1.032000e+03 2.006725e-11
1.033000e+03 2.746447e-12
1.034000e+03 2.394385e-12
1.035000e+03 3.496508e-12
1.036000e+03 2.224999e-12
1.037000e+03 3.557104e-12
1.038000e+03 2.042547e-11
1.039000e+03 9.595262e-12
1.040000e+03 3.376832e-12
1.041000e+03 7.696076e-12
1.042000e+03 2.596276e-11
1.043000e+03 8.828200e-11
1.044000e+03 2.471628e-10
1.045000e+03 6.676086e-12
1.046000e+03 5.166083e-12
1.047000e+03 6.362966e-12
1.048000e+03 7.512108e-12
1.049000e+03 6.161482e-12
1.050000e+03 1.056140e-11
1.051000e+03 1.159650e-11
1.052000e+03 4.642637e-11
1.053000e+03 3.210648e-11
1.054000e+03 7.226206e-12
1.055000e+03 5.309603e-11
1.056000e+03 6.658136e-11
1.057000e+03 1.573353e-11
1.058000e+03 1.703216e-11
1.059000e+03 1.829050e-11
1.060000e+03 1.514041e-11
1.061000e+03 6.184864e-11
1.062000e+03 1.854405e-11
1.063000e+03 2.856478e-11
1.064000e+03 2.236855e-11
1.065000e+03 1.454621e-11
1.066000e+03 1.054070e-10
1.067000e+03 3.077267e-11
1.068000e+03 2.215925e-10
1.069000e+03 2.274432e-11
1.070000e+03 3.248116e-11
1.071000e+03 3.787388e-11
1.072000e+03 2.977766e-09
1.073000e+03 2.398127e-11
1.074000e+03 3.560306e-11
1.075000e+03 3.184220e-11
1.076000e+03 2.903099e-09
1.077000e+03 4.812382e-11
1.078000e+03 5.396100e-11
1.079000e+03 6.422263e-11
1.080000e+03 4.278413e-11
1.081000e+03 2.090011e-10
1.082000e+03 9.872744e-11
1.083000e+03 5.917888e-11
1.084000e+03 5.929293e-09
1.085000e+03 7.756470e-11
1.086000e+03 6.536939e-10
1.087000e+03 1.035926e-10
1.088000e+03 2.886303e-09
1.089000e+03 4.199392e-09
1.090000e+03 1.184735e-10
1.091000e+03 1.032454e-10
1.092000e+03 3.163278e-09
1.093000e+03 7.990542e-09
1.094000e+03 9.962541e-11
1.095000e+03 1.312573e-08
1.096000e+03 3.451026e-09
1.097000e+03 3.636028e-09
1.098000e+03 7.638955e-09
1.099000e+03 1.638707e-10
1.100000e+03 1.284265e-10
1.101000e+03 1.759017e-10
1.102000e+03 2.017735e-10
1.103000e+03 7.840066e-08
1.104000e+03 3.106670e-09
1.105000e+03 2.840455e-08
1.106000e+03 2.162048e-10
1.107000e+03 2.236580e-10
1.108000e+03 2.187494e-09
1.109000e+03 3.711897e-10
1.110000e+03 2.679904e-09
1.111000e+03 3.651289e-08
1.112000e+03 7.404404e-10
1.113000e+03 5.534960e-08
1.114000e+03 3.659482e-10
1.115000e+03 5.463163e-10
1.116000e+03 4.141580e-10
1.117000e+03 5.382214e-08
1.118000e+03 5.992113e-10
1.119000e+03 5.117614e-10
1.120000e+03 6.476801e-10
1.121000e+03 1.291932e-08
1.122000e+03 3.162192e-07
1.123000e+03 7.079410e-08
1.124000e+03 7.388233e-08
1.125000e+03 2.785427e-08
1.126000e+03 5.959405e-07
1.127000e+03 9.625850e-09
1.128000e+03 1.080319e-07
1.129000e+03 1.975621e-09
1.130000e+03 1.524422e-07
1.131000e+03 2.871166e-07
1.132000e+03 1.266611e-09
1.133000e+03 9.297025e-10
1.134000e+03 1.996369e-08
1.135000e+03 2.146300e-07
1.136000e+03 1.107017e-09
1.137000e+03 1.092456e-07
1.138000e+03 7.526934e-09
1.139000e+03 1.443225e-07
1.140000e+03 3.946577e-08
1.141000e+03 4.886300e-07
1.142000e+03 2.781426e-07
1.143000e+03 2.823413e-09
1.144000e+03 3.999601e-07
1.145000e+03 2.064057e-09
1.146000e+03 2.022024e-07
1.147000e+03 2.962880e-07
1.148000e+03 3.214097e-09
1.149000e+03 8.462917e-08
1.150000e+03 6.165089e-08
1.151000e+03 2.022783e-07
1.152000e+03 1.624864e-08
1.153000e+03 4.595335e-07
1.154000e+03 6.412135e-07
1.155000e+03 1.759459e-07
1.156000e+03 3.389081e-07
1.157000e+03 4.440954e-07
1.158000e+03 6.996402e-09
1.159000e+03 3.321663e-07
1.160000e+03 2.457003e-08
1.161000e+03 3.936360e-07
1.162000e+03 5.081418e-09
1.163000e+03 7.886456e-09
1.164000e+03 6.060262e-09
1.165000e+03 7.568206e-08
1.166000e+03 4.202286e-08
1.167000e+03 4.014794e-08
1.168000e+03 3.447750e-07
1.169000e+03 6.678665e-07
1.170000e+03 1.389198e-08
1.171000e+03 2.409208e-07
1.172000e+03 8.717758e-08
1.173000e+03 1.643097e-07
1.174000e+03 1.086621e-08
1.175000e+03 1.193473e-08
1.176000e+03 1.166517e-08
1.177000e+03 9.574524e-07
1.178000e+03 9.260241e-07
1.179000e+03 7.709307e-07
1.180000e+03 2.568461e-07
1.181000e+03 7.556735e-07
1.182000e+03 5.297519e-07
1.183000e+03 1.610506e-07
1.184000e+03 1.278596e-07
1.185000e+03 1.246914e-07
1.186000e+03 2.369102e-08
1.187000e+03 4.760343e-07
1.188000e+03 1.128723e-07
1.189000e+03 5.773259e-07
1.190000e+03 5.413898e-07
1.191000e+03 4.366900e-07
1.192000e+03 4.388671e-07
1.193000e+03 2.894708e-07
1.194000e+03 4.334158e-07
1.195000e+03 4.006277e-07
1.196000e+03 1.211280e-05
1.197000e+03 7.518947e-05
1.198000e+03 3.901835e-08
1.199000e+03 5.718759e-05
1.200000e+03 3.048729e-08
1.201000e+03 1.811884e-05
1.202000e+03 1.274114e-06
1.203000e+03 1.516749e-05
1.204000e+03 4.316152e-08
1.205000e+03 7.719697e-06
1.206000e+03 4.366405e-06
1.207000e+03 3.197401e-07
1.208000e+03 2.987373e-06
1.209000e+03 3.577116e-06
1.210000e+03 6.633508e-08
1.211000e+03 9.173260e-07
1.212000e+03 1.181172e-07
1.213000e+03 1.433218e-07
1.214000e+03 7.738598e-08
1.215000e+03 8.139254e-08
1.216000e+03 6.388005e-08
1.217000e+03 8.887476e-08
1.218000e+03 1.312549e-07
1.219000e+03 3.446151e-07
1.220000e+03 8.348654e-08
1.221000e+03 2.186427e-06
1.222000e+03 1.362714e-06
1.223000e+03 4.197873e-07
1.224000e+03 8.877370e-06
1.225000e+03 1.444496e-07
1.226000e+03 2.781485e-05
1.227000e+03 3.711304e-05
1.228000e+03 1.927701e-07
1.229000e+03 3.356256e-05
1.230000e+03 1.428510e-05
1.231000e+03 1.325388e-07
1.232000e+03 1.253221e-04
1.233000e+03 1.664593e-04
1.234000e+03 1.837803e-04
1.235000e+03 9.535017e-05
1.236000e+03 4.000376e-07
1.237000e+03 2.306837e-04
1.238000e+03 1.622075e-04
1.239000e+03 5.793212e-06
1.240000e+03 5.357410e-05
1.241000e+03 2.628127e-05
1.242000e+03 8.364090e-05
1.243000e+03 3.436508e-04
1.244000e+03 3.897839e-04
1.245000e+03 3.944731e-04
1.246000e+03 5.928673e-05
1.247000e+03 1.087276e-04
1.248000e+03 3.657883e-04
1.249000e+03 5.296041e-04
1.250000e+03 2.919745e-04
1.251000e+03 4.991996e-04
1.252000e+03 2.739143e-04
1.253000e+03 5.637177e-04
1.254000e+03 2.375599e-04
1.255000e+03 3.445290e-05
1.256000e+03 1.379339e-04
1.257000e+03 1.433224e-04
1.258000e+03 3.669786e-05
1.259000e+03 5.683245e-05
1.260000e+03 4.715337e-04
1.261000e+03 2.073823e-06
1.262000e+03 4.671029e-04
1.263000e+03 3.363413e-04
1.264000e+03 4.731881e-05
1.265000e+03 1.584271e-04
1.266000e+03 4.918962e-04
1.267000e+03 1.539374e-04
