# wavelength_A flux
5.000000e+02 0.000000e+00
5.010000e+02 0.000000e+00
5.020000e+02 0.000000e+00
5.030000e+02 0.000000e+00
5.040000e+02 0.000000e+00
5.050000e+02 0.000000e+00
5.060000e+02 0.000000e+00
5.070000e+02 0.000000e+00
5.080000e+02 0.000000e+00
5.090000e+02 0.000000e+00
5.100000e+02 0.000000e+00
5.110000e+02 0.000000e+00
5.120000e+02 0.000000e+00
5.130000e+02 1.401298e-45
5.140000e+02 1.401298e-45
5.150000e+02 1.401298e-45
5.160000e+02 1.401298e-45
5.170000e+02 2.802597e-45
5.180000e+02 4.203895e-45
5.190000e+02 4.203895e-45
5.200000e+02 7.006492e-45
5.210000e+02 8.407791e-45
5.220000e+02 1.121039e-44
5.230000e+02 1.541428e-44
5.240000e+02 1.961818e-44
5.250000e+02 2.662467e-44
5.260000e+02 3.363116e-44
5.270000e+02 4.484155e-44
5.280000e+02 5.885454e-44
5.290000e+02 7.847271e-44
5.300000e+02 1.022948e-43
5.310000e+02 1.345247e-43
5.320000e+02 1.765636e-43
5.330000e+02 2.312142e-43
5.340000e+02 3.040818e-43
5.350000e+02 3.965675e-43
5.360000e+02 5.184804e-43
5.370000e+02 6.768272e-43
5.380000e+02 8.814167e-43
5.390000e+02 1.147663e-42
5.400000e+02 1.492383e-42
5.410000e+02 1.940798e-42
5.420000e+02 2.519535e-42
5.430000e+02 3.267828e-42
5.440000e+02 4.234724e-42
5.450000e+02 5.481880e-42
5.460000e+02 7.089169e-42
5.470000e+02 9.160288e-42
5.480000e+02 1.182416e-41
5.490000e+02 1.524893e-41
5.500000e+02 1.964620e-41
5.510000e+02 2.528923e-41
5.520000e+02 3.252133e-41
5.530000e+02 4.178392e-41
5.540000e+02 5.363470e-41
5.550000e+02 6.878554e-41
5.560000e+02 8.813327e-41
5.570000e+02 1.128227e-40
5.580000e+02 1.442973e-40
5.590000e+02 1.843871e-40
5.600000e+02 2.354055e-40
5.610000e+02 3.002730e-40
5.620000e+02 3.826792e-40
5.630000e+02 4.872721e-40
5.640000e+02 6.199106e-40
5.650000e+02 7.879697e-40
5.660000e+02 1.000726e-39
5.670000e+02 1.269838e-39
5.680000e+02 1.609942e-39
5.690000e+02 2.039405e-39
5.700000e+02 2.581246e-39
5.710000e+02 3.264302e-39
5.720000e+02 4.124659e-39
5.730000e+02 5.207444e-39
5.740000e+02 6.569038e-39
5.750000e+02 8.279831e-39
5.760000e+02 1.042763e-38
5.770000e+02 1.312188e-38
5.780000e+02 1.649888e-38
5.790000e+02 2.072826e-38
5.800000e+02 2.602095e-38
5.810000e+02 3.263902e-38
5.820000e+02 4.090781e-38
5.830000e+02 5.123098e-38
5.840000e+02 6.410886e-38
5.850000e+02 8.016117e-38
5.860000e+02 1.001550e-37
5.870000e+02 1.250389e-37
5.880000e+02 1.559853e-37
5.890000e+02 1.944420e-37
5.900000e+02 2.421952e-37
5.910000e+02 3.014478e-37
5.920000e+02 3.749137e-37
5.930000e+02 4.659345e-37
5.940000e+02 5.786214e-37
5.950000e+02 7.180286e-37
5.960000e+02 8.903654e-37
5.970000e+02 1.103255e-36
5.980000e+02 1.366047e-36
5.990000e+02 1.690206e-36
6.000000e+02 2.089775e-36
6.010000e+02 2.581943e-36
6.020000e+02 3.187738e-36
6.030000e+02 3.932864e-36
6.040000e+02 4.848722e-36
6.050000e+02 5.973641e-36
6.060000e+02 7.354379e-36
6.070000e+02 9.047934e-36
6.080000e+02 1.112374e-35
6.090000e+02 1.366633e-35
6.100000e+02 1.677853e-35
6.110000e+02 2.058536e-35
6.120000e+02 2.523870e-35
6.130000e+02 3.092295e-35
6.140000e+02 3.786185e-35
6.150000e+02 4.632666e-35
6.160000e+02 5.664609e-35
6.170000e+02 6.921816e-35
6.180000e+02 8.452454e-35
6.190000e+02 1.031477e-34
6.200000e+02 1.257916e-34
6.210000e+02 1.533065e-34
6.220000e+02 1.867186e-34
6.230000e+02 2.272657e-34
6.240000e+02 2.764403e-34
6.250000e+02 3.360400e-34
6.260000e+02 4.082293e-34
6.270000e+02 4.956124e-34
6.280000e+02 6.013211e-34
6.290000e+02 7.291186e-34
6.300000e+02 8.835250e-34
6.310000e+02 1.069965e-33
6.320000e+02 1.294946e-33
6.330000e+02 1.566270e-33
6.340000e+02 1.893282e-33
6.350000e+02 2.287176e-33
6.360000e+02 2.761341e-33
6.370000e+02 3.331796e-33
6.380000e+02 4.017683e-33
6.390000e+02 4.841871e-33
6.400000e+02 5.831660e-33
6.410000e+02 7.019624e-33
6.420000e+02 8.444606e-33
6.430000e+02 1.015290e-32
6.440000e+02 1.219964e-32
6.450000e+02 1.465046e-32
6.460000e+02 1.758345e-32
6.470000e+02 2.109148e-32
6.480000e+02 2.528487e-32
6.490000e+02 3.029471e-32
6.500000e+02 3.627655e-32
6.510000e+02 4.341498e-32
6.520000e+02 5.192887e-32
6.530000e+02 6.207759e-32
6.540000e+02 7.416835e-32
6.550000e+02 8.856484e-32
6.560000e+02 1.056974e-31
6.570000e+02 1.260748e-31
6.580000e+02 1.502984e-31
6.590000e+02 1.790787e-31
6.600000e+02 2.132544e-31
6.610000e+02 2.538151e-31
6.620000e+02 3.019281e-31
6.630000e+02 3.589693e-31
6.640000e+02 4.265596e-31
6.650000e+02 5.066078e-31
6.660000e+02 6.013605e-31
6.670000e+02 7.134601e-31
6.680000e+02 8.460137e-31
6.690000e+02 1.002672e-30
6.700000e+02 1.187724e-30
6.710000e+02 1.406203e-30
6.720000e+02 1.664015e-30
6.730000e+02 1.968088e-30
6.740000e+02 2.326541e-30
6.750000e+02 2.748887e-30
6.760000e+02 3.246264e-30
6.770000e+02 3.831712e-30
6.780000e+02 4.520480e-30
6.790000e+02 5.330405e-30
6.800000e+02 6.282327e-30
6.810000e+02 7.400596e-30
6.820000e+02 8.713637e-30
6.830000e+02 1.025463e-29
6.840000e+02 1.206227e-29
6.850000e+02 1.418167e-29
6.860000e+02 1.666542e-29
6.870000e+02 1.957477e-29
6.880000e+02 2.298101e-29
6.890000e+02 2.696713e-29
6.900000e+02 3.162966e-29
6.910000e+02 3.708082e-29
6.920000e+02 4.345102e-29
6.930000e+02 5.089175e-29
6.940000e+02 5.957890e-29
6.950000e+02 6.971659e-29
6.960000e+02 8.154158e-29
6.970000e+02 9.532843e-29
6.980000e+02 1.113953e-28
6.990000e+02 1.301108e-28
7.000000e+02 1.519017e-28
7.010000e+02 1.772620e-28
7.020000e+02 2.067632e-28
7.030000e+02 2.410661e-28
7.040000e+02 2.809347e-28
7.050000e+02 3.272514e-28
7.060000e+02 3.810357e-28
7.070000e+02 4.434641e-28
7.080000e+02 5.158945e-28
7.090000e+02 5.998927e-28
7.100000e+02 6.972643e-28
7.110000e+02 8.100899e-28
7.120000e+02 9.407662e-28
7.130000e+02 1.092053e-27
7.140000e+02 1.267127e-27
7.150000e+02 1.469642e-27
7.160000e+02 1.703802e-27
7.170000e+02 1.974437e-27
7.180000e+02 2.287098e-27
7.190000e+02 2.648161e-27
7.200000e+02 3.064948e-27
7.210000e+02 3.545860e-27
7.220000e+02 4.100534e-27
7.230000e+02 4.740025e-27
7.240000e+02 5.477000e-27
7.250000e+02 6.325977e-27
7.260000e+02 7.303583e-27
7.270000e+02 8.428853e-27
7.280000e+02 9.723574e-27
7.290000e+02 1.121267e-26
7.300000e+02 1.292464e-26
7.310000e+02 1.489207e-26
7.320000e+02 1.715219e-26
7.330000e+02 1.974751e-26
7.340000e+02 2.272661e-26
7.350000e+02 2.614488e-26
7.360000e+02 3.006556e-26
7.370000e+02 3.456076e-26
7.380000e+02 3.971269e-26
7.390000e+02 4.561504e-26
7.400000e+02 5.237454e-26
7.410000e+02 6.011272e-26
7.420000e+02 6.896795e-26
7.430000e+02 7.909766e-26
7.440000e+02 9.068094e-26
7.450000e+02 1.039214e-25
7.460000e+02 1.190506e-25
7.470000e+02 1.363316e-25
7.480000e+02 1.560629e-25
7.490000e+02 1.785840e-25
7.500000e+02 2.042797e-25
7.510000e+02 2.335870e-25
7.520000e+02 2.670013e-25
7.530000e+02 3.050844e-25
7.540000e+02 3.484731e-25
7.550000e+02 3.978888e-25
7.560000e+02 4.541486e-25
7.570000e+02 5.181777e-25
7.580000e+02 5.910232e-25
7.590000e+02 6.738699e-25
7.600000e+02 7.680577e-25
7.610000e+02 8.751018e-25
7.620000e+02 9.967147e-25
7.630000e+02 1.134831e-24
7.640000e+02 1.291637e-24
7.650000e+02 1.469599e-24
7.660000e+02 1.671504e-24
7.670000e+02 1.900493e-24
7.680000e+02 2.160112e-24
7.690000e+02 2.454358e-24
7.700000e+02 2.787738e-24
7.710000e+02 3.165329e-24
7.720000e+02 3.592850e-24
7.730000e+02 4.076744e-24
7.740000e+02 4.624260e-24
7.750000e+02 5.243561e-24
7.760000e+02 5.943826e-24
7.770000e+02 6.735379e-24
7.780000e+02 7.629830e-24
7.790000e+02 8.640225e-24
7.800000e+02 9.781224e-24
7.810000e+02 1.106929e-23
7.820000e+02 1.252292e-23
7.830000e+02 1.416285e-23
7.840000e+02 1.601239e-23
7.850000e+02 1.809765e-23
7.860000e+02 2.044793e-23
7.870000e+02 2.309609e-23
7.880000e+02 2.607892e-23
7.890000e+02 2.943769e-23
7.900000e+02 3.321858e-23
7.910000e+02 3.747332e-23
7.920000e+02 4.225983e-23
7.930000e+02 4.764289e-23
7.940000e+02 5.369501e-23
7.950000e+02 6.049725e-23
7.960000e+02 6.814025e-23
7.970000e+02 7.672534e-23
7.980000e+02 8.636569e-23
7.990000e+02 9.718778e-23
8.000000e+02 1.093328e-22
8.010000e+02 1.229584e-22
8.020000e+02 1.382405e-22
8.030000e+02 1.553755e-22
8.040000e+02 1.745822e-22
8.050000e+02 1.961048e-22
8.060000e+02 2.202156e-22
8.070000e+02 2.472177e-22
8.080000e+02 2.774492e-22
8.090000e+02 3.112865e-22
8.100000e+02 3.491486e-22
8.110000e+02 3.915021e-22
8.120000e+02 4.388662e-22
8.130000e+02 4.918184e-22
8.140000e+02 5.510013e-22
8.150000e+02 6.171293e-22
8.160000e+02 6.909964e-22
8.170000e+02 7.734850e-22
8.180000e+02 8.655756e-22
8.190000e+02 9.683574e-22
8.200000e+02 1.083039e-21
8.210000e+02 1.210963e-21
8.220000e+02 1.353620e-21
8.230000e+02 1.512661e-21
8.240000e+02 1.689921e-21
8.250000e+02 1.887431e-21
8.260000e+02 2.107446e-21
8.270000e+02 2.352463e-21
8.280000e+02 2.625250e-21
8.290000e+02 2.928872e-21
8.300000e+02 3.266723e-21
8.310000e+02 3.642563e-21
8.320000e+02 4.060552e-21
8.330000e+02 4.525292e-21
8.340000e+02 5.041876e-21
8.350000e+02 5.615936e-21
8.360000e+02 6.253699e-21
8.370000e+02 6.962049e-21
8.380000e+02 7.748593e-21
8.390000e+02 8.621737e-21
8.400000e+02 9.590763e-21
8.410000e+02 1.066592e-20
8.420000e+02 1.185854e-20
8.430000e+02 1.318110e-20
8.440000e+02 1.464738e-20
8.450000e+02 1.627261e-20
8.460000e+02 1.807353e-20
8.470000e+02 2.006866e-20
8.480000e+02 2.227837e-20
8.490000e+02 2.472513e-20
8.500000e+02 2.743369e-20
8.510000e+02 3.043132e-20
8.520000e+02 3.374804e-20
8.530000e+02 3.741693e-20
8.540000e+02 4.147436e-20
8.550000e+02 4.596039e-20
8.560000e+02 5.091907e-20
8.570000e+02 5.639889e-20
8.580000e+02 6.245312e-20
8.590000e+02 6.914036e-20
8.600000e+02 7.652503e-20
8.610000e+02 8.467790e-20
8.620000e+02 9.367672e-20
8.630000e+02 1.036069e-19
8.640000e+02 1.145623e-19
8.650000e+02 1.266457e-19
8.660000e+02 1.399704e-19
8.670000e+02 1.546602e-19
8.680000e+02 1.708513e-19
8.690000e+02 1.886929e-19
8.700000e+02 2.083487e-19
8.710000e+02 2.299981e-19
8.720000e+02 2.538379e-19
8.730000e+02 2.800837e-19
8.740000e+02 3.089715e-19
8.750000e+02 3.407601e-19
8.760000e+02 3.757328e-19
8.770000e+02 4.141999e-19
8.780000e+02 4.565008e-19
8.790000e+02 5.030071e-19
8.800000e+02 5.541257e-19
8.810000e+02 6.103011e-19
8.820000e+02 6.720199e-19
8.830000e+02 7.398141e-19
8.840000e+02 8.142650e-19
8.850000e+02 8.960085e-19
8.860000e+02 9.857389e-19
8.870000e+02 1.084215e-18
8.880000e+02 1.192266e-18
8.890000e+02 1.310796e-18
8.900000e+02 1.440795e-18
8.910000e+02 1.583339e-18
8.920000e+02 1.739608e-18
8.930000e+02 1.910884e-18
8.940000e+02 2.098570e-18
8.950000e+02 2.304193e-18
8.960000e+02 2.529421e-18
8.970000e+02 2.776069e-18
8.980000e+02 3.046117e-18
8.990000e+02 3.341725e-18
9.000000e+02 3.665242e-18
9.010000e+02 4.019230e-18
9.020000e+02 4.406479e-18
9.030000e+02 4.830024e-18
9.040000e+02 5.293173e-18
9.050000e+02 5.799524e-18
9.060000e+02 6.352992e-18
9.070000e+02 6.957840e-18
9.080000e+02 7.618700e-18
9.090000e+02 8.340613e-18
9.100000e+02 9.129060e-18
9.110000e+02 9.989998e-18
9.120000e+02 1.092990e-17
9.130000e+02 1.195581e-17
9.140000e+02 1.294955e-17
9.150000e+02 7.222269e-16
9.160000e+02 5.421018e-15
9.170000e+02 2.099633e-15
9.180000e+02 9.790275e-16
9.190000e+02 1.789261e-14
9.200000e+02 6.043745e-14
9.210000e+02 2.433001e-17
9.220000e+02 9.773704e-14
9.230000e+02 5.314455e-16
9.240000e+02 5.936508e-15
9.250000e+02 8.411630e-14
9.260000e+02 1.699790e-15
9.270000e+02 7.236776e-15
9.280000e+02 5.660186e-13
9.290000e+02 5.168147e-13
9.300000e+02 8.797693e-14
9.310000e+02 1.614764e-15
9.320000e+02 4.140492e-13
9.330000e+02 8.436363e-13
9.340000e+02 6.683416e-13
9.350000e+02 1.622255e-15
9.360000e+02 5.799847e-14
9.370000e+02 6.105388e-16
9.380000e+02 6.735658e-16
9.390000e+02 1.143632e-13
9.400000e+02 1.354211e-12
9.410000e+02 1.581267e-14
9.420000e+02 2.636704e-12
9.430000e+02 4.568438e-13
9.440000e+02 3.119675e-12
9.450000e+02 3.095668e-12
9.460000e+02 2.373978e-12
9.470000e+02 3.346498e-15
9.480000e+02 2.772333e-13
9.490000e+02 5.082613e-14
9.500000e+02 7.651856e-16
9.510000e+02 3.884358e-13
9.520000e+02 1.985527e-12
9.530000e+02 1.178539e-13
9.540000e+02 5.154514e-15
9.550000e+02 9.205319e-13
9.560000e+02 6.421755e-13
9.570000e+02 1.924025e-13
9.580000e+02 2.782063e-15
9.590000e+02 9.030133e-12
9.600000e+02 4.693728e-15
9.610000e+02 1.041559e-11
9.620000e+02 7.819681e-12
9.630000e+02 3.106690e-13
9.640000e+02 1.267554e-13
9.650000e+02 1.560297e-14
9.660000e+02 1.983570e-12
9.670000e+02 1.727672e-13
9.680000e+02 1.259227e-13
9.690000e+02 3.578191e-12
9.700000e+02 3.604359e-12
9.710000e+02 1.888320e-13
9.720000e+02 1.617886e-14
9.730000e+02 1.747631e-14
9.740000e+02 8.110122e-13
9.750000e+02 2.532241e-12
9.760000e+02 1.223445e-11
9.770000e+02 1.839702e-11
9.780000e+02 2.054055e-11
9.790000e+02 3.345632e-11
9.800000e+02 3.861023e-11
9.810000e+02 2.483343e-11
9.820000e+02 6.113481e-12
9.830000e+02 5.235129e-11
9.840000e+02 1.111848e-12
9.850000e+02 1.204846e-11
9.860000e+02 8.769528e-12
9.870000e+02 6.979322e-11
9.880000e+02 7.839215e-14
9.890000e+02 6.919655e-11
9.900000e+02 6.918388e-11
9.910000e+02 7.790430e-12
9.920000e+02 2.636471e-14
9.930000e+02 6.512042e-11
9.940000e+02 1.137632e-14
9.950000e+02 2.658065e-12
9.960000e+02 3.922834e-13
9.970000e+02 7.441270e-14
9.980000e+02 1.307391e-10
9.990000e+02 9.737743e-12
1.000000e+03 1.753126e-10
1.001000e+03 1.509285e-10
1.002000e+03 1.982495e-10
1.003000e+03 9.315597e-12
1.004000e+03 1.756373e-13
1.005000e+03 6.264637e-11
1.006000e+03 2.427934e-10
1.007000e+03 2.614313e-10
1.008000e+03 2.584368e-10
1.009000e+03 5.503681e-12
1.010000e+03 2.669447e-10
1.011000e+03 2.675171e-10
1.012000e+03 3.056390e-10
1.013000e+03 3.116460e-10
1.014000e+03 1.488809e-13
1.015000e+03 4.292400e-13
1.016000e+03 4.772135e-11
1.017000e+03 1.125211e-13
1.018000e+03 1.380970e-11
1.019000e+03 5.053180e-13
1.020000e+03 1.885579e-10
1.021000e+03 4.343151e-12
1.022000e+03 2.364872e-11
1.023000e+03 1.641482e-12
1.024000e+03 6.072276e-12
1.025000e+03 1.086298e-13
1.026000e+03 1.013760e-13
1.027000e+03 3.227042e-12
1.028000e+03 4.698048e-13
1.029000e+03 2.788672e-13
1.030000e+03 1.645610e-10
1.031000e+03 6.004815e-10
1.032000e+03 7.826589e-10
1.033000e+03 5.762724e-12
1.034000e+03 9.827872e-10
1.035000e+03 3.301803e-13
1.036000e+03 9.121592e-13
1.037000e+03 5.141989e-09
1.038000e+03 7.122960e-09
1.039000e+03 7.626063e-09
1.040000e+03 6.534294e-09
1.041000e+03 7.763031e-09
1.042000e+03 1.170069e-08
1.043000e+03 5.299746e-09
1.044000e+03 1.486186e-08
1.045000e+03 6.616381e-13
1.046000e+03 9.603958e-09
1.047000e+03 8.132768e-09
1.048000e+03 5.198064e-11
1.049000e+03 7.854541e-09
1.050000e+03 6.761569e-10
1.051000e+03 1.805720e-10
1.052000e+03 2.544733e-08
1.053000e+03 2.855336e-08
1.054000e+03 2.083667e-12
1.055000e+03 1.449674e-08
1.056000e+03 3.067413e-08
1.057000e+03 1.545919e-08
1.058000e+03 3.876752e-10
1.059000e+03 1.290665e-10
1.060000e+03 4.656542e-11
1.061000e+03 4.115711e-08
1.062000e+03 1.808149e-10
1.063000e+03 1.000640e-11
1.064000e+03 1.403322e-12
1.065000e+03 3.606004e-12
1.066000e+03 8.625207e-10
1.067000e+03 4.670533e-10
1.068000e+03 6.763352e-08
1.069000e+03 6.947490e-11
1.070000e+03 8.666781e-09
1.071000e+03 6.943994e-08
1.072000e+03 8.648215e-08
1.073000e+03 1.197265e-11
1.074000e+03 5.400688e-08
1.075000e+03 4.462240e-08
1.076000e+03 1.466673e-08
1.077000e+03 4.181544e-11
1.078000e+03 7.076153e-10
1.079000e+03 8.274856e-09
1.080000e+03 2.715207e-08
1.081000e+03 1.328123e-07
1.082000e+03 1.116573e-07
1.083000e+03 8.292714e-08
1.084000e+03 1.235763e-07
1.085000e+03 1.416480e-08
1.086000e+03 1.842181e-07
1.087000e+03 1.431502e-09
1.088000e+03 2.036109e-07
1.089000e+03 2.117474e-07
1.090000e+03 1.461495e-08
1.091000e+03 3.708045e-08
1.092000e+03 1.106315e-07
1.093000e+03 2.176530e-07
1.094000e+03 9.564481e-08
1.095000e+03 2.956284e-07
1.096000e+03 2.842398e-09
1.097000e+03 3.096872e-07
1.098000e+03 2.319535e-07
1.099000e+03 3.631814e-08
1.100000e+03 1.748421e-10
1.101000e+03 5.472818e-10
1.102000e+03 5.605601e-08
1.103000e+03 4.382862e-07
1.104000e+03 4.672914e-07
1.105000e+03 4.887985e-07
1.106000e+03 1.819656e-07
1.107000e+03 7.094627e-10
1.108000e+03 5.470041e-07
1.109000e+03 2.544067e-08
1.110000e+03 5.387619e-07
1.111000e+03 5.525887e-07
1.112000e+03 5.628387e-07
1.113000e+03 4.377613e-07
1.114000e+03 1.914227e-07
1.115000e+03 1.360854e-08
1.116000e+03 1.862675e-09
1.117000e+03 8.663121e-07
1.118000e+03 4.834897e-08
1.119000e+03 6.378850e-07
1.120000e+03 7.181598e-09
1.121000e+03 9.976274e-07
1.122000e+03 7.769141e-07
1.123000e+03 1.837250e-06
1.124000e+03 2.566512e-06
1.125000e+03 1.928927e-06
1.126000e+03 1.615219e-06
1.127000e+03 1.535659e-06
1.128000e+03 1.264734e-06
1.129000e+03 1.031356e-06
1.130000e+03 1.181011e-06
1.131000e+03 8.596040e-07
1.132000e+03 9.856308e-09
1.133000e+03 4.045294e-07
1.134000e+03 8.991750e-07
1.135000e+03 5.591342e-07
1.136000e+03 4.021122e-07
1.137000e+03 6.213929e-07
1.138000e+03 7.776464e-07
1.139000e+03 8.231510e-07
1.140000e+03 7.819220e-07
1.141000e+03 6.721071e-07
1.142000e+03 7.860309e-07
1.143000e+03 6.027392e-07
1.144000e+03 7.244805e-07
1.145000e+03 7.011465e-09
1.146000e+03 8.105836e-07
1.147000e+03 8.178205e-07
1.148000e+03 1.544479e-07
1.149000e+03 7.946488e-07
1.150000e+03 7.807939e-07
1.151000e+03 7.750835e-07
1.152000e+03 7.402975e-07
1.153000e+03 7.368802e-07
1.154000e+03 6.991802e-07
1.155000e+03 6.981454e-07
1.156000e+03 4.341107e-07
1.157000e+03 6.641204e-07
1.158000e+03 6.444516e-07
1.159000e+03 6.697704e-07
1.160000e+03 6.505211e-07
1.161000e+03 6.067348e-07
1.162000e+03 2.925456e-07
1.163000e+03 4.708772e-07
1.164000e+03 1.892090e-09
1.165000e+03 3.152675e-07
1.166000e+03 1.510096e-07
1.167000e+03 9.437968e-08
1.168000e+03 7.080921e-07
1.169000e+03 7.204866e-07
1.170000e+03 1.030313e-07
1.171000e+03 2.856846e-07
1.172000e+03 2.258611e-07
1.173000e+03 1.873276e-07
1.174000e+03 5.478915e-08
1.175000e+03 2.557954e-09
1.176000e+03 1.078206e-09
1.177000e+03 9.852754e-07
1.178000e+03 9.190307e-07
1.179000e+03 8.679521e-07
1.180000e+03 7.987901e-07
1.181000e+03 7.710659e-07
1.182000e+03 7.456596e-07
1.183000e+03 7.076133e-07
1.184000e+03 6.792628e-07
1.185000e+03 6.537674e-07
1.186000e+03 2.413489e-07
1.187000e+03 6.106089e-07
1.188000e+03 5.911332e-07
1.189000e+03 5.820458e-07
1.190000e+03 5.654264e-07
1.191000e+03 5.334684e-07
1.192000e+03 4.770151e-07
1.193000e+03 4.773668e-07
1.194000e+03 4.590222e-07
1.195000e+03 4.386477e-07
1.196000e+03 1.619136e-05
1.197000e+03 1.452897e-05
1.198000e+03 2.864410e-06
1.199000e+03 1.121893e-05
1.200000e+03 5.901223e-06
1.201000e+03 8.014038e-06
1.202000e+03 6.414204e-06
1.203000e+03 5.307009e-06
1.204000e+03 3.435348e-06
1.205000e+03 3.142501e-06
1.206000e+03 2.297646e-06
1.207000e+03 2.044770e-07
1.208000e+03 9.571460e-07
1.209000e+03 6.784812e-07
1.210000e+03 7.510323e-09
1.211000e+03 2.274082e-07
1.212000e+03 1.148940e-07
1.213000e+03 5.220553e-08
1.214000e+03 2.022447e-08
1.215000e+03 6.720613e-09
1.216000e+03 7.082593e-09
1.217000e+03 1.538538e-08
1.218000e+03 4.799366e-08
1.219000e+03 1.211091e-07
1.220000e+03 2.687310e-07
1.221000e+03 5.265648e-07
1.222000e+03 1.003698e-06
1.223000e+03 1.687498e-06
1.224000e+03 2.564387e-06
1.225000e+03 2.363516e-06
1.226000e+03 6.195469e-06
1.227000e+03 8.946767e-06
1.228000e+03 1.188114e-05
1.229000e+03 1.669228e-05
1.230000e+03 2.542549e-06
1.231000e+03 1.548857e-05
1.232000e+03 3.350149e-05
1.233000e+03 4.123068e-05
1.234000e+03 4.237594e-05
1.235000e+03 5.830932e-05
1.236000e+03 6.083620e-05
1.237000e+03 7.765706e-05
1.238000e+03 8.837855e-05
1.239000e+03 9.487914e-05
1.240000e+03 5.689486e-06
1.241000e+03 1.045610e-04
1.242000e+03 1.342087e-04
1.243000e+03 1.470020e-04
1.244000e+03 1.612987e-04
1.245000e+03 1.572065e-04
1.246000e+03 1.817424e-04
1.247000e+03 1.913257e-04
1.248000e+03 5.546553e-05
1.249000e+03 2.116687e-04
1.250000e+03 2.113623e-04
1.251000e+03 2.539684e-04
1.252000e+03 2.348340e-04
1.253000e+03 2.706638e-04
1.254000e+03 2.626416e-04
1.255000e+03 2.034535e-05
1.256000e+03 2.358461e-04
1.257000e+03 1.418644e-04
1.258000e+03 2.329499e-04
1.259000e+03 3.072474e-04
1.260000e+03 3.186102e-04
1.261000e+03 3.764959e-06
1.262000e+03 3.304604e-04
1.263000e+03 2.068622e-04
1.264000e+03 3.055302e-04
1.265000e+03 3.422996e-04
1.266000e+03 4.275356e-04
1.267000e+03 4.729202e-04
