# wavelength_A flux
5.000000e+02 6.644110e-10
5.010000e+02 7.591625e-10
5.020000e+02 8.669464e-10
5.030000e+02 9.894948e-10
5.040000e+02 1.128753e-09
5.050000e+02 1.326901e-09
5.060000e+02 1.511764e-09
5.070000e+02 1.721467e-09
5.080000e+02 1.959221e-09
5.090000e+02 2.228736e-09
5.100000e+02 2.533882e-09
5.110000e+02 2.879326e-09
5.120000e+02 3.270164e-09
5.130000e+02 3.712146e-09
5.140000e+02 4.211713e-09
5.150000e+02 4.776020e-09
5.160000e+02 5.413350e-09
5.170000e+02 6.132278e-09
5.180000e+02 6.943862e-09
5.190000e+02 7.858580e-09
5.200000e+02 8.889431e-09
5.210000e+02 1.005055e-08
5.220000e+02 1.135630e-08
5.230000e+02 1.282886e-08
5.240000e+02 1.448351e-08
5.250000e+02 1.634391e-08
5.260000e+02 1.843433e-08
5.270000e+02 2.078226e-08
5.280000e+02 2.341823e-08
5.290000e+02 2.636861e-08
5.300000e+02 2.969392e-08
5.310000e+02 3.341349e-08
5.320000e+02 3.758190e-08
5.330000e+02 4.225080e-08
5.340000e+02 4.747812e-08
5.350000e+02 5.332797e-08
5.360000e+02 5.987105e-08
5.370000e+02 6.610640e-08
5.380000e+02 7.536393e-08
5.390000e+02 8.449851e-08
5.400000e+02 9.470206e-08
5.410000e+02 1.060798e-07
5.420000e+02 1.187913e-07
5.430000e+02 1.329582e-07
5.440000e+02 1.487507e-07
5.450000e+02 1.663477e-07
5.460000e+02 1.859117e-07
5.470000e+02 2.077686e-07
5.480000e+02 2.320521e-07
5.490000e+02 2.590673e-07
5.500000e+02 2.891058e-07
5.510000e+02 3.224948e-07
5.520000e+02 3.595906e-07
5.530000e+02 4.007904e-07
5.540000e+02 4.465290e-07
5.550000e+02 4.972860e-07
5.560000e+02 5.535899e-07
5.570000e+02 6.160220e-07
5.580000e+02 6.852213e-07
5.590000e+02 7.618932e-07
5.600000e+02 8.468108e-07
5.610000e+02 9.408247e-07
5.620000e+02 1.044869e-06
5.630000e+02 1.159969e-06
5.640000e+02 1.287253e-06
5.650000e+02 1.427952e-06
5.660000e+02 1.583436e-06
5.670000e+02 1.755172e-06
5.680000e+02 1.944811e-06
5.690000e+02 2.154125e-06
5.700000e+02 2.385076e-06
5.710000e+02 2.639819e-06
5.720000e+02 2.920685e-06
5.730000e+02 3.230249e-06
5.740000e+02 3.571318e-06
5.750000e+02 3.947045e-06
5.760000e+02 4.359841e-06
5.770000e+02 4.815831e-06
5.780000e+02 5.316643e-06
5.790000e+02 5.867445e-06
5.800000e+02 6.473017e-06
5.810000e+02 7.138551e-06
5.820000e+02 7.869758e-06
5.830000e+02 8.672732e-06
5.840000e+02 9.550949e-06
5.850000e+02 1.052146e-05
5.860000e+02 1.158416e-05
5.870000e+02 1.274890e-05
5.880000e+02 1.402592e-05
5.890000e+02 1.542525e-05
5.900000e+02 1.695925e-05
5.910000e+02 1.863907e-05
5.920000e+02 2.047863e-05
5.930000e+02 2.249221e-05
5.940000e+02 2.469564e-05
5.950000e+02 2.710462e-05
5.960000e+02 2.974196e-05
5.970000e+02 3.262370e-05
5.980000e+02 3.577312e-05
5.990000e+02 3.921400e-05
6.000000e+02 4.297212e-05
6.010000e+02 4.706279e-05
6.020000e+02 5.155428e-05
6.030000e+02 5.644135e-05
6.040000e+02 6.177271e-05
6.050000e+02 6.758641e-05
6.060000e+02 7.392422e-05
6.070000e+02 8.083161e-05
6.080000e+02 8.835731e-05
6.090000e+02 9.655393e-05
6.100000e+02 1.054790e-04
6.110000e+02 1.151947e-04
6.120000e+02 1.257671e-04
6.130000e+02 1.372689e-04
6.140000e+02 1.497780e-04
6.150000e+02 1.633786e-04
6.160000e+02 1.781618e-04
6.170000e+02 1.942256e-04
6.180000e+02 2.116761e-04
6.190000e+02 2.306274e-04
6.200000e+02 2.512029e-04
6.210000e+02 2.735349e-04
6.220000e+02 2.977675e-04
6.230000e+02 3.240546e-04
6.240000e+02 3.525625e-04
6.250000e+02 3.834700e-04
6.260000e+02 4.169701e-04
6.270000e+02 4.532701e-04
6.280000e+02 4.925935e-04
6.290000e+02 5.351792e-04
6.300000e+02 5.812878e-04
6.310000e+02 6.311857e-04
6.320000e+02 6.852022e-04
6.330000e+02 7.436266e-04
6.340000e+02 8.068169e-04
6.350000e+02 8.751402e-04
6.360000e+02 9.472391e-04
6.370000e+02 1.028811e-03
6.380000e+02 1.115043e-03
6.390000e+02 1.208185e-03
6.400000e+02 1.308763e-03
6.410000e+02 1.417344e-03
6.420000e+02 1.534534e-03
6.430000e+02 1.660985e-03
6.440000e+02 1.797389e-03
6.450000e+02 1.944500e-03
6.460000e+02 2.103117e-03
6.470000e+02 2.274093e-03
6.480000e+02 2.458351e-03
6.490000e+02 2.656868e-03
6.500000e+02 2.870686e-03
6.510000e+02 3.100951e-03
6.520000e+02 3.348858e-03
6.530000e+02 3.615691e-03
6.540000e+02 3.902826e-03
6.550000e+02 4.211733e-03
6.560000e+02 4.543984e-03
6.570000e+02 4.901128e-03
6.580000e+02 5.285349e-03
6.590000e+02 5.698172e-03
6.600000e+02 6.141736e-03
6.610000e+02 6.618332e-03
6.620000e+02 7.130180e-03
6.630000e+02 7.679806e-03
6.640000e+02 8.269861e-03
6.650000e+02 8.903136e-03
6.660000e+02 9.582751e-03
6.670000e+02 1.031182e-02
6.680000e+02 1.109381e-02
6.690000e+02 1.193236e-02
6.700000e+02 1.283133e-02
6.710000e+02 1.379494e-02
6.720000e+02 1.482745e-02
6.730000e+02 1.593387e-02
6.740000e+02 1.711890e-02
6.750000e+02 1.838797e-02
6.760000e+02 1.974672e-02
6.770000e+02 2.120119e-02
6.780000e+02 2.275779e-02
6.790000e+02 2.442331e-02
6.800000e+02 2.620501e-02
6.810000e+02 2.811059e-02
6.820000e+02 3.014821e-02
6.830000e+02 3.232658e-02
6.840000e+02 3.465492e-02
6.850000e+02 3.714266e-02
6.860000e+02 3.980125e-02
6.870000e+02 4.264039e-02
6.880000e+02 4.567318e-02
6.890000e+02 4.891109e-02
6.900000e+02 5.236759e-02
6.910000e+02 5.605678e-02
6.920000e+02 5.999342e-02
6.930000e+02 6.419330e-02
6.940000e+02 6.867312e-02
6.950000e+02 7.345057e-02
6.960000e+02 7.854442e-02
6.970000e+02 8.397310e-02
6.980000e+02 8.976198e-02
6.990000e+02 9.592906e-02
7.000000e+02 1.024994e-01
7.010000e+02 1.094979e-01
7.020000e+02 1.169512e-01
7.030000e+02 1.248871e-01
7.040000e+02 1.333354e-01
7.050000e+02 1.423274e-01
7.060000e+02 1.518956e-01
7.070000e+02 1.620767e-01
7.080000e+02 1.729061e-01
7.090000e+02 1.844225e-01
7.100000e+02 1.966717e-01
7.110000e+02 2.096928e-01
7.120000e+02 2.235335e-01
7.130000e+02 2.382426e-01
7.140000e+02 2.538722e-01
7.150000e+02 2.704762e-01
7.160000e+02 2.881124e-01
7.170000e+02 3.068405e-01
7.180000e+02 3.267234e-01
7.190000e+02 3.478405e-01
7.200000e+02 3.702485e-01
7.210000e+02 3.940282e-01
7.220000e+02 4.192589e-01
7.230000e+02 4.460246e-01
7.240000e+02 4.744124e-01
7.250000e+02 5.045174e-01
7.260000e+02 5.364349e-01
7.270000e+02 5.702754e-01
7.280000e+02 6.061403e-01
7.290000e+02 6.441472e-01
7.300000e+02 6.844170e-01
7.310000e+02 7.270771e-01
7.320000e+02 7.722617e-01
7.330000e+02 8.201118e-01
7.340000e+02 8.707766e-01
7.350000e+02 9.244122e-01
7.360000e+02 9.811820e-01
7.370000e+02 1.041263e+00
7.380000e+02 1.104834e+00
7.390000e+02 1.172088e+00
7.400000e+02 1.243215e+00
7.410000e+02 1.318457e+00
7.420000e+02 1.398000e+00
7.430000e+02 1.482117e+00
7.440000e+02 1.571024e+00
7.450000e+02 1.664988e+00
7.460000e+02 1.764278e+00
7.470000e+02 1.869188e+00
7.480000e+02 1.980013e+00
7.490000e+02 2.097069e+00
7.500000e+02 2.220685e+00
7.510000e+02 2.351209e+00
7.520000e+02 2.489006e+00
7.530000e+02 2.634458e+00
7.540000e+02 2.787965e+00
7.550000e+02 2.949949e+00
7.560000e+02 3.120849e+00
7.570000e+02 3.300991e+00
7.580000e+02 3.491286e+00
7.590000e+02 3.691795e+00
7.600000e+02 3.903255e+00
7.610000e+02 4.126175e+00
7.620000e+02 4.361142e+00
7.630000e+02 4.608787e+00
7.640000e+02 4.869749e+00
7.650000e+02 5.144698e+00
7.660000e+02 5.434361e+00
7.670000e+02 5.739458e+00
7.680000e+02 6.060730e+00
7.690000e+02 6.399118e+00
7.700000e+02 6.755343e+00
7.710000e+02 7.130336e+00
7.720000e+02 7.525033e+00
7.730000e+02 7.940383e+00
7.740000e+02 8.377450e+00
7.750000e+02 8.837282e+00
7.760000e+02 9.319204e+00
7.770000e+02 9.829757e+00
7.780000e+02 1.036479e+01
7.790000e+02 1.092737e+01
7.800000e+02 1.151883e+01
7.810000e+02 1.214058e+01
7.820000e+02 1.279405e+01
7.830000e+02 1.348078e+01
7.840000e+02 1.420239e+01
7.850000e+02 1.496051e+01
7.860000e+02 1.575684e+01
7.870000e+02 1.659340e+01
7.880000e+02 1.747182e+01
7.890000e+02 1.839420e+01
7.900000e+02 1.936260e+01
7.910000e+02 2.037918e+01
7.920000e+02 2.144620e+01
7.930000e+02 2.256601e+01
7.940000e+02 2.374105e+01
7.950000e+02 2.497391e+01
7.960000e+02 2.626724e+01
7.970000e+02 2.762384e+01
7.980000e+02 2.904662e+01
7.990000e+02 3.053851e+01
8.000000e+02 3.210287e+01
8.010000e+02 3.374274e+01
8.020000e+02 3.546202e+01
8.030000e+02 3.726385e+01
8.040000e+02 3.915211e+01
8.050000e+02 4.113068e+01
8.060000e+02 4.320365e+01
8.070000e+02 4.537520e+01
8.080000e+02 4.764975e+01
8.090000e+02 5.003193e+01
8.100000e+02 5.252634e+01
8.110000e+02 5.513824e+01
8.120000e+02 5.787265e+01
8.130000e+02 6.073504e+01
8.140000e+02 6.373095e+01
8.150000e+02 6.686597e+01
8.160000e+02 7.014686e+01
8.170000e+02 7.357928e+01
8.180000e+02 7.717040e+01
8.190000e+02 8.092667e+01
8.200000e+02 8.485526e+01
8.210000e+02 8.896366e+01
8.220000e+02 9.325957e+01
8.230000e+02 9.775101e+01
8.240000e+02 1.024461e+02
8.250000e+02 1.073540e+02
8.260000e+02 1.124834e+02
8.270000e+02 1.178438e+02
8.280000e+02 1.234449e+02
8.290000e+02 1.292968e+02
8.300000e+02 1.354101e+02
8.310000e+02 1.417956e+02
8.320000e+02 1.484648e+02
8.330000e+02 1.554294e+02
8.340000e+02 1.627017e+02
8.350000e+02 1.702757e+02
8.360000e+02 1.782197e+02
8.370000e+02 1.864944e+02
8.380000e+02 1.951245e+02
8.390000e+02 2.041415e+02
8.400000e+02 2.135450e+02
8.410000e+02 2.233561e+02
8.420000e+02 2.335863e+02
8.430000e+02 2.442684e+02
8.440000e+02 2.554044e+02
8.450000e+02 2.670181e+02
8.460000e+02 2.791287e+02
8.470000e+02 2.917552e+02
8.480000e+02 3.049198e+02
8.490000e+02 3.186432e+02
8.500000e+02 3.329475e+02
8.510000e+02 3.478557e+02
8.520000e+02 3.633906e+02
8.530000e+02 3.795798e+02
8.540000e+02 3.964477e+02
8.550000e+02 4.140187e+02
8.560000e+02 4.323218e+02
8.570000e+02 4.513856e+02
8.580000e+02 4.712393e+02
8.590000e+02 4.919141e+02
8.600000e+02 5.134410e+02
8.610000e+02 5.358532e+02
8.620000e+02 5.591846e+02
8.630000e+02 5.834690e+02
8.640000e+02 6.087471e+02
8.650000e+02 6.350493e+02
8.660000e+02 6.624254e+02
8.670000e+02 6.909066e+02
8.680000e+02 7.205377e+02
8.690000e+02 7.513621e+02
8.700000e+02 7.834222e+02
8.710000e+02 8.167692e+02
8.720000e+02 8.514490e+02
8.730000e+02 8.875110e+02
8.740000e+02 9.250066e+02
8.750000e+02 9.639890e+02
8.760000e+02 1.004513e+03
8.770000e+02 1.046631e+03
8.780000e+02 1.090416e+03
8.790000e+02 1.135915e+03
8.800000e+02 1.183195e+03
8.810000e+02 1.232320e+03
8.820000e+02 1.283359e+03
8.830000e+02 1.336381e+03
8.840000e+02 1.391457e+03
8.850000e+02 1.448661e+03
8.860000e+02 1.508071e+03
8.870000e+02 1.569765e+03
8.880000e+02 1.633826e+03
8.890000e+02 1.700338e+03
8.900000e+02 1.769387e+03
8.910000e+02 1.841058e+03
8.920000e+02 1.912272e+03
8.930000e+02 1.992673e+03
8.940000e+02 2.072800e+03
8.950000e+02 2.155950e+03
8.960000e+02 2.242229e+03
8.970000e+02 2.331736e+03
8.980000e+02 2.424595e+03
8.990000e+02 2.520918e+03
9.000000e+02 2.620825e+03
9.010000e+02 2.724440e+03
9.020000e+02 2.831892e+03
9.030000e+02 2.943309e+03
9.040000e+02 3.058783e+03
9.050000e+02 3.178587e+03
9.060000e+02 3.302761e+03
9.070000e+02 3.431361e+03
9.080000e+02 3.564850e+03
9.090000e+02 3.703094e+03
9.100000e+02 3.846354e+03
9.110000e+02 3.994824e+03
9.120000e+02 4.148773e+03
9.130000e+02 4.216641e+03
9.140000e+02 4.578547e+03
9.150000e+02 2.330221e+04
9.160000e+02 6.816267e+04
9.170000e+02 7.077202e+04
9.180000e+02 7.188927e+04
9.190000e+02 7.606217e+04
9.200000e+02 7.858923e+04
9.210000e+02 5.538332e+03
9.220000e+02 8.343959e+04
9.230000e+02 8.427589e+04
9.240000e+02 8.269589e+04
9.250000e+02 9.016571e+04
9.260000e+02 9.335414e+04
9.270000e+02 9.700559e+04
9.280000e+02 1.001412e+05
9.290000e+02 9.293769e+04
9.300000e+02 1.048673e+05
9.310000e+02 1.081276e+05
9.320000e+02 1.128875e+05
9.330000e+02 1.159483e+05
9.340000e+02 1.196333e+05
9.350000e+02 3.616663e+04
9.360000e+02 1.265994e+05
9.370000e+02 2.546326e+04
9.380000e+02 4.769993e+04
9.390000e+02 1.387088e+05
9.400000e+02 1.429068e+05
9.410000e+02 6.296186e+04
9.420000e+02 1.515590e+05
9.430000e+02 1.556012e+05
9.440000e+02 1.119174e+05
9.450000e+02 1.652618e+05
9.460000e+02 1.701192e+05
9.470000e+02 9.702237e+04
9.480000e+02 1.413074e+05
9.490000e+02 1.837078e+05
9.500000e+02 3.487803e+04
9.510000e+02 1.913073e+05
9.520000e+02 2.021185e+05
9.530000e+02 2.055018e+05
9.540000e+02 1.733785e+05
9.550000e+02 2.203369e+05
9.560000e+02 1.507953e+05
9.570000e+02 1.747685e+05
9.580000e+02 2.378095e+05
9.590000e+02 2.477782e+05
9.600000e+02 5.455258e+04
9.610000e+02 2.600872e+05
9.620000e+02 2.693677e+05
9.630000e+02 2.773675e+05
9.640000e+02 2.823550e+04
9.650000e+02 2.679526e+05
9.660000e+02 3.014858e+05
9.670000e+02 3.067813e+05
9.680000e+02 3.167348e+05
9.690000e+02 3.254570e+05
9.700000e+02 3.356314e+05
9.710000e+02 3.421412e+05
9.720000e+02 3.244484e+05
9.730000e+02 3.248685e+05
9.740000e+02 3.693992e+05
9.750000e+02 3.848871e+05
9.760000e+02 3.963327e+05
9.770000e+02 4.079064e+05
9.780000e+02 4.181102e+05
9.790000e+02 4.310227e+05
9.800000e+02 4.427080e+05
9.810000e+02 4.550054e+05
9.820000e+02 4.660415e+05
9.830000e+02 4.800519e+05
9.840000e+02 2.135587e+05
9.850000e+02 5.064300e+05
9.860000e+02 5.200367e+05
9.870000e+02 5.341944e+05
9.880000e+02 5.455829e+05
9.890000e+02 4.686498e+05
9.900000e+02 8.091988e+04
9.910000e+02 5.887029e+05
9.920000e+02 5.155897e+05
9.930000e+02 5.859853e+05
9.940000e+02 1.058386e+05
9.950000e+02 1.953755e+05
9.960000e+02 3.200239e+05
9.970000e+02 1.457434e+05
9.980000e+02 7.119842e+05
9.990000e+02 7.159568e+05
1.000000e+03 7.516512e+05
1.001000e+03 7.714413e+05
1.002000e+03 7.913463e+05
1.003000e+03 7.743980e+05
1.004000e+03 8.312429e+05
1.005000e+03 7.937643e+05
1.006000e+03 8.770228e+05
1.007000e+03 8.927166e+05
1.008000e+03 9.204754e+05
1.009000e+03 9.311508e+05
1.010000e+03 9.706138e+05
1.011000e+03 9.953614e+05
1.012000e+03 1.020616e+06
1.013000e+03 1.046510e+06
1.014000e+03 1.057605e+06
1.015000e+03 1.086327e+06
1.016000e+03 1.125206e+06
1.017000e+03 1.141390e+06
1.018000e+03 1.182053e+06
1.019000e+03 1.207109e+06
1.020000e+03 1.239476e+06
1.021000e+03 7.387243e+05
1.022000e+03 1.204617e+06
1.023000e+03 1.297970e+06
1.024000e+03 1.157527e+06
1.025000e+03 9.643744e+05
1.026000e+03 4.493442e+05
1.027000e+03 1.234776e+06
1.028000e+03 4.278908e+05
1.029000e+03 1.509299e+06
1.030000e+03 1.552305e+06
1.031000e+03 1.621990e+06
1.032000e+03 1.654459e+06
1.033000e+03 8.984022e+05
1.034000e+03 1.755487e+06
1.035000e+03 4.109902e+05
1.036000e+03 1.695116e+06
1.037000e+03 2.872039e+05
1.038000e+03 1.937513e+06
1.039000e+03 1.966944e+06
1.040000e+03 2.033652e+06
1.041000e+03 2.058791e+06
1.042000e+03 2.121590e+06
1.043000e+03 2.126410e+06
1.044000e+03 2.234652e+06
1.045000e+03 2.287873e+06
1.046000e+03 2.348250e+06
1.047000e+03 2.402716e+06
1.048000e+03 2.449499e+06
1.049000e+03 2.398226e+06
1.050000e+03 2.579781e+06
1.051000e+03 2.641097e+06
1.052000e+03 2.705030e+06
1.053000e+03 2.749442e+06
1.054000e+03 2.780132e+06
1.055000e+03 2.781260e+06
1.056000e+03 2.969565e+06
1.057000e+03 3.038185e+06
1.058000e+03 3.107814e+06
1.059000e+03 3.177932e+06
1.060000e+03 3.249242e+06
1.061000e+03 3.332580e+06
1.062000e+03 3.408871e+06
1.063000e+03 1.195821e+06
1.064000e+03 7.714895e+05
1.065000e+03 3.632216e+06
1.066000e+03 2.673436e+06
1.067000e+03 3.771841e+06
1.068000e+03 3.926801e+06
1.069000e+03 3.872866e+06
1.070000e+03 4.081164e+06
1.071000e+03 4.204041e+06
1.072000e+03 4.299476e+06
1.073000e+03 4.367430e+06
1.074000e+03 4.495752e+06
1.075000e+03 4.596418e+06
1.076000e+03 4.702215e+06
1.077000e+03 4.798544e+06
1.078000e+03 4.913852e+06
1.079000e+03 5.015328e+06
1.080000e+03 5.137938e+06
1.081000e+03 5.253632e+06
1.082000e+03 5.368335e+06
1.083000e+03 5.483100e+06
1.084000e+03 5.594376e+06
1.085000e+03 3.917702e+06
1.086000e+03 5.863878e+06
1.087000e+03 5.982832e+06
1.088000e+03 6.105706e+06
1.089000e+03 6.258178e+06
1.090000e+03 6.387942e+06
1.091000e+03 6.502842e+06
1.092000e+03 6.676704e+06
1.093000e+03 6.817098e+06
1.094000e+03 6.970366e+06
1.095000e+03 7.118533e+06
1.096000e+03 7.273982e+06
1.097000e+03 7.114712e+06
1.098000e+03 7.416628e+06
1.099000e+03 7.749266e+06
1.100000e+03 7.275766e+06
1.101000e+03 7.374224e+06
1.102000e+03 1.652585e+07
1.103000e+03 5.215674e+07
1.104000e+03 2.254128e+07
1.105000e+03 8.020768e+06
1.106000e+03 1.415769e+08
1.107000e+03 1.147738e+08
1.108000e+03 1.398737e+08
1.109000e+03 7.273266e+07
1.110000e+03 3.380517e+07
1.111000e+03 1.925222e+07
1.112000e+03 1.198003e+08
1.113000e+03 1.605844e+08
1.114000e+03 6.444624e+06
1.115000e+03 1.543985e+08
1.116000e+03 1.600716e+08
1.117000e+03 7.718544e+06
1.118000e+03 9.589130e+07
1.119000e+03 1.748045e+08
1.120000e+03 1.720860e+08
1.121000e+03 1.635346e+08
1.122000e+03 2.656192e+06
1.123000e+03 1.306000e+07
1.124000e+03 1.890432e+08
1.125000e+03 9.192156e+07
1.126000e+03 1.961154e+08
1.127000e+03 1.906406e+08
1.128000e+03 1.013187e+08
1.129000e+03 1.982465e+08
1.130000e+03 1.493530e+08
1.131000e+03 2.128925e+08
1.132000e+03 7.637920e+06
1.133000e+03 1.634193e+08
1.134000e+03 1.980014e+08
1.135000e+03 4.125232e+06
1.136000e+03 2.250197e+08
1.137000e+03 2.336655e+08
1.138000e+03 2.365626e+08
1.139000e+03 2.345703e+08
1.140000e+03 5.055712e+06
1.141000e+03 2.492422e+08
1.142000e+03 2.488228e+08
1.143000e+03 2.563757e+08
1.144000e+03 2.612802e+08
1.145000e+03 2.015340e+08
1.146000e+03 2.691412e+08
1.147000e+03 2.689742e+08
1.148000e+03 2.663154e+08
1.149000e+03 2.816986e+08
1.150000e+03 2.816268e+08
1.151000e+03 2.887171e+08
1.152000e+03 2.944614e+08
1.153000e+03 8.209163e+07
1.154000e+03 1.592720e+07
1.155000e+03 1.801831e+08
1.156000e+03 4.576382e+07
1.157000e+03 3.167614e+08
1.158000e+03 7.387816e+06
1.159000e+03 2.337588e+08
1.160000e+03 3.195647e+08
1.161000e+03 3.393776e+08
1.162000e+03 7.793946e+07
1.163000e+03 3.439847e+08
1.164000e+03 1.285402e+07
1.165000e+03 3.604696e+08
1.166000e+03 3.638455e+08
1.167000e+03 3.657713e+08
1.168000e+03 3.791976e+08
1.169000e+03 3.697001e+08
1.170000e+03 3.916253e+08
1.171000e+03 3.983136e+08
1.172000e+03 3.991809e+08
1.173000e+03 4.104778e+08
1.174000e+03 3.953466e+08
1.175000e+03 1.504291e+07
1.176000e+03 1.197558e+07
1.177000e+03 4.363165e+08
1.178000e+03 4.219359e+08
1.179000e+03 4.501687e+08
1.180000e+03 3.693191e+08
1.181000e+03 4.607357e+08
1.182000e+03 4.703078e+08
1.183000e+03 4.761145e+08
1.184000e+03 4.819170e+08
1.185000e+03 4.791107e+08
1.186000e+03 4.892453e+08
1.187000e+03 4.986115e+08
1.188000e+03 4.982121e+08
1.189000e+03 1.398886e+07
1.190000e+03 4.594406e+07
1.191000e+03 5.044724e+08
1.192000e+03 5.077916e+08
1.193000e+03 1.274598e+07
1.194000e+03 1.627811e+07
1.195000e+03 3.862398e+08
1.196000e+03 5.137441e+08
1.197000e+03 6.651457e+08
1.198000e+03 6.644979e+08
1.199000e+03 6.486422e+08
1.200000e+03 5.763268e+08
1.201000e+03 6.035922e+08
1.202000e+03 5.937503e+08
1.203000e+03 6.648878e+08
1.204000e+03 6.005985e+08
1.205000e+03 5.570157e+08
1.206000e+03 4.971790e+08
1.207000e+03 1.114535e+08
1.208000e+03 3.738424e+08
1.209000e+03 2.840542e+08
1.210000e+03 2.569515e+07
1.211000e+03 1.652702e+08
1.212000e+03 1.033414e+08
1.213000e+03 6.584238e+07
1.214000e+03 3.789944e+07
1.215000e+03 2.353688e+07
1.216000e+03 2.120940e+07
1.217000e+03 3.332712e+07
1.218000e+03 5.963712e+07
1.219000e+03 1.047744e+08
1.220000e+03 1.692255e+08
1.221000e+03 2.506514e+08
1.222000e+03 3.448828e+08
1.223000e+03 4.483391e+08
1.224000e+03 5.589625e+08
1.225000e+03 6.682212e+08
1.226000e+03 7.869921e+08
1.227000e+03 8.949656e+08
1.228000e+03 1.020889e+09
1.229000e+03 1.138256e+09
1.230000e+03 1.243754e+09
1.231000e+03 1.358359e+09
1.232000e+03 1.479307e+09
1.233000e+03 1.587871e+09
1.234000e+03 1.021823e+09
1.235000e+03 1.792560e+09
1.236000e+03 1.872524e+09
1.237000e+03 1.988982e+09
1.238000e+03 2.081560e+09
1.239000e+03 2.172408e+09
1.240000e+03 2.060963e+09
1.241000e+03 3.714441e+09
1.242000e+03 2.059625e+09
1.243000e+03 2.977278e+09
1.244000e+03 1.275807e+09
1.245000e+03 1.902903e+09
1.246000e+03 5.952510e+09
1.247000e+03 6.005355e+09
1.248000e+03 1.389621e+09
1.249000e+03 1.707252e+09
1.250000e+03 7.378640e+09
1.251000e+03 7.685352e+09
1.252000e+03 7.877012e+09
1.253000e+03 8.469548e+09
1.254000e+03 8.626056e+09
1.255000e+03 9.043562e+09
1.256000e+03 9.196743e+09
1.257000e+03 9.739589e+09
1.258000e+03 9.549605e+09
1.259000e+03 9.597956e+09
1.260000e+03 7.374133e+09
1.261000e+03 5.147056e+07
1.262000e+03 8.472663e+08
1.263000e+03 1.090480e+10
1.264000e+03 9.380277e+09
1.265000e+03 5.146048e+07
1.266000e+03 1.169241e+10
1.267000e+03 1.241355e+10
