# wavelength_A flux
5.000000e+02 5.459457e-14
5.010000e+02 6.354352e-14
5.020000e+02 7.391321e-14
5.030000e+02 8.592193e-14
5.040000e+02 9.982033e-14
5.050000e+02 1.227505e-13
5.060000e+02 1.423847e-13
5.070000e+02 1.650602e-13
5.080000e+02 1.912325e-13
5.090000e+02 2.214432e-13
5.100000e+02 2.562516e-13
5.110000e+02 2.963576e-13
5.120000e+02 3.425404e-13
5.130000e+02 3.956905e-13
5.140000e+02 4.568239e-13
5.150000e+02 5.270916e-13
5.160000e+02 6.078398e-13
5.170000e+02 7.004676e-13
5.180000e+02 8.069462e-13
5.190000e+02 9.289797e-13
5.200000e+02 1.068872e-12
5.210000e+02 1.229144e-12
5.220000e+02 1.412318e-12
5.230000e+02 1.622711e-12
5.240000e+02 1.862976e-12
5.250000e+02 2.137698e-12
5.260000e+02 2.451569e-12
5.270000e+02 2.810020e-12
5.280000e+02 3.219165e-12
5.290000e+02 3.683470e-12
5.300000e+02 4.218165e-12
5.310000e+02 4.824724e-12
5.320000e+02 5.515681e-12
5.330000e+02 6.302275e-12
5.340000e+02 7.197341e-12
5.350000e+02 8.215305e-12
5.360000e+02 9.372340e-12
5.370000e+02 1.038197e-11
5.380000e+02 1.217965e-11
5.390000e+02 1.387526e-11
5.400000e+02 1.579809e-11
5.410000e+02 1.797546e-11
5.420000e+02 2.044900e-11
5.430000e+02 2.324918e-11
5.440000e+02 2.641910e-11
5.450000e+02 3.000672e-11
5.460000e+02 3.405165e-11
5.470000e+02 3.865397e-11
5.480000e+02 4.384008e-11
5.490000e+02 4.969852e-11
5.500000e+02 5.631337e-11
5.510000e+02 6.377882e-11
5.520000e+02 7.220034e-11
5.530000e+02 8.169617e-11
5.540000e+02 9.239831e-11
5.550000e+02 1.044546e-10
5.560000e+02 1.180304e-10
5.570000e+02 1.333102e-10
5.580000e+02 1.505003e-10
5.590000e+02 1.698310e-10
5.600000e+02 1.915593e-10
5.610000e+02 2.159719e-10
5.620000e+02 2.433884e-10
5.630000e+02 2.741652e-10
5.640000e+02 3.086989e-10
5.650000e+02 3.474321e-10
5.660000e+02 3.908569e-10
5.670000e+02 4.395206e-10
5.680000e+02 4.940324e-10
5.690000e+02 5.550695e-10
5.700000e+02 6.233843e-10
5.710000e+02 6.998138e-10
5.720000e+02 7.852854e-10
5.730000e+02 8.808302e-10
5.740000e+02 9.875915e-10
5.750000e+02 1.106879e-09
5.760000e+02 1.239875e-09
5.770000e+02 1.388613e-09
5.780000e+02 1.554382e-09
5.790000e+02 1.739240e-09
5.800000e+02 1.945301e-09
5.810000e+02 2.174906e-09
5.820000e+02 2.430637e-09
5.830000e+02 2.715305e-09
5.840000e+02 3.030168e-09
5.850000e+02 3.384339e-09
5.860000e+02 3.776969e-09
5.870000e+02 4.212957e-09
5.880000e+02 4.697410e-09
5.890000e+02 5.235519e-09
5.900000e+02 5.833090e-09
5.910000e+02 6.496439e-09
5.920000e+02 7.232462e-09
5.930000e+02 8.048855e-09
5.940000e+02 8.954065e-09
5.950000e+02 9.956515e-09
5.960000e+02 1.106905e-08
5.970000e+02 1.230032e-08
5.980000e+02 1.366355e-08
5.990000e+02 1.517236e-08
6.000000e+02 1.684170e-08
6.010000e+02 1.868799e-08
6.020000e+02 2.072926e-08
6.030000e+02 2.298532e-08
6.040000e+02 2.547788e-08
6.050000e+02 2.823082e-08
6.060000e+02 3.127007e-08
6.070000e+02 3.462480e-08
6.080000e+02 3.832595e-08
6.090000e+02 4.240807e-08
6.100000e+02 4.690884e-08
6.110000e+02 5.186953e-08
6.120000e+02 5.733534e-08
6.130000e+02 6.335566e-08
6.140000e+02 6.998453e-08
6.150000e+02 7.728109e-08
6.160000e+02 8.530989e-08
6.170000e+02 9.414158e-08
6.180000e+02 1.038533e-07
6.190000e+02 1.145291e-07
6.200000e+02 1.262612e-07
6.210000e+02 1.391497e-07
6.220000e+02 1.533042e-07
6.230000e+02 1.688440e-07
6.240000e+02 1.858995e-07
6.250000e+02 2.046123e-07
6.260000e+02 2.251373e-07
6.270000e+02 2.476429e-07
6.280000e+02 2.723127e-07
6.290000e+02 2.993459e-07
6.300000e+02 3.289610e-07
6.310000e+02 3.613831e-07
6.320000e+02 3.969010e-07
6.330000e+02 4.357632e-07
6.340000e+02 4.782846e-07
6.350000e+02 5.247944e-07
6.360000e+02 5.742725e-07
6.370000e+02 6.312525e-07
6.380000e+02 6.920127e-07
6.390000e+02 7.583945e-07
6.400000e+02 8.308973e-07
6.410000e+02 9.100622e-07
6.420000e+02 9.964770e-07
6.430000e+02 1.090778e-06
6.440000e+02 1.193654e-06
6.450000e+02 1.305853e-06
6.460000e+02 1.428189e-06
6.470000e+02 1.561533e-06
6.480000e+02 1.706840e-06
6.490000e+02 1.865141e-06
6.500000e+02 2.037543e-06
6.510000e+02 2.225253e-06
6.520000e+02 2.429572e-06
6.530000e+02 2.651911e-06
6.540000e+02 2.893792e-06
6.550000e+02 3.156861e-06
6.560000e+02 3.442896e-06
6.570000e+02 3.753748e-06
6.580000e+02 4.091701e-06
6.590000e+02 4.458785e-06
6.600000e+02 4.857488e-06
6.610000e+02 5.290416e-06
6.620000e+02 5.760383e-06
6.630000e+02 6.270425e-06
6.640000e+02 6.823820e-06
6.650000e+02 7.424082e-06
6.660000e+02 8.075031e-06
6.670000e+02 8.780751e-06
6.680000e+02 9.545655e-06
6.690000e+02 1.037450e-05
6.700000e+02 1.127239e-05
6.710000e+02 1.224486e-05
6.720000e+02 1.329775e-05
6.730000e+02 1.443761e-05
6.740000e+02 1.567114e-05
6.750000e+02 1.700576e-05
6.760000e+02 1.844939e-05
6.770000e+02 2.001056e-05
6.780000e+02 2.169843e-05
6.790000e+02 2.352282e-05
6.800000e+02 2.549431e-05
6.810000e+02 2.762424e-05
6.820000e+02 2.992478e-05
6.830000e+02 3.240900e-05
6.840000e+02 3.509093e-05
6.850000e+02 3.798562e-05
6.860000e+02 4.110920e-05
6.870000e+02 4.447827e-05
6.880000e+02 4.811348e-05
6.890000e+02 5.203220e-05
6.900000e+02 5.625770e-05
6.910000e+02 6.081158e-05
6.920000e+02 6.571865e-05
6.930000e+02 7.100510e-05
6.940000e+02 7.669900e-05
6.950000e+02 8.283011e-05
6.960000e+02 8.943119e-05
6.970000e+02 9.653143e-05
6.980000e+02 1.041813e-04
6.990000e+02 1.124067e-04
7.000000e+02 1.212539e-04
7.010000e+02 1.307681e-04
7.020000e+02 1.409972e-04
7.030000e+02 1.519924e-04
7.040000e+02 1.638086e-04
7.050000e+02 1.765044e-04
7.060000e+02 1.901422e-04
7.070000e+02 2.047888e-04
7.080000e+02 2.205154e-04
7.090000e+02 2.373980e-04
7.100000e+02 2.555177e-04
7.110000e+02 2.749610e-04
7.120000e+02 2.958203e-04
7.130000e+02 3.181939e-04
7.140000e+02 3.421869e-04
7.150000e+02 3.679108e-04
7.160000e+02 3.954850e-04
7.170000e+02 4.250349e-04
7.180000e+02 4.566888e-04
7.190000e+02 4.906207e-04
7.200000e+02 5.269510e-04
7.210000e+02 5.658546e-04
7.220000e+02 6.075045e-04
7.230000e+02 6.520870e-04
7.240000e+02 6.997982e-04
7.250000e+02 7.508476e-04
7.260000e+02 8.054577e-04
7.270000e+02 8.638654e-04
7.280000e+02 9.263224e-04
7.290000e+02 9.930964e-04
7.300000e+02 1.064468e-03
7.310000e+02 1.140750e-03
7.320000e+02 1.222254e-03
7.330000e+02 1.309322e-03
7.340000e+02 1.402318e-03
7.350000e+02 1.501627e-03
7.360000e+02 1.607651e-03
7.370000e+02 1.720838e-03
7.380000e+02 1.841633e-03
7.390000e+02 1.970530e-03
7.400000e+02 2.108044e-03
7.410000e+02 2.254727e-03
7.420000e+02 2.411158e-03
7.430000e+02 2.577957e-03
7.440000e+02 2.755775e-03
7.450000e+02 2.945308e-03
7.460000e+02 3.147288e-03
7.470000e+02 3.362496e-03
7.480000e+02 3.591754e-03
7.490000e+02 3.835937e-03
7.500000e+02 4.095967e-03
7.510000e+02 4.372826e-03
7.520000e+02 4.667549e-03
7.530000e+02 4.981233e-03
7.540000e+02 5.315037e-03
7.550000e+02 5.670191e-03
7.560000e+02 6.047993e-03
7.570000e+02 6.449810e-03
7.580000e+02 6.877114e-03
7.590000e+02 7.331403e-03
7.600000e+02 7.814371e-03
7.610000e+02 8.327681e-03
7.620000e+02 8.873144e-03
7.630000e+02 9.452687e-03
7.640000e+02 1.006833e-02
7.650000e+02 1.072222e-02
7.660000e+02 1.141662e-02
7.670000e+02 1.215390e-02
7.680000e+02 1.293649e-02
7.690000e+02 1.376734e-02
7.700000e+02 1.464896e-02
7.710000e+02 1.558440e-02
7.720000e+02 1.657679e-02
7.730000e+02 1.762942e-02
7.740000e+02 1.874576e-02
7.750000e+02 1.992948e-02
7.760000e+02 2.118415e-02
7.770000e+02 2.251473e-02
7.780000e+02 2.392463e-02
7.790000e+02 2.541865e-02
7.800000e+02 2.700158e-02
7.810000e+02 2.867843e-02
7.820000e+02 3.045449e-02
7.830000e+02 3.233533e-02
7.840000e+02 3.432683e-02
7.850000e+02 3.643516e-02
7.860000e+02 3.866683e-02
7.870000e+02 4.102892e-02
7.880000e+02 4.352819e-02
7.890000e+02 4.617244e-02
7.900000e+02 4.896943e-02
7.910000e+02 5.192818e-02
7.920000e+02 5.505693e-02
7.930000e+02 5.836514e-02
7.940000e+02 6.186259e-02
7.950000e+02 6.555954e-02
7.960000e+02 6.946679e-02
7.970000e+02 7.359567e-02
7.980000e+02 7.795800e-02
7.990000e+02 8.256666e-02
8.000000e+02 8.743444e-02
8.010000e+02 9.257530e-02
8.020000e+02 9.800377e-02
8.030000e+02 1.037350e-01
8.040000e+02 1.097853e-01
8.050000e+02 1.161711e-01
8.060000e+02 1.229102e-01
8.070000e+02 1.300213e-01
8.080000e+02 1.375236e-01
8.090000e+02 1.454376e-01
8.100000e+02 1.537847e-01
8.110000e+02 1.625873e-01
8.120000e+02 1.718686e-01
8.130000e+02 1.816546e-01
8.140000e+02 1.919699e-01
8.150000e+02 2.028417e-01
8.160000e+02 2.142994e-01
8.170000e+02 2.263715e-01
8.180000e+02 2.390906e-01
8.190000e+02 2.524890e-01
8.200000e+02 2.666006e-01
8.210000e+02 2.814616e-01
8.220000e+02 2.971098e-01
8.230000e+02 3.135847e-01
8.240000e+02 3.309276e-01
8.250000e+02 3.491816e-01
8.260000e+02 3.683921e-01
8.270000e+02 3.886065e-01
8.280000e+02 4.098745e-01
8.290000e+02 4.322479e-01
8.300000e+02 4.557812e-01
8.310000e+02 4.805312e-01
8.320000e+02 5.065574e-01
8.330000e+02 5.339221e-01
8.340000e+02 5.626901e-01
8.350000e+02 5.927873e-01
8.360000e+02 6.246999e-01
8.370000e+02 6.581107e-01
8.380000e+02 6.932058e-01
8.390000e+02 7.300765e-01
8.400000e+02 7.688084e-01
8.410000e+02 8.094895e-01
8.420000e+02 8.521629e-01
8.430000e+02 8.970791e-01
8.440000e+02 9.441842e-01
8.450000e+02 9.936359e-01
8.460000e+02 1.045545e+00
8.470000e+02 1.100026e+00
8.480000e+02 1.157198e+00
8.490000e+02 1.217192e+00
8.500000e+02 1.280134e+00
8.510000e+02 1.346163e+00
8.520000e+02 1.415420e+00
8.530000e+02 1.488057e+00
8.540000e+02 1.564242e+00
8.550000e+02 1.644111e+00
8.560000e+02 1.727845e+00
8.570000e+02 1.815622e+00
8.580000e+02 1.907625e+00
8.590000e+02 2.004049e+00
8.600000e+02 2.105091e+00
8.610000e+02 2.210959e+00
8.620000e+02 2.321875e+00
8.630000e+02 2.438060e+00
8.640000e+02 2.559757e+00
8.650000e+02 2.687208e+00
8.660000e+02 2.820671e+00
8.670000e+02 2.960414e+00
8.680000e+02 3.106714e+00
8.690000e+02 3.259862e+00
8.700000e+02 3.420134e+00
8.710000e+02 3.587923e+00
8.720000e+02 3.763479e+00
8.730000e+02 3.947168e+00
8.740000e+02 4.139346e+00
8.750000e+02 4.340382e+00
8.760000e+02 4.550662e+00
8.770000e+02 4.770577e+00
8.780000e+02 5.000567e+00
8.790000e+02 5.241046e+00
8.800000e+02 5.492470e+00
8.810000e+02 5.755308e+00
8.820000e+02 6.030048e+00
8.830000e+02 6.317199e+00
8.840000e+02 6.617285e+00
8.850000e+02 6.930857e+00
8.860000e+02 7.258493e+00
8.870000e+02 7.600778e+00
8.880000e+02 7.958329e+00
8.890000e+02 8.331791e+00
8.900000e+02 8.721824e+00
8.910000e+02 9.129127e+00
8.920000e+02 9.520959e+00
8.930000e+02 9.998441e+00
8.940000e+02 1.046198e+01
8.950000e+02 1.094583e+01
8.960000e+02 1.145084e+01
8.970000e+02 1.197787e+01
8.980000e+02 1.252783e+01
8.990000e+02 1.310166e+01
9.000000e+02 1.370033e+01
9.010000e+02 1.432485e+01
9.020000e+02 1.497627e+01
9.030000e+02 1.565568e+01
9.040000e+02 1.636389e+01
9.050000e+02 1.710305e+01
9.060000e+02 1.787340e+01
9.070000e+02 1.867637e+01
9.080000e+02 1.951372e+01
9.090000e+02 2.038638e+01
9.100000e+02 2.129589e+01
9.110000e+02 2.224389e+01
9.120000e+02 2.323257e+01
9.130000e+02 2.366198e+01
9.140000e+02 2.685754e+01
9.150000e+02 4.245077e+02
9.160000e+02 6.478729e+02
9.170000e+02 6.716990e+02
9.180000e+02 6.946641e+02
9.190000e+02 7.207442e+02
9.200000e+02 7.464570e+02
9.210000e+02 3.305028e+01
9.220000e+02 7.995943e+02
9.230000e+02 8.260217e+02
9.240000e+02 7.712787e+02
9.250000e+02 8.726168e+02
9.260000e+02 9.157572e+02
9.270000e+02 9.496989e+02
9.280000e+02 9.847658e+02
9.290000e+02 8.745564e+02
9.300000e+02 1.040669e+03
9.310000e+02 1.081342e+03
9.320000e+02 1.129888e+03
9.330000e+02 1.168659e+03
9.340000e+02 1.209053e+03
9.350000e+02 2.878689e+02
9.360000e+02 1.288694e+03
9.370000e+02 2.406068e+02
9.380000e+02 9.640443e+02
9.390000e+02 1.431089e+03
9.400000e+02 1.480831e+03
9.410000e+02 1.109900e+03
9.420000e+02 1.584194e+03
9.430000e+02 1.637929e+03
9.440000e+02 1.461193e+03
9.450000e+02 1.749639e+03
9.460000e+02 1.808879e+03
9.470000e+02 1.454796e+03
9.480000e+02 1.921461e+03
9.490000e+02 1.974688e+03
9.500000e+02 5.516227e+02
9.510000e+02 2.051863e+03
9.520000e+02 2.203864e+03
9.530000e+02 2.276599e+03
9.540000e+02 1.931418e+03
9.550000e+02 2.433729e+03
9.560000e+02 2.525333e+03
9.570000e+02 1.843973e+03
9.580000e+02 2.656586e+03
9.590000e+02 2.782802e+03
9.600000e+02 5.673984e+02
9.610000e+02 2.972443e+03
9.620000e+02 3.068995e+03
9.630000e+02 3.169242e+03
9.640000e+02 2.342202e+02
9.650000e+02 3.049358e+03
9.660000e+02 3.487293e+03
9.670000e+02 3.599596e+03
9.680000e+02 3.693232e+03
9.690000e+02 3.809231e+03
9.700000e+02 3.945004e+03
9.710000e+02 4.034463e+03
9.720000e+02 3.778218e+03
9.730000e+02 3.775200e+03
9.740000e+02 4.411344e+03
9.750000e+02 4.616061e+03
9.760000e+02 4.775817e+03
9.770000e+02 4.931586e+03
9.780000e+02 5.084061e+03
9.790000e+02 5.252890e+03
9.800000e+02 5.418452e+03
9.810000e+02 5.590727e+03
9.820000e+02 5.747685e+03
9.830000e+02 5.944076e+03
9.840000e+02 1.867061e+03
9.850000e+02 6.322951e+03
9.860000e+02 6.519577e+03
9.870000e+02 6.720595e+03
9.880000e+02 6.911450e+03
9.890000e+02 5.349265e+03
9.900000e+02 7.713334e+02
9.910000e+02 7.528327e+03
9.920000e+02 7.735346e+03
9.930000e+02 7.822954e+03
9.940000e+02 1.197162e+03
9.950000e+02 1.736099e+03
9.960000e+02 6.058521e+03
9.970000e+02 2.958874e+03
9.980000e+02 9.318387e+03
9.990000e+02 9.585523e+03
1.000000e+03 9.948520e+03
1.001000e+03 1.024848e+04
1.002000e+03 1.055507e+04
1.003000e+03 1.034817e+04
1.004000e+03 1.119630e+04
1.005000e+03 1.111586e+04
1.006000e+03 1.187617e+04
1.007000e+03 1.222917e+04
1.008000e+03 1.258733e+04
1.009000e+03 1.271028e+04
1.010000e+03 1.334472e+04
1.011000e+03 1.373614e+04
1.012000e+03 1.413832e+04
1.013000e+03 1.455153e+04
1.014000e+03 1.495891e+04
1.015000e+03 1.518235e+04
1.016000e+03 1.583395e+04
1.017000e+03 1.627707e+04
1.018000e+03 1.675433e+04
1.019000e+03 1.720994e+04
1.020000e+03 1.766966e+04
1.021000e+03 1.582472e+04
1.022000e+03 1.780118e+04
1.023000e+03 1.867737e+04
1.024000e+03 1.816821e+04
1.025000e+03 1.324064e+04
1.026000e+03 5.627916e+03
1.027000e+03 1.844024e+04
1.028000e+03 5.729550e+03
1.029000e+03 2.239531e+04
1.030000e+03 2.317561e+04
1.031000e+03 2.409912e+04
1.032000e+03 2.481643e+04
1.033000e+03 1.154262e+04
1.034000e+03 2.636432e+04
1.035000e+03 5.869465e+03
1.036000e+03 2.777186e+04
1.037000e+03 5.664938e+03
1.038000e+03 2.952392e+04
1.039000e+03 3.030780e+04
1.040000e+03 3.122438e+04
1.041000e+03 3.207564e+04
1.042000e+03 3.282964e+04
1.043000e+03 3.344102e+04
1.044000e+03 3.485547e+04
1.045000e+03 3.582180e+04
1.046000e+03 3.683743e+04
1.047000e+03 3.785768e+04
1.048000e+03 3.883811e+04
1.049000e+03 3.990796e+04
1.050000e+03 4.107022e+04
1.051000e+03 4.219522e+04
1.052000e+03 4.334981e+04
1.053000e+03 4.434513e+04
1.054000e+03 4.569861e+04
1.055000e+03 4.698200e+04
1.056000e+03 4.826148e+04
1.057000e+03 4.956595e+04
1.058000e+03 5.090439e+04
1.059000e+03 5.227402e+04
1.060000e+03 5.367449e+04
1.061000e+03 5.512332e+04
1.062000e+03 5.659787e+04
1.063000e+03 5.045434e+04
1.064000e+03 1.228147e+04
1.065000e+03 6.136597e+04
1.066000e+03 6.293116e+04
1.067000e+03 6.423102e+04
1.068000e+03 6.638731e+04
1.069000e+03 6.809554e+04
1.070000e+03 6.983909e+04
1.071000e+03 7.184116e+04
1.072000e+03 7.372501e+04
1.073000e+03 7.561815e+04
1.074000e+03 7.763962e+04
1.075000e+03 7.965889e+04
1.076000e+03 8.174408e+04
1.077000e+03 8.381741e+04
1.078000e+03 8.605345e+04
1.079000e+03 8.798383e+04
1.080000e+03 9.055470e+04
1.081000e+03 9.290670e+04
1.082000e+03 9.522403e+04
1.083000e+03 9.775036e+04
1.084000e+03 1.001419e+05
1.085000e+03 9.864025e+04
1.086000e+03 1.054400e+05
1.087000e+03 1.081127e+05
1.088000e+03 1.104721e+05
1.089000e+03 1.136804e+05
1.090000e+03 1.165451e+05
1.091000e+03 1.195029e+05
1.092000e+03 1.224911e+05
1.093000e+03 1.254781e+05
1.094000e+03 1.287587e+05
1.095000e+03 1.319177e+05
1.096000e+03 1.352769e+05
1.097000e+03 1.376987e+05
1.098000e+03 1.419939e+05
1.099000e+03 1.456175e+05
1.100000e+03 1.474584e+05
1.101000e+03 1.373663e+05
1.102000e+03 3.937504e+05
1.103000e+03 1.864686e+06
1.104000e+03 3.990595e+05
1.105000e+03 1.608050e+05
1.106000e+03 5.515328e+06
1.107000e+03 5.442808e+06
1.108000e+03 5.741115e+06
1.109000e+03 4.918999e+06
1.110000e+03 1.373224e+06
1.111000e+03 4.148410e+05
1.112000e+03 5.789311e+06
1.113000e+03 6.294564e+06
1.114000e+03 1.397435e+05
1.115000e+03 6.352518e+06
1.116000e+03 6.526322e+06
1.117000e+03 1.150065e+05
1.118000e+03 6.578164e+06
1.119000e+03 6.921668e+06
1.120000e+03 7.023884e+06
1.121000e+03 5.809838e+06
1.122000e+03 4.251600e+04
1.123000e+03 8.356785e+05
1.124000e+03 7.544952e+06
1.125000e+03 4.629271e+06
1.126000e+03 7.870906e+06
1.127000e+03 7.480227e+06
1.128000e+03 3.423027e+06
1.129000e+03 8.036549e+06
1.130000e+03 7.525366e+06
1.131000e+03 8.641157e+06
1.132000e+03 1.651900e+05
1.133000e+03 8.824833e+06
1.134000e+03 8.620671e+06
1.135000e+03 2.022685e+05
1.136000e+03 9.397748e+06
1.137000e+03 9.585584e+06
1.138000e+03 9.797950e+06
1.139000e+03 9.534686e+06
1.140000e+03 9.434300e+04
1.141000e+03 1.033863e+07
1.142000e+03 1.041044e+07
1.143000e+03 1.067813e+07
1.144000e+03 1.089291e+07
1.145000e+03 7.834603e+06
1.146000e+03 1.131042e+07
1.147000e+03 1.114216e+07
1.148000e+03 1.138518e+07
1.149000e+03 1.185030e+07
1.150000e+03 1.172802e+07
1.151000e+03 1.211840e+07
1.152000e+03 1.249883e+07
1.153000e+03 5.409597e+06
1.154000e+03 3.158050e+05
1.155000e+03 1.248474e+07
1.156000e+03 6.303656e+06
1.157000e+03 1.350905e+07
1.158000e+03 2.704481e+05
1.159000e+03 1.133065e+07
1.160000e+03 1.436675e+07
1.161000e+03 1.463409e+07
1.162000e+03 2.011707e+06
1.163000e+03 1.504648e+07
1.164000e+03 3.005070e+05
1.165000e+03 1.563993e+07
1.166000e+03 1.583893e+07
1.167000e+03 1.577362e+07
1.168000e+03 1.652748e+07
1.169000e+03 1.600696e+07
1.170000e+03 1.712834e+07
1.171000e+03 1.743222e+07
1.172000e+03 1.747287e+07
1.173000e+03 1.803224e+07
1.174000e+03 1.819405e+07
1.175000e+03 3.196100e+05
1.176000e+03 2.543480e+05
1.177000e+03 1.918959e+07
1.178000e+03 1.915157e+07
1.179000e+03 1.979733e+07
1.180000e+03 1.667599e+07
1.181000e+03 2.011281e+07
1.182000e+03 2.063394e+07
1.183000e+03 2.087929e+07
1.184000e+03 2.111341e+07
1.185000e+03 2.121413e+07
1.186000e+03 2.150557e+07
1.187000e+03 2.168930e+07
1.188000e+03 2.170332e+07
1.189000e+03 3.100400e+05
1.190000e+03 6.230083e+06
1.191000e+03 2.142239e+07
1.192000e+03 2.144881e+07
1.193000e+03 2.604950e+05
1.194000e+03 3.555280e+05
1.195000e+03 1.358801e+07
1.196000e+03 2.116898e+07
1.197000e+03 2.611455e+07
1.198000e+03 2.619871e+07
1.199000e+03 2.496107e+07
1.200000e+03 2.122754e+07
1.201000e+03 2.240812e+07
1.202000e+03 2.191950e+07
1.203000e+03 2.312904e+07
1.204000e+03 2.070469e+07
1.205000e+03 1.845543e+07
1.206000e+03 1.604420e+07
1.207000e+03 4.606552e+06
1.208000e+03 1.120680e+07
1.209000e+03 8.448085e+06
1.210000e+03 6.133880e+05
1.211000e+03 4.420892e+06
1.212000e+03 2.798468e+06
1.213000e+03 1.634934e+06
1.214000e+03 9.192469e+05
1.215000e+03 5.475259e+05
1.216000e+03 4.701134e+05
1.217000e+03 8.087664e+05
1.218000e+03 1.488310e+06
1.219000e+03 2.710198e+06
1.220000e+03 4.579360e+06
1.221000e+03 7.101559e+06
1.222000e+03 1.022040e+07
1.223000e+03 1.385864e+07
1.224000e+03 1.793765e+07
1.225000e+03 2.237894e+07
1.226000e+03 2.710056e+07
1.227000e+03 3.169179e+07
1.228000e+03 3.734862e+07
1.229000e+03 4.271104e+07
1.230000e+03 4.815428e+07
1.231000e+03 5.373214e+07
1.232000e+03 5.937705e+07
1.233000e+03 6.501309e+07
1.234000e+03 3.733953e+07
1.235000e+03 7.630247e+07
1.236000e+03 8.187821e+07
1.237000e+03 8.744066e+07
1.238000e+03 9.304357e+07
1.239000e+03 9.852072e+07
1.240000e+03 9.417250e+07
1.241000e+03 1.562295e+08
1.242000e+03 9.055097e+07
1.243000e+03 1.477628e+08
1.244000e+03 6.213437e+07
1.245000e+03 9.006891e+07
1.246000e+03 2.693468e+08
1.247000e+03 2.870696e+08
1.248000e+03 6.457718e+07
1.249000e+03 9.328966e+07
1.250000e+03 3.462766e+08
1.251000e+03 3.659938e+08
1.252000e+03 3.857870e+08
1.253000e+03 4.094158e+08
1.254000e+03 4.234312e+08
1.255000e+03 4.523732e+08
1.256000e+03 4.701442e+08
1.257000e+03 4.950588e+08
1.258000e+03 5.087687e+08
1.259000e+03 4.857841e+08
1.260000e+03 3.385617e+08
1.261000e+03 1.315630e+06
1.262000e+03 4.053014e+07
1.263000e+03 5.797335e+08
1.264000e+03 4.763447e+08
1.265000e+03 1.224984e+06
1.266000e+03 6.280811e+08
1.267000e+03 7.157257e+08
