# wavelength_A flux
5.000000e+02 9.125983e-13
5.010000e+02 1.056822e-12
5.020000e+02 1.223098e-12
5.030000e+02 1.414687e-12
5.040000e+02 1.635311e-12
5.050000e+02 1.908045e-12
5.060000e+02 2.202771e-12
5.070000e+02 2.541535e-12
5.080000e+02 2.930694e-12
5.090000e+02 3.377493e-12
5.100000e+02 3.890169e-12
5.110000e+02 4.478110e-12
5.120000e+02 5.151984e-12
5.130000e+02 5.923922e-12
5.140000e+02 6.807702e-12
5.150000e+02 7.818935e-12
5.160000e+02 8.975486e-12
5.170000e+02 1.029720e-11
5.180000e+02 1.180751e-11
5.190000e+02 1.353171e-11
5.200000e+02 1.549930e-11
5.210000e+02 1.774342e-11
5.220000e+02 2.030064e-11
5.230000e+02 2.321625e-11
5.240000e+02 2.653533e-11
5.250000e+02 3.031307e-11
5.260000e+02 3.461043e-11
5.270000e+02 3.949645e-11
5.280000e+02 4.504895e-11
5.290000e+02 5.135041e-11
5.300000e+02 5.851529e-11
5.310000e+02 6.663924e-11
5.320000e+02 7.585276e-11
5.330000e+02 8.629673e-11
5.340000e+02 9.812966e-11
5.350000e+02 1.115296e-10
5.360000e+02 1.266965e-10
5.370000e+02 1.431905e-10
5.380000e+02 1.632581e-10
5.390000e+02 1.851903e-10
5.400000e+02 2.099657e-10
5.410000e+02 2.379321e-10
5.420000e+02 2.695140e-10
5.430000e+02 3.051341e-10
5.440000e+02 3.452972e-10
5.450000e+02 3.905632e-10
5.460000e+02 4.415237e-10
5.470000e+02 4.989772e-10
5.480000e+02 5.636035e-10
5.490000e+02 6.363083e-10
5.500000e+02 7.180636e-10
5.510000e+02 8.099550e-10
5.520000e+02 9.131932e-10
5.530000e+02 1.029128e-09
5.540000e+02 1.159262e-09
5.550000e+02 1.305273e-09
5.560000e+02 1.469023e-09
5.570000e+02 1.652591e-09
5.580000e+02 1.858283e-09
5.590000e+02 2.088669e-09
5.600000e+02 2.346603e-09
5.610000e+02 2.635255e-09
5.620000e+02 2.958148e-09
5.630000e+02 3.319191e-09
5.640000e+02 3.722724e-09
5.650000e+02 4.173557e-09
5.660000e+02 4.677032e-09
5.670000e+02 5.239058e-09
5.680000e+02 5.866190e-09
5.690000e+02 6.565686e-09
5.700000e+02 7.345576e-09
5.710000e+02 8.214759e-09
5.720000e+02 9.183061e-09
5.730000e+02 1.026136e-08
5.740000e+02 1.146167e-08
5.750000e+02 1.279735e-08
5.760000e+02 1.428250e-08
5.770000e+02 1.593467e-08
5.780000e+02 1.777043e-08
5.790000e+02 1.980994e-08
5.800000e+02 2.207493e-08
5.810000e+02 2.458938e-08
5.820000e+02 2.737967e-08
5.830000e+02 3.047483e-08
5.840000e+02 3.390390e-08
5.850000e+02 3.771096e-08
5.860000e+02 4.192742e-08
5.870000e+02 4.659696e-08
5.880000e+02 5.176716e-08
5.890000e+02 5.748945e-08
5.900000e+02 6.382115e-08
5.910000e+02 7.082393e-08
5.920000e+02 7.856637e-08
5.930000e+02 8.712352e-08
5.940000e+02 9.657775e-08
5.950000e+02 1.070193e-07
5.960000e+02 1.185475e-07
5.970000e+02 1.312706e-07
5.980000e+02 1.453077e-07
5.990000e+02 1.607891e-07
6.000000e+02 1.778575e-07
6.010000e+02 1.966682e-07
6.020000e+02 2.173950e-07
6.030000e+02 2.402219e-07
6.040000e+02 2.653544e-07
6.050000e+02 2.930162e-07
6.060000e+02 3.234511e-07
6.070000e+02 3.569268e-07
6.080000e+02 3.937341e-07
6.090000e+02 4.341915e-07
6.100000e+02 4.786461e-07
6.110000e+02 5.274772e-07
6.120000e+02 5.810979e-07
6.130000e+02 6.399590e-07
6.140000e+02 7.045518e-07
6.150000e+02 7.754117e-07
6.160000e+02 8.531218e-07
6.170000e+02 9.383175e-07
6.180000e+02 1.031690e-06
6.190000e+02 1.133992e-06
6.200000e+02 1.246043e-06
6.210000e+02 1.368733e-06
6.220000e+02 1.503030e-06
6.230000e+02 1.649988e-06
6.240000e+02 1.810751e-06
6.250000e+02 1.986561e-06
6.260000e+02 2.178769e-06
6.270000e+02 2.388840e-06
6.280000e+02 2.618367e-06
6.290000e+02 2.869074e-06
6.300000e+02 3.142835e-06
6.310000e+02 3.441346e-06
6.320000e+02 3.767816e-06
6.330000e+02 4.123617e-06
6.340000e+02 4.511696e-06
6.350000e+02 4.934818e-06
6.360000e+02 5.395955e-06
6.370000e+02 5.898674e-06
6.380000e+02 6.446227e-06
6.390000e+02 7.042566e-06
6.400000e+02 7.691853e-06
6.410000e+02 8.398591e-06
6.420000e+02 9.167645e-06
6.430000e+02 1.000428e-05
6.440000e+02 1.091417e-05
6.450000e+02 1.190346e-05
6.460000e+02 1.297879e-05
6.470000e+02 1.414731e-05
6.480000e+02 1.541676e-05
6.490000e+02 1.679547e-05
6.500000e+02 1.829244e-05
6.510000e+02 1.991739e-05
6.520000e+02 2.168077e-05
6.530000e+02 2.359387e-05
6.540000e+02 2.566884e-05
6.550000e+02 2.791880e-05
6.560000e+02 3.035785e-05
6.570000e+02 3.300106e-05
6.580000e+02 3.586520e-05
6.590000e+02 3.896746e-05
6.600000e+02 4.232694e-05
6.610000e+02 4.596405e-05
6.620000e+02 4.990070e-05
6.630000e+02 5.416047e-05
6.640000e+02 5.876873e-05
6.650000e+02 6.375269e-05
6.660000e+02 6.914170e-05
6.670000e+02 7.496715e-05
6.680000e+02 8.126284e-05
6.690000e+02 8.806504e-05
6.700000e+02 9.541268e-05
6.710000e+02 1.033476e-04
6.720000e+02 1.119145e-04
6.730000e+02 1.211616e-04
6.740000e+02 1.311404e-04
6.750000e+02 1.419063e-04
6.760000e+02 1.535185e-04
6.770000e+02 1.660406e-04
6.780000e+02 1.795406e-04
6.790000e+02 1.940915e-04
6.800000e+02 2.097713e-04
6.810000e+02 2.266637e-04
6.820000e+02 2.448583e-04
6.830000e+02 2.644507e-04
6.840000e+02 2.855436e-04
6.850000e+02 3.082464e-04
6.860000e+02 3.326768e-04
6.870000e+02 3.589598e-04
6.880000e+02 3.872298e-04
6.890000e+02 4.176299e-04
6.900000e+02 4.503133e-04
6.910000e+02 4.854436e-04
6.920000e+02 5.231955e-04
6.930000e+02 5.637557e-04
6.940000e+02 6.073233e-04
6.950000e+02 6.541111e-04
6.960000e+02 7.043460e-04
6.970000e+02 7.582675e-04
6.980000e+02 8.161420e-04
6.990000e+02 8.782368e-04
7.000000e+02 9.448487e-04
7.010000e+02 1.016291e-03
7.020000e+02 1.092897e-03
7.030000e+02 1.175022e-03
7.040000e+02 1.263046e-03
7.050000e+02 1.357373e-03
7.060000e+02 1.458433e-03
7.070000e+02 1.566682e-03
7.080000e+02 1.682610e-03
7.090000e+02 1.806733e-03
7.100000e+02 1.939606e-03
7.110000e+02 2.081814e-03
7.120000e+02 2.233983e-03
7.130000e+02 2.396777e-03
7.140000e+02 2.570902e-03
7.150000e+02 2.757111e-03
7.160000e+02 2.956200e-03
7.170000e+02 3.169016e-03
7.180000e+02 3.396458e-03
7.190000e+02 3.639504e-03
7.200000e+02 3.899147e-03
7.210000e+02 4.176473e-03
7.220000e+02 4.472631e-03
7.230000e+02 4.788837e-03
7.240000e+02 5.126383e-03
7.250000e+02 5.486637e-03
7.260000e+02 5.871055e-03
7.270000e+02 6.281178e-03
7.280000e+02 6.718641e-03
7.290000e+02 7.185178e-03
7.300000e+02 7.682626e-03
7.310000e+02 8.212933e-03
7.320000e+02 8.778163e-03
7.330000e+02 9.380504e-03
7.340000e+02 1.002227e-02
7.350000e+02 1.070592e-02
7.360000e+02 1.143404e-02
7.370000e+02 1.220940e-02
7.380000e+02 1.303490e-02
7.390000e+02 1.391362e-02
7.400000e+02 1.484882e-02
7.410000e+02 1.584397e-02
7.420000e+02 1.690269e-02
7.430000e+02 1.802886e-02
7.440000e+02 1.922656e-02
7.450000e+02 2.050010e-02
7.460000e+02 2.185405e-02
7.470000e+02 2.329322e-02
7.480000e+02 2.482271e-02
7.490000e+02 2.644791e-02
7.500000e+02 2.817450e-02
7.510000e+02 3.000849e-02
7.520000e+02 3.195623e-02
7.530000e+02 3.402440e-02
7.540000e+02 3.622007e-02
7.550000e+02 3.855072e-02
7.560000e+02 4.102422e-02
7.570000e+02 4.364879e-02
7.580000e+02 4.643344e-02
7.590000e+02 4.938714e-02
7.600000e+02 5.251983e-02
7.610000e+02 5.584170e-02
7.620000e+02 5.936360e-02
7.630000e+02 6.309698e-02
7.640000e+02 6.705386e-02
7.650000e+02 7.124695e-02
7.660000e+02 7.568964e-02
7.670000e+02 8.039597e-02
7.680000e+02 8.538074e-02
7.690000e+02 9.065981e-02
7.700000e+02 9.624939e-02
7.710000e+02 1.021669e-01
7.720000e+02 1.084305e-01
7.730000e+02 1.150595e-01
7.740000e+02 1.220740e-01
7.750000e+02 1.294953e-01
7.760000e+02 1.373445e-01
7.770000e+02 1.456488e-01
7.780000e+02 1.544293e-01
7.790000e+02 1.637131e-01
7.800000e+02 1.735277e-01
7.810000e+02 1.839017e-01
7.820000e+02 1.948655e-01
7.830000e+02 2.064506e-01
7.840000e+02 2.186905e-01
7.850000e+02 2.316203e-01
7.860000e+02 2.452766e-01
7.870000e+02 2.596984e-01
7.880000e+02 2.749259e-01
7.890000e+02 2.910020e-01
7.900000e+02 3.079713e-01
7.910000e+02 3.258809e-01
7.920000e+02 3.447800e-01
7.930000e+02 3.647204e-01
7.940000e+02 3.857565e-01
7.950000e+02 4.079450e-01
7.960000e+02 4.313459e-01
7.970000e+02 4.560216e-01
7.980000e+02 4.820380e-01
7.990000e+02 5.094640e-01
8.000000e+02 5.383717e-01
8.010000e+02 5.688368e-01
8.020000e+02 6.009388e-01
8.030000e+02 6.347608e-01
8.040000e+02 6.703898e-01
8.050000e+02 7.079173e-01
8.060000e+02 7.474387e-01
8.070000e+02 7.890542e-01
8.080000e+02 8.328688e-01
8.090000e+02 8.789921e-01
8.100000e+02 9.275392e-01
8.110000e+02 9.786305e-01
8.120000e+02 1.032392e+00
8.130000e+02 1.088955e+00
8.140000e+02 1.148458e+00
8.150000e+02 1.211046e+00
8.160000e+02 1.276869e+00
8.170000e+02 1.346084e+00
8.180000e+02 1.418859e+00
8.190000e+02 1.495364e+00
8.200000e+02 1.575781e+00
8.210000e+02 1.660298e+00
8.220000e+02 1.749113e+00
8.230000e+02 1.842433e+00
8.240000e+02 1.940472e+00
8.250000e+02 2.043456e+00
8.260000e+02 2.151621e+00
8.270000e+02 2.265212e+00
8.280000e+02 2.384487e+00
8.290000e+02 2.509713e+00
8.300000e+02 2.641170e+00
8.310000e+02 2.779152e+00
8.320000e+02 2.923964e+00
8.330000e+02 3.075923e+00
8.340000e+02 3.235364e+00
8.350000e+02 3.402578e+00
8.360000e+02 3.578090e+00
8.370000e+02 3.762123e+00
8.380000e+02 3.955115e+00
8.390000e+02 4.157485e+00
8.400000e+02 4.369657e+00
8.410000e+02 4.592081e+00
8.420000e+02 4.825208e+00
8.430000e+02 5.069575e+00
8.440000e+02 5.325637e+00
8.450000e+02 5.593942e+00
8.460000e+02 5.875041e+00
8.470000e+02 6.169508e+00
8.480000e+02 6.477941e+00
8.490000e+02 6.800966e+00
8.500000e+02 7.139233e+00
8.510000e+02 7.493417e+00
8.520000e+02 7.864223e+00
8.530000e+02 8.252391e+00
8.540000e+02 8.658687e+00
8.550000e+02 9.083897e+00
8.560000e+02 9.528855e+00
8.570000e+02 9.994427e+00
8.580000e+02 1.048151e+01
8.590000e+02 1.099104e+01
8.600000e+02 1.152398e+01
8.610000e+02 1.208137e+01
8.620000e+02 1.266423e+01
8.630000e+02 1.327368e+01
8.640000e+02 1.391085e+01
8.650000e+02 1.457693e+01
8.660000e+02 1.527315e+01
8.670000e+02 1.600080e+01
8.680000e+02 1.676121e+01
8.690000e+02 1.755576e+01
8.700000e+02 1.838589e+01
8.710000e+02 1.925312e+01
8.720000e+02 2.015898e+01
8.730000e+02 2.110510e+01
8.740000e+02 2.209317e+01
8.750000e+02 2.312493e+01
8.760000e+02 2.420218e+01
8.770000e+02 2.532683e+01
8.780000e+02 2.650083e+01
8.790000e+02 2.772621e+01
8.800000e+02 2.900508e+01
8.810000e+02 3.033964e+01
8.820000e+02 3.173217e+01
8.830000e+02 3.318502e+01
8.840000e+02 3.470066e+01
8.850000e+02 3.628163e+01
8.860000e+02 3.793057e+01
8.870000e+02 3.965023e+01
8.880000e+02 4.144345e+01
8.890000e+02 4.331320e+01
8.900000e+02 4.526252e+01
8.910000e+02 4.729460e+01
8.920000e+02 4.940192e+01
8.930000e+02 5.162035e+01
8.940000e+02 5.392099e+01
8.950000e+02 5.631832e+01
8.960000e+02 5.881617e+01
8.970000e+02 6.141848e+01
8.980000e+02 6.412934e+01
8.990000e+02 6.695301e+01
9.000000e+02 6.989388e+01
9.010000e+02 7.295653e+01
9.020000e+02 7.614567e+01
9.030000e+02 7.946619e+01
9.040000e+02 8.292318e+01
9.050000e+02 8.652190e+01
9.060000e+02 9.026778e+01
9.070000e+02 9.416632e+01
9.080000e+02 9.822379e+01
9.090000e+02 1.024458e+02
9.100000e+02 1.068388e+02
9.110000e+02 1.114092e+02
9.120000e+02 1.161642e+02
9.130000e+02 1.209299e+02
9.140000e+02 1.268145e+02
9.150000e+02 6.586504e+02
9.160000e+02 1.170035e+03
9.170000e+02 1.160953e+03
9.180000e+02 1.155767e+03
9.190000e+02 1.447666e+03
9.200000e+02 1.529599e+03
9.210000e+02 1.681903e+02
9.220000e+02 1.637064e+03
9.230000e+02 1.389303e+03
9.240000e+02 1.575637e+03
9.250000e+02 1.761155e+03
9.260000e+02 1.762060e+03
9.270000e+02 1.775210e+03
9.280000e+02 2.031194e+03
9.290000e+02 1.902008e+03
9.300000e+02 2.145132e+03
9.310000e+02 1.916664e+03
9.320000e+02 2.328573e+03
9.330000e+02 2.383127e+03
9.340000e+02 2.449159e+03
9.350000e+02 4.843420e+02
9.360000e+02 2.336612e+03
9.370000e+02 4.354302e+02
9.380000e+02 1.533366e+03
9.390000e+02 2.699651e+03
9.400000e+02 3.048398e+03
9.410000e+02 1.158323e+03
9.420000e+02 3.254976e+03
9.430000e+02 3.151305e+03
9.440000e+02 2.757131e+03
9.450000e+02 3.602171e+03
9.460000e+02 3.698499e+03
9.470000e+02 2.950618e+03
9.480000e+02 3.595393e+03
9.490000e+02 4.056245e+03
9.500000e+02 7.857703e+02
9.510000e+02 4.225028e+03
9.520000e+02 4.502336e+03
9.530000e+02 3.644919e+03
9.540000e+02 3.349379e+03
9.550000e+02 4.843063e+03
9.560000e+02 4.807218e+03
9.570000e+02 2.741712e+03
9.580000e+02 3.167597e+03
9.590000e+02 5.729985e+03
9.600000e+02 1.037190e+03
9.610000e+02 6.048504e+03
9.620000e+02 6.128388e+03
9.630000e+02 6.298949e+03
9.640000e+02 9.217422e+02
9.650000e+02 5.202089e+03
9.660000e+02 6.892517e+03
9.670000e+02 6.548730e+03
9.680000e+02 6.066568e+03
9.690000e+02 7.709168e+03
9.700000e+02 7.915527e+03
9.710000e+02 7.216784e+03
9.720000e+02 7.335559e+03
9.730000e+02 7.915444e+03
9.740000e+02 8.961211e+03
9.750000e+02 9.126812e+03
9.760000e+02 9.815540e+03
9.770000e+02 1.010007e+04
9.780000e+02 1.022967e+04
9.790000e+02 1.083196e+04
9.800000e+02 1.117180e+04
9.810000e+02 1.131253e+04
9.820000e+02 1.096143e+04
9.830000e+02 1.224700e+04
9.840000e+02 5.194294e+03
9.850000e+02 1.260886e+04
9.860000e+02 1.295908e+04
9.870000e+02 1.385010e+04
9.880000e+02 1.071296e+04
9.890000e+02 1.207805e+04
9.900000e+02 2.673102e+03
9.910000e+02 1.311598e+04
9.920000e+02 8.673896e+03
9.930000e+02 1.590435e+04
9.940000e+02 2.900952e+03
9.950000e+02 5.340857e+03
9.960000e+02 1.461158e+04
9.970000e+02 4.587729e+03
9.980000e+02 1.913818e+04
9.990000e+02 1.710573e+04
1.000000e+03 2.045527e+04
1.001000e+03 2.115672e+04
1.002000e+03 2.177111e+04
1.003000e+03 2.009678e+04
1.004000e+03 1.804104e+04
1.005000e+03 2.157604e+04
1.006000e+03 2.448458e+04
1.007000e+03 2.523580e+04
1.008000e+03 2.588545e+04
1.009000e+03 2.486175e+04
1.010000e+03 2.745489e+04
1.011000e+03 2.833048e+04
1.012000e+03 2.907889e+04
1.013000e+03 2.988985e+04
1.014000e+03 1.631208e+04
1.015000e+03 2.260681e+04
1.016000e+03 3.018103e+04
1.017000e+03 1.808879e+04
1.018000e+03 3.219079e+04
1.019000e+03 2.567899e+04
1.020000e+03 3.651984e+04
1.021000e+03 1.983152e+04
1.022000e+03 3.159316e+04
1.023000e+03 2.862897e+04
1.024000e+03 3.791264e+04
1.025000e+03 1.900869e+04
1.026000e+03 1.528946e+04
1.027000e+03 3.861827e+04
1.028000e+03 1.067759e+04
1.029000e+03 2.623765e+04
1.030000e+03 4.709679e+04
1.031000e+03 4.765712e+04
1.032000e+03 5.096435e+04
1.033000e+03 1.804201e+04
1.034000e+03 5.340850e+04
1.035000e+03 1.204540e+04
1.036000e+03 3.318287e+04
1.037000e+03 5.695903e+04
1.038000e+03 6.093298e+04
1.039000e+03 6.216037e+04
1.040000e+03 6.424321e+04
1.041000e+03 6.585417e+04
1.042000e+03 6.781178e+04
1.043000e+03 6.635738e+04
1.044000e+03 7.196462e+04
1.045000e+03 7.364875e+04
1.046000e+03 7.592625e+04
1.047000e+03 7.636185e+04
1.048000e+03 6.546429e+04
1.049000e+03 8.066840e+04
1.050000e+03 8.272791e+04
1.051000e+03 8.317938e+04
1.052000e+03 8.929949e+04
1.053000e+03 9.160010e+04
1.054000e+03 5.240163e+04
1.055000e+03 9.695897e+04
1.056000e+03 9.965902e+04
1.057000e+03 1.010432e+05
1.058000e+03 1.019752e+05
1.059000e+03 9.562330e+04
1.060000e+03 9.146009e+04
1.061000e+03 1.126778e+05
1.062000e+03 1.102545e+05
1.063000e+03 5.126393e+04
1.064000e+03 2.793420e+04
1.065000e+03 7.562755e+04
1.066000e+03 1.186844e+05
1.067000e+03 1.133144e+05
1.068000e+03 1.371223e+05
1.069000e+03 1.000336e+05
1.070000e+03 1.425720e+05
1.071000e+03 1.482725e+05
1.072000e+03 1.521153e+05
1.073000e+03 1.021163e+05
1.074000e+03 1.566539e+05
1.075000e+03 1.587737e+05
1.076000e+03 1.686785e+05
1.077000e+03 1.418498e+05
1.078000e+03 1.691804e+05
1.079000e+03 1.784272e+05
1.080000e+03 1.844189e+05
1.081000e+03 1.906525e+05
1.082000e+03 1.951934e+05
1.083000e+03 1.993249e+05
1.084000e+03 2.068736e+05
1.085000e+03 1.744755e+05
1.086000e+03 2.174966e+05
1.087000e+03 1.964740e+05
1.088000e+03 2.280337e+05
1.089000e+03 2.344128e+05
1.090000e+03 2.290514e+05
1.091000e+03 2.342824e+05
1.092000e+03 2.523667e+05
1.093000e+03 2.585069e+05
1.094000e+03 2.637342e+05
1.095000e+03 2.717202e+05
1.096000e+03 2.710227e+05
1.097000e+03 2.827161e+05
1.098000e+03 2.919702e+05
1.099000e+03 2.951327e+05
1.100000e+03 2.476279e+05
1.101000e+03 2.596289e+05
1.102000e+03 5.719596e+05
1.103000e+03 2.148660e+06
1.104000e+03 7.493028e+05
1.105000e+03 3.250355e+05
1.106000e+03 3.097428e+06
1.107000e+03 4.980528e+05
1.108000e+03 3.952047e+06
1.109000e+03 1.331714e+06
1.110000e+03 1.524445e+06
1.111000e+03 7.414702e+05
1.112000e+03 3.776793e+06
1.113000e+03 4.619368e+06
1.114000e+03 2.849392e+05
1.115000e+03 2.195648e+06
1.116000e+03 1.856389e+06
1.117000e+03 2.774598e+05
1.118000e+03 1.773396e+06
1.119000e+03 4.613678e+06
1.120000e+03 1.980546e+06
1.121000e+03 4.831186e+06
1.122000e+03 1.328540e+05
1.123000e+03 9.532608e+05
1.124000e+03 5.467183e+06
1.125000e+03 3.716986e+06
1.126000e+03 5.882858e+06
1.127000e+03 5.697194e+06
1.128000e+03 2.430032e+06
1.129000e+03 5.388878e+06
1.130000e+03 5.898112e+06
1.131000e+03 6.322318e+06
1.132000e+03 3.819425e+05
1.133000e+03 2.888759e+06
1.134000e+03 5.738199e+06
1.135000e+03 3.037705e+05
1.136000e+03 4.582664e+06
1.137000e+03 6.946968e+06
1.138000e+03 6.092390e+06
1.139000e+03 7.148784e+06
1.140000e+03 2.492112e+05
1.141000e+03 7.439144e+06
1.142000e+03 7.691670e+06
1.143000e+03 7.436638e+06
1.144000e+03 7.982406e+06
1.145000e+03 1.782432e+06
1.146000e+03 8.306816e+06
1.147000e+03 8.242780e+06
1.148000e+03 3.817754e+06
1.149000e+03 8.501039e+06
1.150000e+03 8.015042e+06
1.151000e+03 8.980352e+06
1.152000e+03 9.079765e+06
1.153000e+03 4.375820e+06
1.154000e+03 7.283810e+06
1.155000e+03 9.121952e+06
1.156000e+03 4.979770e+06
1.157000e+03 9.903262e+06
1.158000e+03 4.772972e+05
1.159000e+03 9.243980e+06
1.160000e+03 8.965803e+06
1.161000e+03 1.058885e+07
1.162000e+03 3.102151e+06
1.163000e+03 8.357624e+06
1.164000e+03 4.832610e+05
1.165000e+03 1.129489e+07
1.166000e+03 1.115989e+07
1.167000e+03 1.119636e+07
1.168000e+03 1.212798e+07
1.169000e+03 1.210939e+07
1.170000e+03 1.210800e+07
1.171000e+03 1.256727e+07
1.172000e+03 1.112273e+07
1.173000e+03 1.331875e+07
1.174000e+03 5.224179e+06
1.175000e+03 5.972210e+05
1.176000e+03 5.579700e+05
1.177000e+03 1.440211e+07
1.178000e+03 1.447583e+07
1.179000e+03 1.482000e+07
1.180000e+03 1.153342e+07
1.181000e+03 1.541721e+07
1.182000e+03 1.559782e+07
1.183000e+03 1.533269e+07
1.184000e+03 1.530544e+07
1.185000e+03 1.611491e+07
1.186000e+03 1.120334e+07
1.187000e+03 1.667320e+07
1.188000e+03 1.484351e+07
1.189000e+03 7.982780e+05
1.190000e+03 5.509809e+06
1.191000e+03 1.719898e+07
1.192000e+03 1.785520e+07
1.193000e+03 7.781090e+05
1.194000e+03 9.154400e+05
1.195000e+03 1.532288e+07
1.196000e+03 1.838118e+07
1.197000e+03 2.863545e+07
1.198000e+03 2.029570e+07
1.199000e+03 2.813037e+07
1.200000e+03 2.044584e+07
1.201000e+03 2.665119e+07
1.202000e+03 2.392523e+07
1.203000e+03 3.323063e+07
1.204000e+03 2.087441e+07
1.205000e+03 2.801610e+07
1.206000e+03 2.698700e+07
1.207000e+03 3.819866e+06
1.208000e+03 1.972356e+07
1.209000e+03 1.511363e+07
1.210000e+03 1.263620e+06
1.211000e+03 8.581181e+06
1.212000e+03 5.655656e+06
1.213000e+03 3.603262e+06
1.214000e+03 2.232286e+06
1.215000e+03 1.496764e+06
1.216000e+03 1.375756e+06
1.217000e+03 2.032722e+06
1.218000e+03 3.374158e+06
1.219000e+03 5.645172e+06
1.220000e+03 8.515654e+06
1.221000e+03 1.330945e+07
1.222000e+03 1.830273e+07
1.223000e+03 2.403819e+07
1.224000e+03 3.035059e+07
1.225000e+03 2.364403e+07
1.226000e+03 4.348173e+07
1.227000e+03 4.899692e+07
1.228000e+03 4.423737e+07
1.229000e+03 5.895367e+07
1.230000e+03 6.085046e+07
1.231000e+03 5.073470e+07
1.232000e+03 7.845808e+07
1.233000e+03 8.394704e+07
1.234000e+03 5.352712e+07
1.235000e+03 9.218485e+07
1.236000e+03 6.779454e+07
1.237000e+03 1.013306e+08
1.238000e+03 1.022562e+08
1.239000e+03 1.039103e+08
1.240000e+03 8.875584e+07
1.241000e+03 1.221207e+08
1.242000e+03 1.031429e+08
1.243000e+03 1.349733e+08
1.244000e+03 8.251861e+07
1.245000e+03 1.065851e+08
1.246000e+03 1.625413e+08
1.247000e+03 1.665240e+08
1.248000e+03 8.314567e+07
1.249000e+03 1.096374e+08
1.250000e+03 1.701758e+08
1.251000e+03 1.956232e+08
1.252000e+03 1.907228e+08
1.253000e+03 2.037998e+08
1.254000e+03 1.994075e+08
1.255000e+03 2.087490e+08
1.256000e+03 2.034554e+08
1.257000e+03 2.107409e+08
1.258000e+03 1.893059e+08
1.259000e+03 2.145720e+08
1.260000e+03 2.155571e+08
1.261000e+03 3.548713e+06
1.262000e+03 6.196791e+07
1.263000e+03 2.377487e+08
1.264000e+03 2.127947e+08
1.265000e+03 3.777008e+06
1.266000e+03 2.516760e+08
1.267000e+03 2.354284e+08
