# wavelength_A flux
5.000000e+02 2.068210e+00
5.010000e+02 2.262676e+00
5.020000e+02 2.474499e+00
5.030000e+02 2.705145e+00
5.040000e+02 2.956192e+00
5.050000e+02 3.071285e+00
5.060000e+02 3.354159e+00
5.070000e+02 3.661747e+00
5.080000e+02 3.996091e+00
5.090000e+02 4.361500e+00
5.100000e+02 4.753633e+00
5.110000e+02 5.182015e+00
5.120000e+02 5.647083e+00
5.130000e+02 6.151298e+00
5.140000e+02 6.698645e+00
5.150000e+02 7.292188e+00
5.160000e+02 7.935500e+00
5.170000e+02 8.632818e+00
5.180000e+02 9.387787e+00
5.190000e+02 1.020554e+01
5.200000e+02 1.109077e+01
5.210000e+02 1.204878e+01
5.220000e+02 1.308736e+01
5.230000e+02 1.420585e+01
5.240000e+02 1.541755e+01
5.250000e+02 1.672559e+01
5.260000e+02 1.814024e+01
5.270000e+02 1.966815e+01
5.280000e+02 2.131777e+01
5.290000e+02 2.310171e+01
5.300000e+02 2.501990e+01
5.310000e+02 2.709254e+01
5.320000e+02 2.932747e+01
5.330000e+02 3.173701e+01
5.340000e+02 3.433381e+01
5.350000e+02 3.712922e+01
5.360000e+02 4.014292e+01
5.370000e+02 4.468774e+01
5.380000e+02 4.687875e+01
5.390000e+02 5.063581e+01
5.400000e+02 5.467761e+01
5.410000e+02 5.902828e+01
5.420000e+02 6.369983e+01
5.430000e+02 6.872346e+01
5.440000e+02 7.412195e+01
5.450000e+02 7.992106e+01
5.460000e+02 8.616013e+01
5.470000e+02 9.283520e+01
5.480000e+02 1.000151e+02
5.490000e+02 1.077113e+02
5.500000e+02 1.159705e+02
5.510000e+02 1.248282e+02
5.520000e+02 1.343246e+02
5.530000e+02 1.445028e+02
5.540000e+02 1.554090e+02
5.550000e+02 1.670919e+02
5.560000e+02 1.796035e+02
5.570000e+02 1.929990e+02
5.580000e+02 2.073370e+02
5.590000e+02 2.226798e+02
5.600000e+02 2.390935e+02
5.610000e+02 2.566479e+02
5.620000e+02 2.754175e+02
5.630000e+02 2.954816e+02
5.640000e+02 3.169238e+02
5.650000e+02 3.398325e+02
5.660000e+02 3.643016e+02
5.670000e+02 3.904314e+02
5.680000e+02 4.183273e+02
5.690000e+02 4.481011e+02
5.700000e+02 4.798402e+02
5.710000e+02 5.137254e+02
5.720000e+02 5.498796e+02
5.730000e+02 5.884123e+02
5.740000e+02 6.294949e+02
5.750000e+02 6.732542e+02
5.760000e+02 7.200823e+02
5.770000e+02 7.695943e+02
5.780000e+02 8.225194e+02
5.790000e+02 8.788635e+02
5.800000e+02 9.388411e+02
5.810000e+02 1.002671e+03
5.820000e+02 1.070589e+03
5.830000e+02 1.142860e+03
5.840000e+02 1.220439e+03
5.850000e+02 1.301536e+03
5.860000e+02 1.388164e+03
5.870000e+02 1.480422e+03
5.880000e+02 1.578436e+03
5.890000e+02 1.682589e+03
5.900000e+02 1.793160e+03
5.910000e+02 1.910567e+03
5.920000e+02 2.035222e+03
5.930000e+02 2.167510e+03
5.940000e+02 2.307881e+03
5.950000e+02 2.457086e+03
5.960000e+02 2.614717e+03
5.970000e+02 2.782182e+03
5.980000e+02 2.959719e+03
5.990000e+02 3.147762e+03
6.000000e+02 3.347160e+03
6.010000e+02 3.558456e+03
6.020000e+02 3.781922e+03
6.030000e+02 4.018880e+03
6.040000e+02 4.269776e+03
6.050000e+02 4.535355e+03
6.060000e+02 4.816476e+03
6.070000e+02 5.113865e+03
6.080000e+02 5.428515e+03
6.090000e+02 5.761283e+03
6.100000e+02 6.113225e+03
6.110000e+02 6.485323e+03
6.120000e+02 6.878652e+03
6.130000e+02 7.294343e+03
6.140000e+02 7.733608e+03
6.150000e+02 8.197600e+03
6.160000e+02 8.687714e+03
6.170000e+02 9.205278e+03
6.180000e+02 9.751729e+03
6.190000e+02 1.032857e+04
6.200000e+02 1.093736e+04
6.210000e+02 1.157976e+04
6.220000e+02 1.225749e+04
6.230000e+02 1.297237e+04
6.240000e+02 1.372625e+04
6.250000e+02 1.452112e+04
6.260000e+02 1.535911e+04
6.270000e+02 1.624224e+04
6.280000e+02 1.717299e+04
6.290000e+02 1.815366e+04
6.300000e+02 1.918671e+04
6.310000e+02 2.027469e+04
6.320000e+02 2.141904e+04
6.330000e+02 2.262524e+04
6.340000e+02 2.389496e+04
6.350000e+02 2.523132e+04
6.360000e+02 2.676941e+04
6.370000e+02 2.811692e+04
6.380000e+02 2.967316e+04
6.390000e+02 3.130988e+04
6.400000e+02 3.303095e+04
6.410000e+02 3.484044e+04
6.420000e+02 3.674256e+04
6.430000e+02 3.874149e+04
6.440000e+02 4.084177e+04
6.450000e+02 4.304898e+04
6.460000e+02 4.536697e+04
6.470000e+02 4.780258e+04
6.480000e+02 5.035876e+04
6.490000e+02 5.304308e+04
6.500000e+02 5.586100e+04
6.510000e+02 5.881864e+04
6.520000e+02 6.192238e+04
6.530000e+02 6.517892e+04
6.540000e+02 6.859519e+04
6.550000e+02 7.217845e+04
6.560000e+02 7.593624e+04
6.570000e+02 7.987864e+04
6.580000e+02 8.400728e+04
6.590000e+02 8.833061e+04
6.600000e+02 9.286752e+04
6.610000e+02 9.762223e+04
6.620000e+02 1.026039e+05
6.630000e+02 1.078227e+05
6.640000e+02 1.132881e+05
6.650000e+02 1.190134e+05
6.660000e+02 1.250062e+05
6.670000e+02 1.312840e+05
6.680000e+02 1.378522e+05
6.690000e+02 1.447258e+05
6.700000e+02 1.519190e+05
6.710000e+02 1.594491e+05
6.720000e+02 1.693214e+05
6.730000e+02 1.755496e+05
6.740000e+02 1.841603e+05
6.750000e+02 1.931639e+05
6.760000e+02 2.025762e+05
6.770000e+02 2.124158e+05
6.780000e+02 2.227000e+05
6.790000e+02 2.334470e+05
6.800000e+02 2.446764e+05
6.810000e+02 2.564077e+05
6.820000e+02 2.686619e+05
6.830000e+02 2.814600e+05
6.840000e+02 2.948022e+05
6.850000e+02 3.087559e+05
6.860000e+02 3.233226e+05
6.870000e+02 3.385384e+05
6.880000e+02 3.543973e+05
6.890000e+02 3.709596e+05
6.900000e+02 3.882395e+05
6.910000e+02 4.062618e+05
6.920000e+02 4.250464e+05
6.930000e+02 4.446561e+05
6.940000e+02 4.651053e+05
6.950000e+02 4.864270e+05
6.960000e+02 5.086557e+05
6.970000e+02 5.318504e+05
6.980000e+02 5.559768e+05
6.990000e+02 5.811438e+05
7.000000e+02 6.073671e+05
7.010000e+02 6.346911e+05
7.020000e+02 6.631511e+05
7.030000e+02 6.927941e+05
7.040000e+02 7.236652e+05
7.050000e+02 7.558110e+05
7.060000e+02 7.892806e+05
7.070000e+02 8.241214e+05
7.080000e+02 8.603202e+05
7.090000e+02 8.980644e+05
7.100000e+02 9.373372e+05
7.110000e+02 9.782029e+05
7.120000e+02 1.020718e+06
7.130000e+02 1.064944e+06
7.140000e+02 1.110943e+06
7.150000e+02 1.158781e+06
7.160000e+02 1.208525e+06
7.170000e+02 1.260256e+06
7.180000e+02 1.314066e+06
7.190000e+02 1.369904e+06
7.200000e+02 1.427992e+06
7.210000e+02 1.488358e+06
7.220000e+02 1.551085e+06
7.230000e+02 1.616239e+06
7.240000e+02 1.683939e+06
7.250000e+02 1.754261e+06
7.260000e+02 1.827297e+06
7.270000e+02 1.903142e+06
7.280000e+02 1.981895e+06
7.290000e+02 2.063659e+06
7.300000e+02 2.151811e+06
7.310000e+02 2.236460e+06
7.320000e+02 2.329223e+06
7.330000e+02 2.422789e+06
7.340000e+02 2.521242e+06
7.350000e+02 2.623537e+06
7.360000e+02 2.729368e+06
7.370000e+02 2.839270e+06
7.380000e+02 2.953270e+06
7.390000e+02 3.071531e+06
7.400000e+02 3.194132e+06
7.410000e+02 3.321219e+06
7.420000e+02 3.452998e+06
7.430000e+02 3.589570e+06
7.440000e+02 3.731137e+06
7.450000e+02 3.877850e+06
7.460000e+02 4.029879e+06
7.470000e+02 4.187441e+06
7.480000e+02 4.350598e+06
7.490000e+02 4.519653e+06
7.500000e+02 4.694833e+06
7.510000e+02 4.876116e+06
7.520000e+02 5.063922e+06
7.530000e+02 5.257953e+06
7.540000e+02 5.459278e+06
7.550000e+02 5.667728e+06
7.560000e+02 5.883446e+06
7.570000e+02 6.106889e+06
7.580000e+02 6.337852e+06
7.590000e+02 6.577070e+06
7.600000e+02 6.824498e+06
7.610000e+02 7.080493e+06
7.620000e+02 7.345326e+06
7.630000e+02 7.619284e+06
7.640000e+02 7.902634e+06
7.650000e+02 8.195675e+06
7.660000e+02 8.498693e+06
7.670000e+02 8.812010e+06
7.680000e+02 9.135695e+06
7.690000e+02 9.470397e+06
7.700000e+02 9.816526e+06
7.710000e+02 1.017428e+07
7.720000e+02 1.054401e+07
7.730000e+02 1.092607e+07
7.740000e+02 1.131988e+07
7.750000e+02 1.172772e+07
7.760000e+02 1.215065e+07
7.770000e+02 1.258426e+07
7.780000e+02 1.303377e+07
7.790000e+02 1.349802e+07
7.800000e+02 1.397745e+07
7.810000e+02 1.447248e+07
7.820000e+02 1.498360e+07
7.830000e+02 1.551156e+07
7.840000e+02 1.605622e+07
7.850000e+02 1.661847e+07
7.860000e+02 1.719878e+07
7.870000e+02 1.779770e+07
7.880000e+02 1.841569e+07
7.890000e+02 1.905333e+07
7.900000e+02 1.971131e+07
7.910000e+02 2.038988e+07
7.920000e+02 2.108993e+07
7.930000e+02 2.181012e+07
7.940000e+02 2.255482e+07
7.950000e+02 2.332269e+07
7.960000e+02 2.411454e+07
7.970000e+02 2.493100e+07
7.980000e+02 2.577282e+07
7.990000e+02 2.664051e+07
8.000000e+02 2.753499e+07
8.010000e+02 2.845729e+07
8.020000e+02 2.940785e+07
8.030000e+02 3.038718e+07
8.040000e+02 3.139609e+07
8.050000e+02 3.243575e+07
8.060000e+02 3.350686e+07
8.070000e+02 3.461030e+07
8.080000e+02 3.574694e+07
8.090000e+02 3.691769e+07
8.100000e+02 3.812349e+07
8.110000e+02 3.936532e+07
8.120000e+02 4.064234e+07
8.130000e+02 4.195892e+07
8.140000e+02 4.331441e+07
8.150000e+02 4.471050e+07
8.160000e+02 4.614635e+07
8.170000e+02 4.762528e+07
8.180000e+02 4.914696e+07
8.190000e+02 5.071316e+07
8.200000e+02 5.232490e+07
8.210000e+02 5.398333e+07
8.220000e+02 5.568971e+07
8.230000e+02 5.744556e+07
8.240000e+02 5.925128e+07
8.250000e+02 6.110903e+07
8.260000e+02 6.301990e+07
8.270000e+02 6.498518e+07
8.280000e+02 6.700631e+07
8.290000e+02 6.908472e+07
8.300000e+02 7.122188e+07
8.310000e+02 7.341922e+07
8.320000e+02 7.567829e+07
8.330000e+02 7.799734e+07
8.340000e+02 8.038430e+07
8.350000e+02 8.285106e+07
8.360000e+02 8.536159e+07
8.370000e+02 8.795195e+07
8.380000e+02 9.061518e+07
8.390000e+02 9.335149e+07
8.400000e+02 9.616318e+07
8.410000e+02 9.905226e+07
8.420000e+02 1.020386e+08
8.430000e+02 1.050680e+08
8.440000e+02 1.081992e+08
8.450000e+02 1.114153e+08
8.460000e+02 1.147185e+08
8.470000e+02 1.181101e+08
8.480000e+02 1.215935e+08
8.490000e+02 1.251694e+08
8.500000e+02 1.288411e+08
8.510000e+02 1.326108e+08
8.520000e+02 1.364814e+08
8.530000e+02 1.404541e+08
8.540000e+02 1.445295e+08
8.550000e+02 1.487141e+08
8.560000e+02 1.530086e+08
8.570000e+02 1.574156e+08
8.580000e+02 1.619404e+08
8.590000e+02 1.665802e+08
8.600000e+02 1.713420e+08
8.610000e+02 1.762259e+08
8.620000e+02 1.812361e+08
8.630000e+02 1.863758e+08
8.640000e+02 1.916466e+08
8.650000e+02 1.970534e+08
8.660000e+02 2.025975e+08
8.670000e+02 2.082833e+08
8.680000e+02 2.141137e+08
8.690000e+02 2.200919e+08
8.700000e+02 2.262244e+08
8.710000e+02 2.325051e+08
8.720000e+02 2.389470e+08
8.730000e+02 2.455504e+08
8.740000e+02 2.523188e+08
8.750000e+02 2.592561e+08
8.760000e+02 2.663660e+08
8.770000e+02 2.736526e+08
8.780000e+02 2.811185e+08
8.790000e+02 2.887690e+08
8.800000e+02 2.966081e+08
8.810000e+02 3.046389e+08
8.820000e+02 3.128669e+08
8.830000e+02 3.212976e+08
8.840000e+02 3.299313e+08
8.850000e+02 3.387744e+08
8.860000e+02 3.478363e+08
8.870000e+02 3.571079e+08
8.880000e+02 3.666072e+08
8.890000e+02 3.763347e+08
8.900000e+02 3.862952e+08
8.910000e+02 3.964748e+08
8.920000e+02 4.102865e+08
8.930000e+02 4.176045e+08
8.940000e+02 4.285474e+08
8.950000e+02 4.397518e+08
8.960000e+02 4.512122e+08
8.970000e+02 4.629465e+08
8.980000e+02 4.749559e+08
8.990000e+02 4.872463e+08
9.000000e+02 4.998232e+08
9.010000e+02 5.126924e+08
9.020000e+02 5.258604e+08
9.030000e+02 5.393332e+08
9.040000e+02 5.531701e+08
9.050000e+02 5.672203e+08
9.060000e+02 5.816436e+08
9.070000e+02 5.964388e+08
9.080000e+02 6.114898e+08
9.090000e+02 6.269354e+08
9.100000e+02 6.427215e+08
9.110000e+02 6.588630e+08
9.120000e+02 6.753597e+08
9.130000e+02 7.000797e+08
9.140000e+02 7.073694e+08
9.150000e+02 9.635825e+08
9.160000e+02 1.788806e+09
9.170000e+02 2.015371e+09
9.180000e+02 1.616131e+09
9.190000e+02 3.855677e+09
9.200000e+02 6.452206e+09
9.210000e+02 9.113007e+08
9.220000e+02 9.174579e+09
9.230000e+02 2.020659e+09
9.240000e+02 7.596935e+09
9.250000e+02 1.174313e+10
9.260000e+02 3.038576e+09
9.270000e+02 9.784215e+09
9.280000e+02 1.523805e+10
9.290000e+02 1.184623e+10
9.300000e+02 1.003632e+10
9.310000e+02 3.714255e+09
9.320000e+02 1.487608e+10
9.330000e+02 1.847591e+10
9.340000e+02 1.990173e+10
9.350000e+02 7.536920e+09
9.360000e+02 1.858015e+10
9.370000e+02 4.706822e+09
9.380000e+02 3.285188e+09
9.390000e+02 1.652946e+10
9.400000e+02 2.137559e+10
9.410000e+02 1.529967e+10
9.420000e+02 2.406600e+10
9.430000e+02 2.469391e+10
9.440000e+02 1.251781e+10
9.450000e+02 2.541757e+10
9.460000e+02 2.560480e+10
9.470000e+02 1.807175e+10
9.480000e+02 2.228882e+10
9.490000e+02 1.409024e+10
9.500000e+02 4.284606e+09
9.510000e+02 1.947552e+10
9.520000e+02 2.650630e+10
9.530000e+02 2.853021e+10
9.540000e+02 2.327257e+10
9.550000e+02 3.072579e+10
9.560000e+02 3.043983e+10
9.570000e+02 2.630649e+10
9.580000e+02 3.234006e+10
9.590000e+02 3.333488e+10
9.600000e+02 7.726653e+09
9.610000e+02 3.457754e+10
9.620000e+02 3.440114e+10
9.630000e+02 3.571048e+10
9.640000e+02 2.268699e+09
9.650000e+02 3.233964e+10
9.660000e+02 3.729039e+10
9.670000e+02 3.754029e+10
9.680000e+02 3.709385e+10
9.690000e+02 3.753951e+10
9.700000e+02 3.652718e+10
9.710000e+02 3.180622e+10
9.720000e+02 1.526533e+10
9.730000e+02 1.363925e+10
9.740000e+02 3.262807e+10
9.750000e+02 3.940485e+10
9.760000e+02 4.228763e+10
9.770000e+02 4.379580e+10
9.780000e+02 4.490638e+10
9.790000e+02 4.595266e+10
9.800000e+02 4.684869e+10
9.810000e+02 4.768187e+10
9.820000e+02 4.736046e+10
9.830000e+02 4.926634e+10
9.840000e+02 1.386782e+10
9.850000e+02 5.092492e+10
9.860000e+02 5.172272e+10
9.870000e+02 5.233240e+10
9.880000e+02 5.182033e+10
9.890000e+02 2.767619e+10
9.900000e+02 4.505397e+09
9.910000e+02 5.522573e+10
9.920000e+02 5.181126e+10
9.930000e+02 5.380097e+10
9.940000e+02 7.816122e+09
9.950000e+02 9.417248e+09
9.960000e+02 8.349864e+09
9.970000e+02 1.093962e+10
9.980000e+02 6.194149e+10
9.990000e+02 6.099764e+10
1.000000e+03 6.407340e+10
1.001000e+03 6.508755e+10
1.002000e+03 6.595618e+10
1.003000e+03 4.823402e+10
1.004000e+03 6.804715e+10
1.005000e+03 5.394134e+10
1.006000e+03 7.006609e+10
1.007000e+03 7.109322e+10
1.008000e+03 7.203959e+10
1.009000e+03 6.531955e+10
1.010000e+03 7.421885e+10
1.011000e+03 7.529018e+10
1.012000e+03 7.624181e+10
1.013000e+03 7.739630e+10
1.014000e+03 7.849974e+10
1.015000e+03 7.644443e+10
1.016000e+03 8.034492e+10
1.017000e+03 8.157592e+10
1.018000e+03 8.246700e+10
1.019000e+03 8.331425e+10
1.020000e+03 8.382135e+10
1.021000e+03 6.737782e+10
1.022000e+03 8.125833e+10
1.023000e+03 8.026599e+10
1.024000e+03 6.869548e+10
1.025000e+03 3.677021e+10
1.026000e+03 1.558941e+10
1.027000e+03 6.046285e+10
1.028000e+03 2.722269e+10
1.029000e+03 9.115673e+10
1.030000e+03 9.227127e+10
1.031000e+03 9.898340e+10
1.032000e+03 9.790274e+10
1.033000e+03 5.938528e+10
1.034000e+03 1.053046e+11
1.035000e+03 2.231082e+10
1.036000e+03 1.064026e+11
1.037000e+03 1.019619e+10
1.038000e+03 1.119611e+11
1.039000e+03 1.107470e+11
1.040000e+03 1.153551e+11
1.041000e+03 1.164950e+11
1.042000e+03 1.032481e+11
1.043000e+03 1.185655e+11
1.044000e+03 1.198402e+11
1.045000e+03 1.234056e+11
1.046000e+03 1.252675e+11
1.047000e+03 1.269087e+11
1.048000e+03 1.232891e+11
1.049000e+03 1.289208e+11
1.050000e+03 1.325922e+11
1.051000e+03 1.344044e+11
1.052000e+03 1.362085e+11
1.053000e+03 1.270498e+11
1.054000e+03 1.397999e+11
1.055000e+03 1.417266e+11
1.056000e+03 1.437354e+11
1.057000e+03 1.452973e+11
1.058000e+03 1.474044e+11
1.059000e+03 1.495016e+11
1.060000e+03 1.515473e+11
1.061000e+03 1.535752e+11
1.062000e+03 1.555817e+11
1.063000e+03 9.470398e+10
1.064000e+03 2.925145e+10
1.065000e+03 1.687173e+11
1.066000e+03 1.641693e+11
1.067000e+03 1.413704e+11
1.068000e+03 1.757768e+11
1.069000e+03 1.780974e+11
1.070000e+03 1.652078e+11
1.071000e+03 1.831245e+11
1.072000e+03 1.853479e+11
1.073000e+03 1.878944e+11
1.074000e+03 1.901564e+11
1.075000e+03 1.920417e+11
1.076000e+03 1.951396e+11
1.077000e+03 1.966667e+11
1.078000e+03 1.998943e+11
1.079000e+03 2.007744e+11
1.080000e+03 2.040940e+11
1.081000e+03 2.079225e+11
1.082000e+03 2.104299e+11
1.083000e+03 2.127248e+11
1.084000e+03 1.132778e+11
1.085000e+03 1.730668e+11
1.086000e+03 2.213746e+11
1.087000e+03 2.237192e+11
1.088000e+03 2.258485e+11
1.089000e+03 2.290884e+11
1.090000e+03 2.312372e+11
1.091000e+03 2.353931e+11
1.092000e+03 2.383084e+11
1.093000e+03 2.409736e+11
1.094000e+03 2.442593e+11
1.095000e+03 2.457749e+11
1.096000e+03 2.499961e+11
1.097000e+03 2.507596e+11
1.098000e+03 2.422233e+11
1.099000e+03 2.582252e+11
1.100000e+03 2.579852e+11
1.101000e+03 2.452331e+11
1.102000e+03 4.664364e+11
1.103000e+03 1.026773e+12
1.104000e+03 5.257891e+11
1.105000e+03 2.576993e+11
1.106000e+03 1.715575e+12
1.107000e+03 1.677914e+12
1.108000e+03 1.753745e+12
1.109000e+03 9.787288e+11
1.110000e+03 2.777172e+11
1.111000e+03 5.016861e+11
1.112000e+03 1.626345e+12
1.113000e+03 1.840716e+12
1.114000e+03 1.955723e+11
1.115000e+03 1.821014e+12
1.116000e+03 1.874907e+12
1.117000e+03 2.142440e+11
1.118000e+03 1.628888e+12
1.119000e+03 1.917443e+12
1.120000e+03 1.950143e+12
1.121000e+03 1.317027e+12
1.122000e+03 4.577349e+10
1.123000e+03 3.936516e+11
1.124000e+03 1.997953e+12
1.125000e+03 7.591352e+11
1.126000e+03 2.049246e+12
1.127000e+03 2.002142e+12
1.128000e+03 1.034953e+12
1.129000e+03 2.077855e+12
1.130000e+03 1.293332e+12
1.131000e+03 2.168253e+12
1.132000e+03 1.240423e+11
1.133000e+03 2.038244e+12
1.134000e+03 2.181321e+12
1.135000e+03 6.760799e+10
1.136000e+03 2.147861e+12
1.137000e+03 2.298493e+12
1.138000e+03 2.336047e+12
1.139000e+03 2.302539e+12
1.140000e+03 8.958496e+10
1.141000e+03 2.400663e+12
1.142000e+03 2.001599e+12
1.143000e+03 2.426928e+12
1.144000e+03 2.458796e+12
1.145000e+03 2.109547e+12
1.146000e+03 2.471824e+12
1.147000e+03 2.494607e+12
1.148000e+03 2.524872e+12
1.149000e+03 2.571591e+12
1.150000e+03 2.365805e+12
1.151000e+03 2.600632e+12
1.152000e+03 2.562557e+12
1.153000e+03 6.491918e+11
1.154000e+03 1.669511e+11
1.155000e+03 2.209892e+12
1.156000e+03 1.028274e+12
1.157000e+03 2.746818e+12
1.158000e+03 1.233903e+11
1.159000e+03 2.421713e+12
1.160000e+03 2.714229e+12
1.161000e+03 2.858951e+12
1.162000e+03 3.952335e+11
1.163000e+03 2.585291e+12
1.164000e+03 2.191938e+11
1.165000e+03 2.952556e+12
1.166000e+03 2.863375e+12
1.167000e+03 2.454874e+12
1.168000e+03 3.024106e+12
1.169000e+03 2.957639e+12
1.170000e+03 3.082489e+12
1.171000e+03 3.106493e+12
1.172000e+03 2.716490e+12
1.173000e+03 3.128782e+12
1.174000e+03 2.989928e+12
1.175000e+03 2.191241e+11
1.176000e+03 1.522823e+11
1.177000e+03 3.096436e+12
1.178000e+03 2.651293e+12
1.179000e+03 3.257087e+12
1.180000e+03 2.335966e+12
1.181000e+03 3.160366e+12
1.182000e+03 3.336013e+12
1.183000e+03 3.344853e+12
1.184000e+03 3.367382e+12
1.185000e+03 3.022853e+12
1.186000e+03 3.384664e+12
1.187000e+03 3.397172e+12
1.188000e+03 2.978002e+12
1.189000e+03 1.591306e+11
1.190000e+03 8.574686e+11
1.191000e+03 3.286390e+12
1.192000e+03 3.331485e+12
1.193000e+03 1.209569e+11
1.194000e+03 1.822700e+11
1.195000e+03 1.469584e+12
1.196000e+03 3.258469e+12
1.197000e+03 3.335332e+12
1.198000e+03 3.401864e+12
1.199000e+03 3.322369e+12
1.200000e+03 3.048632e+12
1.201000e+03 3.116625e+12
1.202000e+03 3.056777e+12
1.203000e+03 3.040258e+12
1.204000e+03 2.797657e+12
1.205000e+03 2.661141e+12
1.206000e+03 1.785804e+12
1.207000e+03 1.414013e+12
1.208000e+03 1.932007e+12
1.209000e+03 1.475516e+12
1.210000e+03 2.572690e+11
1.211000e+03 1.025121e+12
1.212000e+03 7.302758e+11
1.213000e+03 4.812687e+11
1.214000e+03 2.915008e+11
1.215000e+03 1.799229e+11
1.216000e+03 1.611192e+11
1.217000e+03 2.524458e+11
1.218000e+03 4.312247e+11
1.219000e+03 6.926100e+11
1.220000e+03 1.015486e+12
1.221000e+03 1.374938e+12
1.222000e+03 1.752844e+12
1.223000e+03 2.132835e+12
1.224000e+03 2.503644e+12
1.225000e+03 2.855471e+12
1.226000e+03 3.141356e+12
1.227000e+03 3.501145e+12
1.228000e+03 3.839500e+12
1.229000e+03 4.069324e+12
1.230000e+03 4.350155e+12
1.231000e+03 4.644721e+12
1.232000e+03 4.891057e+12
1.233000e+03 5.117620e+12
1.234000e+03 3.874953e+12
1.235000e+03 5.484674e+12
1.236000e+03 5.717301e+12
1.237000e+03 5.863253e+12
1.238000e+03 6.058898e+12
1.239000e+03 6.229866e+12
1.240000e+03 5.924835e+12
1.241000e+03 9.055487e+12
1.242000e+03 5.818060e+12
1.243000e+03 7.698131e+12
1.244000e+03 3.891693e+12
1.245000e+03 5.433132e+12
1.246000e+03 1.164448e+13
1.247000e+03 1.267474e+13
1.248000e+03 4.181658e+12
1.249000e+03 4.971522e+12
1.250000e+03 1.414210e+13
1.251000e+03 1.414522e+13
1.252000e+03 1.369220e+13
1.253000e+03 1.578552e+13
1.254000e+03 1.611320e+13
1.255000e+03 1.596651e+13
1.256000e+03 1.606391e+13
1.257000e+03 1.758774e+13
1.258000e+03 1.761411e+13
1.259000e+03 1.703457e+13
1.260000e+03 1.521095e+13
1.261000e+03 3.080353e+11
1.262000e+03 2.661280e+12
1.263000e+03 1.972877e+13
1.264000e+03 1.803724e+13
1.265000e+03 2.871693e+11
1.266000e+03 2.089960e+13
1.267000e+03 2.241690e+13
