# wavelength_A flux
5.000000e+02 1.269164e-21
5.010000e+02 1.528351e-21
5.020000e+02 1.839083e-21
5.030000e+02 2.211332e-21
5.040000e+02 2.656957e-21
5.050000e+02 3.703694e-21
5.060000e+02 4.438729e-21
5.070000e+02 5.315804e-21
5.080000e+02 6.361624e-21
5.090000e+02 7.607772e-21
5.100000e+02 9.091578e-21
5.110000e+02 1.085713e-20
5.120000e+02 1.295648e-20
5.130000e+02 1.545099e-20
5.140000e+02 1.841302e-20
5.150000e+02 2.192700e-20
5.160000e+02 2.609560e-20
5.170000e+02 3.102880e-20
5.180000e+02 3.688312e-20
5.190000e+02 4.380449e-20
5.200000e+02 5.198982e-20
5.210000e+02 6.166294e-20
5.220000e+02 7.303926e-20
5.230000e+02 8.657195e-20
5.240000e+02 1.024814e-19
5.250000e+02 1.212350e-19
5.260000e+02 1.433251e-19
5.270000e+02 1.693312e-19
5.280000e+02 1.999283e-19
5.290000e+02 2.356467e-19
5.300000e+02 2.781779e-19
5.310000e+02 3.278210e-19
5.320000e+02 3.860820e-19
5.330000e+02 4.544146e-19
5.340000e+02 5.345104e-19
5.350000e+02 6.283341e-19
5.360000e+02 7.381468e-19
5.370000e+02 8.061931e-19
5.380000e+02 1.016870e-18
5.390000e+02 1.192635e-18
5.400000e+02 1.397781e-18
5.410000e+02 1.636461e-18
5.420000e+02 1.916463e-18
5.430000e+02 2.242239e-18
5.440000e+02 2.621720e-18
5.450000e+02 3.063644e-18
5.460000e+02 3.575163e-18
5.470000e+02 4.176290e-18
5.480000e+02 4.871843e-18
5.490000e+02 5.680024e-18
5.500000e+02 6.618522e-18
5.510000e+02 7.707751e-18
5.520000e+02 8.971220e-18
5.530000e+02 1.043599e-17
5.540000e+02 1.213321e-17
5.550000e+02 1.409869e-17
5.560000e+02 1.637360e-17
5.570000e+02 1.900524e-17
5.580000e+02 2.204790e-17
5.590000e+02 2.556390e-17
5.600000e+02 2.962474e-17
5.610000e+02 3.431236e-17
5.620000e+02 3.972066e-17
5.630000e+02 4.595718e-17
5.640000e+02 5.314502e-17
5.650000e+02 6.142498e-17
5.660000e+02 7.095821e-17
5.670000e+02 8.192867e-17
5.680000e+02 9.454666e-17
5.690000e+02 1.090523e-16
5.700000e+02 1.257194e-16
5.710000e+02 1.448608e-16
5.720000e+02 1.668326e-16
5.730000e+02 1.920410e-16
5.740000e+02 2.209483e-16
5.750000e+02 2.541044e-16
5.760000e+02 2.919824e-16
5.770000e+02 3.355322e-16
5.780000e+02 3.852805e-16
5.790000e+02 4.421902e-16
5.800000e+02 5.072605e-16
5.810000e+02 5.816249e-16
5.820000e+02 6.665656e-16
5.830000e+02 7.635058e-16
5.840000e+02 8.727733e-16
5.850000e+02 1.000139e-15
5.860000e+02 1.144481e-15
5.870000e+02 1.308623e-15
5.880000e+02 1.495568e-15
5.890000e+02 1.708390e-15
5.900000e+02 1.950669e-15
5.910000e+02 2.226248e-15
5.920000e+02 2.539607e-15
5.930000e+02 2.895764e-15
5.940000e+02 3.300387e-15
5.950000e+02 3.759866e-15
5.960000e+02 4.281411e-15
5.970000e+02 4.873144e-15
5.980000e+02 5.544221e-15
5.990000e+02 6.304950e-15
6.000000e+02 7.166936e-15
6.010000e+02 8.143211e-15
6.020000e+02 9.248544e-15
6.030000e+02 1.049937e-14
6.040000e+02 1.191427e-14
6.050000e+02 1.351410e-14
6.060000e+02 1.532221e-14
6.070000e+02 1.736507e-14
6.080000e+02 1.967198e-14
6.090000e+02 2.227607e-14
6.100000e+02 2.521442e-14
6.110000e+02 2.852858e-14
6.120000e+02 3.226510e-14
6.130000e+02 3.647610e-14
6.140000e+02 4.121992e-14
6.150000e+02 4.656184e-14
6.160000e+02 5.257488e-14
6.170000e+02 5.934067e-14
6.180000e+02 6.695042e-14
6.190000e+02 7.550602e-14
6.200000e+02 8.512141e-14
6.210000e+02 9.592351e-14
6.220000e+02 1.080542e-13
6.230000e+02 1.216715e-13
6.240000e+02 1.369518e-13
6.250000e+02 1.540918e-13
6.260000e+02 1.733103e-13
6.270000e+02 1.948513e-13
6.280000e+02 2.189865e-13
6.290000e+02 2.460181e-13
6.300000e+02 2.762823e-13
6.310000e+02 3.090949e-13
6.320000e+02 3.480471e-13
6.330000e+02 3.904170e-13
6.340000e+02 4.378022e-13
6.350000e+02 4.907046e-13
6.360000e+02 5.498938e-13
6.370000e+02 6.159453e-13
6.380000e+02 6.896800e-13
6.390000e+02 7.719628e-13
6.400000e+02 8.637522e-13
6.410000e+02 9.661102e-13
6.420000e+02 1.080214e-12
6.430000e+02 1.207365e-12
6.440000e+02 1.349009e-12
6.450000e+02 1.506740e-12
6.460000e+02 1.682327e-12
6.470000e+02 1.877722e-12
6.480000e+02 2.095087e-12
6.490000e+02 2.336808e-12
6.500000e+02 2.605520e-12
6.510000e+02 2.904151e-12
6.520000e+02 3.235903e-12
6.530000e+02 3.604334e-12
6.540000e+02 4.013360e-12
6.550000e+02 4.467310e-12
6.560000e+02 4.970946e-12
6.570000e+02 5.529306e-12
6.580000e+02 6.148834e-12
6.590000e+02 6.835260e-12
6.600000e+02 7.595823e-12
6.610000e+02 8.438268e-12
6.620000e+02 9.371103e-12
6.630000e+02 1.040370e-11
6.640000e+02 1.154636e-11
6.650000e+02 1.281040e-11
6.660000e+02 1.420833e-11
6.670000e+02 1.575379e-11
6.680000e+02 1.746183e-11
6.690000e+02 1.934898e-11
6.700000e+02 2.143334e-11
6.710000e+02 2.373488e-11
6.720000e+02 2.627539e-11
6.730000e+02 2.907883e-11
6.740000e+02 3.217149e-11
6.750000e+02 3.558217e-11
6.760000e+02 3.934243e-11
6.770000e+02 4.348687e-11
6.780000e+02 4.805337e-11
6.790000e+02 5.308341e-11
6.800000e+02 5.862242e-11
6.810000e+02 6.472010e-11
6.820000e+02 7.143081e-11
6.830000e+02 7.881405e-11
6.840000e+02 8.693483e-11
6.850000e+02 9.586424e-11
6.860000e+02 1.056800e-10
6.870000e+02 1.164670e-10
6.880000e+02 1.283178e-10
6.890000e+02 1.413339e-10
6.900000e+02 1.556256e-10
6.910000e+02 1.713136e-10
6.920000e+02 1.885294e-10
6.930000e+02 2.074165e-10
6.940000e+02 2.281315e-10
6.950000e+02 2.508449e-10
6.960000e+02 2.757427e-10
6.970000e+02 3.030123e-10
6.980000e+02 3.329196e-10
6.990000e+02 3.656597e-10
7.000000e+02 4.015093e-10
7.010000e+02 4.407529e-10
7.020000e+02 4.837006e-10
7.030000e+02 5.306892e-10
7.040000e+02 5.820852e-10
7.050000e+02 6.382871e-10
7.060000e+02 6.997282e-10
7.070000e+02 7.668789e-10
7.080000e+02 8.402509e-10
7.090000e+02 9.203990e-10
7.100000e+02 1.007928e-09
7.110000e+02 1.103490e-09
7.120000e+02 1.207798e-09
7.130000e+02 1.321622e-09
7.140000e+02 1.445799e-09
7.150000e+02 1.581235e-09
7.160000e+02 1.728914e-09
7.170000e+02 1.889892e-09
7.180000e+02 2.065293e-09
7.190000e+02 2.256526e-09
7.200000e+02 2.464769e-09
7.210000e+02 2.691553e-09
7.220000e+02 2.938467e-09
7.230000e+02 3.207234e-09
7.240000e+02 3.499714e-09
7.250000e+02 3.817921e-09
7.260000e+02 4.164036e-09
7.270000e+02 4.540414e-09
7.280000e+02 4.949603e-09
7.290000e+02 5.394356e-09
7.300000e+02 5.877650e-09
7.310000e+02 6.402698e-09
7.320000e+02 6.972972e-09
7.330000e+02 7.592224e-09
7.340000e+02 8.264498e-09
7.350000e+02 8.994167e-09
7.360000e+02 9.785914e-09
7.370000e+02 1.064492e-08
7.380000e+02 1.157658e-08
7.390000e+02 1.258683e-08
7.400000e+02 1.368205e-08
7.410000e+02 1.486916e-08
7.420000e+02 1.615551e-08
7.430000e+02 1.754914e-08
7.440000e+02 1.905861e-08
7.450000e+02 2.069319e-08
7.460000e+02 2.246287e-08
7.470000e+02 2.437839e-08
7.480000e+02 2.645128e-08
7.490000e+02 2.869400e-08
7.500000e+02 3.111992e-08
7.510000e+02 3.374343e-08
7.520000e+02 3.658000e-08
7.530000e+02 3.964627e-08
7.540000e+02 4.296012e-08
7.550000e+02 4.654077e-08
7.560000e+02 5.040886e-08
7.570000e+02 5.458633e-08
7.580000e+02 5.909773e-08
7.590000e+02 6.396760e-08
7.600000e+02 6.922457e-08
7.610000e+02 7.489723e-08
7.620000e+02 8.101747e-08
7.630000e+02 8.761920e-08
7.640000e+02 9.473884e-08
7.650000e+02 1.024154e-07
7.660000e+02 1.106908e-07
7.670000e+02 1.196099e-07
7.680000e+02 1.292196e-07
7.690000e+02 1.395553e-07
7.700000e+02 1.507278e-07
7.710000e+02 1.627384e-07
7.720000e+02 1.756699e-07
7.730000e+02 1.895903e-07
7.740000e+02 2.045721e-07
7.750000e+02 2.206931e-07
7.760000e+02 2.380295e-07
7.770000e+02 2.566913e-07
7.780000e+02 2.767528e-07
7.790000e+02 2.983225e-07
7.800000e+02 3.215095e-07
7.810000e+02 3.464303e-07
7.820000e+02 3.732090e-07
7.830000e+02 4.019788e-07
7.840000e+02 4.328817e-07
7.850000e+02 4.660696e-07
7.860000e+02 5.017043e-07
7.870000e+02 5.399637e-07
7.880000e+02 5.810240e-07
7.890000e+02 6.250867e-07
7.900000e+02 6.723624e-07
7.910000e+02 7.230759e-07
7.920000e+02 7.774670e-07
7.930000e+02 8.357915e-07
7.940000e+02 8.983222e-07
7.950000e+02 9.653501e-07
7.960000e+02 1.037185e-06
7.970000e+02 1.114159e-06
7.980000e+02 1.196623e-06
7.990000e+02 1.284953e-06
8.000000e+02 1.379549e-06
8.010000e+02 1.480838e-06
8.020000e+02 1.589273e-06
8.030000e+02 1.705338e-06
8.040000e+02 1.829548e-06
8.050000e+02 1.962449e-06
8.060000e+02 2.104626e-06
8.070000e+02 2.256699e-06
8.080000e+02 2.419328e-06
8.090000e+02 2.593216e-06
8.100000e+02 2.779108e-06
8.110000e+02 2.977800e-06
8.120000e+02 3.190135e-06
8.130000e+02 3.417012e-06
8.140000e+02 3.659384e-06
8.150000e+02 3.918264e-06
8.160000e+02 4.194736e-06
8.170000e+02 4.489936e-06
8.180000e+02 4.805083e-06
8.190000e+02 5.141469e-06
8.200000e+02 5.500463e-06
8.210000e+02 5.883522e-06
8.220000e+02 6.292189e-06
8.230000e+02 6.728104e-06
8.240000e+02 7.193008e-06
8.250000e+02 7.688746e-06
8.260000e+02 8.217276e-06
8.270000e+02 8.780673e-06
8.280000e+02 9.381141e-06
8.290000e+02 1.002101e-05
8.300000e+02 1.070277e-05
8.310000e+02 1.142903e-05
8.320000e+02 1.220257e-05
8.330000e+02 1.302635e-05
8.340000e+02 1.390348e-05
8.350000e+02 1.483298e-05
8.360000e+02 1.583097e-05
8.370000e+02 1.688903e-05
8.380000e+02 1.801465e-05
8.390000e+02 1.921222e-05
8.400000e+02 2.048615e-05
8.410000e+02 2.184109e-05
8.420000e+02 2.328107e-05
8.430000e+02 2.481399e-05
8.440000e+02 2.644269e-05
8.450000e+02 2.817389e-05
8.460000e+02 3.001376e-05
8.470000e+02 3.196883e-05
8.480000e+02 3.404598e-05
8.490000e+02 3.625251e-05
8.500000e+02 3.859612e-05
8.510000e+02 4.108497e-05
8.520000e+02 4.372760e-05
8.530000e+02 4.653323e-05
8.540000e+02 4.951177e-05
8.550000e+02 5.267256e-05
8.560000e+02 5.602671e-05
8.570000e+02 5.958553e-05
8.580000e+02 6.334901e-05
8.590000e+02 6.736560e-05
8.600000e+02 7.161273e-05
8.610000e+02 7.611518e-05
8.620000e+02 8.089138e-05
8.630000e+02 8.595328e-05
8.640000e+02 9.131864e-05
8.650000e+02 9.700478e-05
8.660000e+02 1.030301e-04
8.670000e+02 1.094138e-04
8.680000e+02 1.161763e-04
8.690000e+02 1.233391e-04
8.700000e+02 1.309240e-04
8.710000e+02 1.389571e-04
8.720000e+02 1.474613e-04
8.730000e+02 1.564638e-04
8.740000e+02 1.659925e-04
8.750000e+02 1.760767e-04
8.760000e+02 1.867474e-04
8.770000e+02 1.980369e-04
8.780000e+02 2.099800e-04
8.790000e+02 2.226125e-04
8.800000e+02 2.359719e-04
8.810000e+02 2.500992e-04
8.820000e+02 2.650356e-04
8.830000e+02 2.808255e-04
8.840000e+02 2.975156e-04
8.850000e+02 3.151550e-04
8.860000e+02 3.337948e-04
8.870000e+02 3.534894e-04
8.880000e+02 3.742956e-04
8.890000e+02 3.962734e-04
8.900000e+02 4.194857e-04
8.910000e+02 4.439985e-04
8.920000e+02 4.694033e-04
8.930000e+02 4.972073e-04
8.940000e+02 5.260530e-04
8.950000e+02 5.564992e-04
8.960000e+02 5.886304e-04
8.970000e+02 6.225355e-04
8.980000e+02 6.583079e-04
8.990000e+02 6.960459e-04
9.000000e+02 7.358519e-04
9.010000e+02 7.778345e-04
9.020000e+02 8.221063e-04
9.030000e+02 8.687837e-04
9.040000e+02 9.180015e-04
9.050000e+02 9.698812e-04
9.060000e+02 1.024563e-03
9.070000e+02 1.082184e-03
9.080000e+02 1.142916e-03
9.090000e+02 1.206897e-03
9.100000e+02 1.274301e-03
9.110000e+02 1.345306e-03
9.120000e+02 1.420138e-03
9.130000e+02 1.475867e-03
9.140000e+02 1.884103e-03
9.150000e+02 2.765086e+00
9.160000e+02 1.081867e+01
9.170000e+02 1.110588e+00
9.180000e+02 8.195164e+00
9.190000e+02 2.659796e+01
9.200000e+02 3.596601e+01
9.210000e+02 2.264393e-03
9.220000e+02 2.468993e+01
9.230000e+02 1.796088e+00
9.240000e+02 2.126381e+00
9.250000e+02 8.201845e+00
9.260000e+02 2.149989e+01
9.270000e+02 1.244678e+00
9.280000e+02 5.359392e+01
9.290000e+02 5.087905e+01
9.300000e+02 5.414314e+01
9.310000e+02 1.397977e+00
9.320000e+02 6.356490e+01
9.330000e+02 2.504230e+01
9.340000e+02 1.203767e+01
9.350000e+02 9.489772e-02
9.360000e+02 2.023696e+00
9.370000e+02 4.107887e-02
9.380000e+02 4.866508e+00
9.390000e+02 3.944798e+00
9.400000e+02 7.401309e+01
9.410000e+02 4.690213e+00
9.420000e+02 9.163732e+01
9.430000e+02 5.778828e+00
9.440000e+02 8.128276e+01
9.450000e+02 1.007916e+02
9.460000e+02 5.321069e+01
9.470000e+02 4.034557e-01
9.480000e+02 9.619103e+01
9.490000e+02 9.699176e+01
9.500000e+02 3.808098e-01
9.510000e+02 4.815250e+01
9.520000e+02 6.538803e+01
9.530000e+02 1.064583e+00
9.540000e+02 4.264134e-01
9.550000e+02 1.686300e+01
9.560000e+02 1.429561e+02
9.570000e+02 3.913204e+00
9.580000e+02 1.392307e-01
9.590000e+02 1.532276e+02
9.600000e+02 1.257782e-01
9.610000e+02 6.378571e+01
9.620000e+02 2.934415e+01
9.630000e+02 1.641457e+01
9.640000e+02 3.459549e-02
9.650000e+02 9.267578e-01
9.660000e+02 1.781407e+01
9.670000e+02 3.682358e+00
9.680000e+02 1.830093e+00
9.690000e+02 6.176175e+01
9.700000e+02 5.018769e+01
9.710000e+02 4.011477e+00
9.720000e+02 4.992828e+00
9.730000e+02 1.256369e+02
9.740000e+02 7.483567e+01
9.750000e+02 2.742841e+01
9.760000e+02 2.152997e+02
9.770000e+02 1.635614e+02
9.780000e+02 7.259188e+01
9.790000e+02 3.422271e+02
9.800000e+02 3.524842e+02
9.810000e+02 7.878696e+01
9.820000e+02 1.568521e+01
9.830000e+02 3.473820e+02
9.840000e+02 1.342368e+01
9.850000e+02 4.550649e+01
9.860000e+02 5.229939e+01
9.870000e+02 4.058993e+02
9.880000e+02 1.651276e+00
9.890000e+02 1.682150e+02
9.900000e+02 1.500330e+00
9.910000e+02 8.534227e+00
9.920000e+02 4.850080e-01
9.930000e+02 4.808022e+02
9.940000e+02 1.621475e-01
9.950000e+02 2.160283e+01
9.960000e+02 4.537109e+00
9.970000e+02 1.208060e+01
9.980000e+02 3.449629e+02
9.990000e+02 1.285071e+01
1.000000e+03 6.733462e+02
1.001000e+03 7.604678e+02
1.002000e+03 7.240370e+02
1.003000e+03 2.824307e+01
1.004000e+03 2.877869e+00
1.005000e+03 6.364459e+01
1.006000e+03 7.434642e+02
1.007000e+03 8.784993e+02
1.008000e+03 6.146753e+02
1.009000e+03 4.332462e+01
1.010000e+03 6.640166e+02
1.011000e+03 8.846824e+02
1.012000e+03 7.123957e+02
1.013000e+03 6.574125e+02
1.014000e+03 1.062653e+00
1.015000e+03 3.205750e+00
1.016000e+03 5.921399e+01
1.017000e+03 1.074219e+00
1.018000e+03 4.289258e+01
1.019000e+03 3.280640e+00
1.020000e+03 1.265430e+03
1.021000e+03 2.744824e+01
1.022000e+03 5.786304e+01
1.023000e+03 5.369019e+00
1.024000e+03 1.095609e+03
1.025000e+03 1.201975e+00
1.026000e+03 1.517791e+01
1.027000e+03 3.185902e+02
1.028000e+03 1.927307e+00
1.029000e+03 1.867798e+00
1.030000e+03 3.617294e+02
1.031000e+03 2.418077e+02
1.032000e+03 1.175046e+03
1.033000e+03 1.641516e+01
1.034000e+03 4.723162e+02
1.035000e+03 1.392334e+00
1.036000e+03 2.880615e+00
1.037000e+03 1.333954e+03
1.038000e+03 2.372698e+03
1.039000e+03 1.528016e+03
1.040000e+03 1.738094e+03
1.041000e+03 2.780753e+03
1.042000e+03 2.498393e+03
1.043000e+03 2.048664e+03
1.044000e+03 3.194444e+03
1.045000e+03 2.023934e+03
1.046000e+03 2.341350e+03
1.047000e+03 6.829028e+02
1.048000e+03 2.949133e+01
1.049000e+03 1.017425e+03
1.050000e+03 4.924419e+02
1.051000e+03 2.661726e+02
1.052000e+03 2.981773e+03
1.053000e+03 3.850094e+03
1.054000e+03 4.658447e+00
1.055000e+03 4.286474e+03
1.056000e+03 4.381944e+03
1.057000e+03 1.500539e+03
1.058000e+03 3.768176e+02
1.059000e+03 1.302366e+02
1.060000e+03 4.414771e+01
1.061000e+03 1.996602e+03
1.062000e+03 1.840956e+02
1.063000e+03 5.156735e+02
1.064000e+03 3.087402e+00
1.065000e+03 7.589844e+00
1.066000e+03 2.477358e+03
1.067000e+03 9.236749e+01
1.068000e+03 6.603282e+03
1.069000e+03 2.663925e+01
1.070000e+03 1.883682e+03
1.071000e+03 6.485913e+03
1.072000e+03 6.757659e+03
1.073000e+03 1.357324e+01
1.074000e+03 1.549425e+03
1.075000e+03 9.975010e+02
1.076000e+03 7.771085e+03
1.077000e+03 4.236475e+01
1.078000e+03 3.749824e+02
1.079000e+03 1.364299e+03
1.080000e+03 2.462507e+03
1.081000e+03 4.946487e+03
1.082000e+03 4.204035e+03
1.083000e+03 2.894212e+03
1.084000e+03 1.054348e+04
1.085000e+03 1.027426e+03
1.086000e+03 1.091516e+04
1.087000e+03 2.114404e+02
1.088000e+03 1.200493e+04
1.089000e+03 1.233642e+04
1.090000e+03 8.151572e+02
1.091000e+03 9.172227e+02
1.092000e+03 1.269129e+04
1.093000e+03 1.312499e+04
1.094000e+03 6.416463e+03
1.095000e+03 1.443236e+04
1.096000e+03 2.039021e+03
1.097000e+03 9.319982e+03
1.098000e+03 1.545684e+04
1.099000e+03 3.102742e+03
1.100000e+03 9.247540e+01
1.101000e+03 2.251125e+02
1.102000e+03 1.383429e+03
1.103000e+03 1.984182e+04
1.104000e+03 2.055555e+04
1.105000e+03 1.798153e+04
1.106000e+03 5.929831e+03
1.107000e+03 9.176953e+01
1.108000e+03 1.550118e+04
1.109000e+03 7.805254e+02
1.110000e+03 2.082333e+04
1.111000e+03 2.095057e+04
1.112000e+03 1.129915e+04
1.113000e+03 2.203142e+04
1.114000e+03 7.566840e+03
1.115000e+03 1.388898e+03
1.116000e+03 8.554637e+02
1.117000e+03 1.743088e+04
1.118000e+03 1.179472e+03
1.119000e+03 1.532989e+04
1.120000e+03 8.588359e+02
1.121000e+03 2.398995e+04
1.122000e+03 9.253184e+02
1.123000e+03 2.681077e+04
1.124000e+03 2.887148e+04
1.125000e+03 2.229574e+04
1.126000e+03 3.597411e+04
1.127000e+03 3.048125e+04
1.128000e+03 2.054861e+04
1.129000e+03 2.095386e+04
1.130000e+03 3.434802e+04
1.131000e+03 3.478585e+04
1.132000e+03 1.151584e+03
1.133000e+03 3.471434e+03
1.134000e+03 2.182030e+04
1.135000e+03 3.242873e+03
1.136000e+03 8.447410e+03
1.137000e+03 3.856127e+04
1.138000e+03 2.112211e+04
1.139000e+03 4.414583e+04
1.140000e+03 1.323275e+04
1.141000e+03 4.335821e+04
1.142000e+03 4.757341e+04
1.143000e+03 3.384014e+04
1.144000e+03 4.920661e+04
1.145000e+03 5.602852e+02
1.146000e+03 5.249187e+04
1.147000e+03 5.063372e+04
1.148000e+03 3.113617e+03
1.149000e+03 4.704037e+04
1.150000e+03 3.786428e+04
1.151000e+03 5.737991e+04
1.152000e+03 5.495246e+04
1.153000e+03 5.105816e+04
1.154000e+03 6.038427e+04
1.155000e+03 4.714704e+04
1.156000e+03 6.258716e+04
1.157000e+03 6.078292e+04
1.158000e+03 3.135096e+04
1.159000e+03 6.377762e+04
1.160000e+03 3.520805e+04
1.161000e+03 6.596873e+04
1.162000e+03 9.999465e+03
1.163000e+03 2.258226e+04
1.164000e+03 2.325703e+02
1.165000e+03 6.742162e+04
1.166000e+03 5.912909e+04
1.167000e+03 5.947311e+04
1.168000e+03 7.858188e+04
1.169000e+03 7.936155e+04
1.170000e+03 6.037091e+04
1.171000e+03 7.624451e+04
1.172000e+03 4.704760e+04
1.173000e+03 8.583261e+04
1.174000e+03 2.867414e+03
1.175000e+03 2.092695e+02
1.176000e+03 1.318672e+02
1.177000e+03 9.467494e+04
1.178000e+03 9.630314e+04
1.179000e+03 9.481770e+04
1.180000e+03 6.626215e+04
1.181000e+03 1.011790e+05
1.182000e+03 9.868771e+04
1.183000e+03 8.225772e+04
1.184000e+03 7.617777e+04
1.185000e+03 9.155323e+04
1.186000e+03 1.413865e+04
1.187000e+03 1.004706e+05
1.188000e+03 6.029670e+04
1.189000e+03 3.605998e+04
1.190000e+03 1.152550e+05
1.191000e+03 1.031600e+05
1.192000e+03 1.168810e+05
1.193000e+03 4.219961e+03
1.194000e+03 4.237750e+04
1.195000e+03 1.166859e+05
1.196000e+03 1.195111e+05
1.197000e+03 1.739729e+05
1.198000e+03 3.373934e+04
1.199000e+03 1.730511e+05
1.200000e+03 5.803623e+04
1.201000e+03 1.680514e+05
1.202000e+03 1.155411e+05
1.203000e+03 1.881942e+05
1.204000e+03 4.982944e+04
1.205000e+03 1.670760e+05
1.206000e+03 1.731475e+05
1.207000e+03 2.261571e+04
1.208000e+03 1.350668e+05
1.209000e+03 1.151996e+05
1.210000e+03 4.174219e+02
1.211000e+03 6.568118e+04
1.212000e+03 3.467677e+04
1.213000e+03 1.918705e+04
1.214000e+03 5.599022e+03
1.215000e+03 7.614759e+02
1.216000e+03 4.180545e+02
1.217000e+03 3.275096e+03
1.218000e+03 1.519650e+04
1.219000e+03 3.655018e+04
1.220000e+03 3.734379e+04
1.221000e+03 1.033893e+05
1.222000e+03 1.312045e+05
1.223000e+03 1.576599e+05
1.224000e+03 1.894456e+05
1.225000e+03 3.762739e+04
1.226000e+03 2.774048e+05
1.227000e+03 2.964194e+05
1.228000e+03 1.406247e+05
1.229000e+03 3.095900e+05
1.230000e+03 2.891801e+05
1.231000e+03 1.124628e+05
1.232000e+03 4.045014e+05
1.233000e+03 4.296276e+05
1.234000e+03 3.170603e+05
1.235000e+03 4.459438e+05
1.236000e+03 1.888557e+05
1.237000e+03 4.851374e+05
1.238000e+03 4.789069e+05
1.239000e+03 4.469724e+05
1.240000e+03 2.344616e+05
1.241000e+03 4.247945e+05
1.242000e+03 5.152677e+05
1.243000e+03 5.607829e+05
1.244000e+03 5.788584e+05
1.245000e+03 5.800018e+05
1.246000e+03 5.577186e+05
1.247000e+03 5.856811e+05
1.248000e+03 4.888223e+05
1.249000e+03 6.515748e+05
1.250000e+03 4.667428e+05
1.251000e+03 6.783038e+05
1.252000e+03 6.395832e+05
1.253000e+03 7.062617e+05
1.254000e+03 6.853178e+05
1.255000e+03 7.186078e+05
1.256000e+03 6.955066e+05
1.257000e+03 6.089388e+05
1.258000e+03 6.103231e+05
1.259000e+03 7.263474e+05
1.260000e+03 8.058372e+05
1.261000e+03 2.806312e+04
1.262000e+03 8.344628e+05
1.263000e+03 8.274750e+05
1.264000e+03 7.309694e+05
1.265000e+03 1.775625e+03
1.266000e+03 8.968606e+05
1.267000e+03 8.022697e+05
