# wavelength_A flux
5.000000e+02 3.272502e-35
5.010000e+02 4.201879e-35
5.020000e+02 5.389718e-35
5.030000e+02 6.906373e-35
5.040000e+02 8.840935e-35
5.050000e+02 1.130882e-34
5.060000e+02 1.444765e-34
5.070000e+02 1.843942e-34
5.080000e+02 2.351122e-34
5.090000e+02 2.994871e-34
5.100000e+02 3.810452e-34
5.110000e+02 4.845355e-34
5.120000e+02 6.154225e-34
5.130000e+02 7.809287e-34
5.140000e+02 9.900046e-34
5.150000e+02 1.253877e-33
5.160000e+02 1.586597e-33
5.170000e+02 2.005744e-33
5.180000e+02 2.533279e-33
5.190000e+02 3.196625e-33
5.200000e+02 4.029991e-33
5.210000e+02 5.076008e-33
5.220000e+02 6.387750e-33
5.230000e+02 8.031292e-33
5.240000e+02 1.008869e-32
5.250000e+02 1.266191e-32
5.260000e+02 1.587744e-32
5.270000e+02 1.989213e-32
5.280000e+02 2.490023e-32
5.290000e+02 3.114218e-32
5.300000e+02 3.891531e-32
5.310000e+02 4.858696e-32
5.320000e+02 6.061066e-32
5.330000e+02 7.554582e-32
5.340000e+02 9.408187e-32
5.350000e+02 1.170679e-31
5.360000e+02 1.455485e-31
5.370000e+02 1.808002e-31
5.380000e+02 2.244246e-31
5.390000e+02 2.783348e-31
5.400000e+02 3.449139e-31
5.410000e+02 4.270730e-31
5.420000e+02 5.283770e-31
5.430000e+02 6.531874e-31
5.440000e+02 8.068370e-31
5.450000e+02 9.958406e-31
5.460000e+02 1.228151e-30
5.470000e+02 1.513469e-30
5.480000e+02 1.863618e-30
5.490000e+02 2.293000e-30
5.500000e+02 2.819138e-30
5.510000e+02 3.463347e-30
5.520000e+02 4.251525e-30
5.530000e+02 5.215119e-30
5.540000e+02 6.392289e-30
5.550000e+02 7.829301e-30
5.560000e+02 9.582212e-30
5.570000e+02 1.171889e-29
5.580000e+02 1.432145e-29
5.590000e+02 1.748916e-29
5.600000e+02 2.134194e-29
5.610000e+02 2.602458e-29
5.620000e+02 3.171175e-29
5.630000e+02 3.861400e-29
5.640000e+02 4.698501e-29
5.650000e+02 5.713016e-29
5.660000e+02 6.941682e-29
5.670000e+02 8.428667e-29
5.680000e+02 1.022703e-28
5.690000e+02 1.240047e-28
5.700000e+02 1.502541e-28
5.710000e+02 1.819349e-28
5.720000e+02 2.201448e-28
5.730000e+02 2.661983e-28
5.740000e+02 3.216682e-28
5.750000e+02 3.884351e-28
5.760000e+02 4.687462e-28
5.770000e+02 5.652853e-28
5.780000e+02 6.812550e-28
5.790000e+02 8.204748e-28
5.800000e+02 9.874972e-28
5.810000e+02 1.187745e-27
5.820000e+02 1.427671e-27
5.830000e+02 1.714956e-27
5.840000e+02 2.058726e-27
5.850000e+02 2.469828e-27
5.860000e+02 2.961137e-27
5.870000e+02 3.547934e-27
5.880000e+02 4.248340e-27
5.890000e+02 5.083831e-27
5.900000e+02 6.079842e-27
5.910000e+02 7.266484e-27
5.920000e+02 8.679377e-27
5.930000e+02 1.036064e-26
5.940000e+02 1.236002e-26
5.950000e+02 1.473629e-26
5.960000e+02 1.755880e-26
5.970000e+02 2.090934e-26
5.980000e+02 2.488434e-26
5.990000e+02 2.959740e-26
6.000000e+02 3.518226e-26
6.010000e+02 4.179633e-26
6.020000e+02 4.962471e-26
6.030000e+02 5.888498e-26
6.040000e+02 6.983275e-26
6.050000e+02 8.276809e-26
6.060000e+02 9.804316e-26
6.070000e+02 1.160709e-25
6.080000e+02 1.373354e-25
6.090000e+02 1.624036e-25
6.100000e+02 1.919395e-25
6.110000e+02 2.267199e-25
6.120000e+02 2.676534e-25
6.130000e+02 3.158020e-25
6.140000e+02 3.724066e-25
6.150000e+02 4.389157e-25
6.160000e+02 5.170202e-25
6.170000e+02 6.086920e-25
6.180000e+02 7.162301e-25
6.190000e+02 8.423131e-25
6.200000e+02 9.900606e-25
6.210000e+02 1.163103e-24
6.220000e+02 1.365665e-24
6.230000e+02 1.602658e-24
6.240000e+02 1.879788e-24
6.250000e+02 2.203687e-24
6.260000e+02 2.582050e-24
6.270000e+02 3.023810e-24
6.280000e+02 3.539324e-24
6.290000e+02 4.140600e-24
6.300000e+02 4.841549e-24
6.310000e+02 5.658284e-24
6.320000e+02 6.609453e-24
6.330000e+02 7.716628e-24
6.340000e+02 9.004758e-24
6.350000e+02 1.050268e-23
6.360000e+02 1.224369e-23
6.370000e+02 1.426627e-23
6.380000e+02 1.661478e-23
6.390000e+02 1.934045e-23
6.400000e+02 2.250231e-23
6.410000e+02 2.616840e-23
6.420000e+02 3.041708e-23
6.430000e+02 3.533862e-23
6.440000e+02 4.103686e-23
6.450000e+02 4.763126e-23
6.460000e+02 5.525918e-23
6.470000e+02 6.407848e-23
6.480000e+02 7.427049e-23
6.490000e+02 8.604343e-23
6.500000e+02 9.963623e-23
6.510000e+02 1.153230e-22
6.520000e+02 1.334182e-22
6.530000e+02 1.542819e-22
6.540000e+02 1.783269e-22
6.550000e+02 2.060258e-22
6.560000e+02 2.379195e-22
6.570000e+02 2.746270e-22
6.580000e+02 3.168560e-22
6.590000e+02 3.654157e-22
6.600000e+02 4.212305e-22
6.610000e+02 4.853563e-22
6.620000e+02 5.589984e-22
6.630000e+02 6.435325e-22
6.640000e+02 7.405276e-22
6.650000e+02 8.517727e-22
6.660000e+02 9.793068e-22
6.670000e+02 1.125453e-21
6.680000e+02 1.292855e-21
6.690000e+02 1.484526e-21
6.700000e+02 1.703890e-21
6.710000e+02 1.954844e-21
6.720000e+02 2.241818e-21
6.730000e+02 2.569844e-21
6.740000e+02 2.944642e-21
6.750000e+02 3.372705e-21
6.760000e+02 3.861402e-21
6.770000e+02 4.419095e-21
6.780000e+02 5.055267e-21
6.790000e+02 5.780669e-21
6.800000e+02 6.607484e-21
6.810000e+02 7.549513e-21
6.820000e+02 8.622383e-21
6.830000e+02 9.843783e-21
6.840000e+02 1.123373e-20
6.850000e+02 1.281485e-20
6.860000e+02 1.461275e-20
6.870000e+02 1.665635e-20
6.880000e+02 1.897832e-20
6.890000e+02 2.161557e-20
6.900000e+02 2.460974e-20
6.910000e+02 2.800786e-20
6.920000e+02 3.186295e-20
6.930000e+02 3.623479e-20
6.940000e+02 4.119079e-20
6.950000e+02 4.680688e-20
6.960000e+02 5.316862e-20
6.970000e+02 6.037230e-20
6.980000e+02 6.852634e-20
6.990000e+02 7.775269e-20
7.000000e+02 8.818854e-20
7.010000e+02 9.998813e-20
7.020000e+02 1.133248e-19
7.030000e+02 1.283933e-19
7.040000e+02 1.454123e-19
7.050000e+02 1.646275e-19
7.060000e+02 1.863145e-19
7.070000e+02 2.107824e-19
7.080000e+02 2.383781e-19
7.090000e+02 2.694905e-19
7.100000e+02 3.045553e-19
7.110000e+02 3.440606e-19
7.120000e+02 3.885535e-19
7.130000e+02 4.386460e-19
7.140000e+02 4.950234e-19
7.150000e+02 5.584525e-19
7.160000e+02 6.297907e-19
7.170000e+02 7.099967e-19
7.180000e+02 8.001422e-19
7.190000e+02 9.014246e-19
7.200000e+02 1.015182e-18
7.210000e+02 1.142906e-18
7.220000e+02 1.286266e-18
7.230000e+02 1.447121e-18
7.240000e+02 1.627547e-18
7.250000e+02 1.829857e-18
7.260000e+02 2.056631e-18
7.270000e+02 2.310745e-18
7.280000e+02 2.595402e-18
7.290000e+02 2.914168e-18
7.300000e+02 3.271017e-18
7.310000e+02 3.670368e-18
7.320000e+02 4.117140e-18
7.330000e+02 4.616805e-18
7.340000e+02 5.175446e-18
7.350000e+02 5.799828e-18
7.360000e+02 6.497465e-18
7.370000e+02 7.276708e-18
7.380000e+02 8.146830e-18
7.390000e+02 9.118126e-18
7.400000e+02 1.020202e-17
7.410000e+02 1.141121e-17
7.420000e+02 1.275973e-17
7.430000e+02 1.426321e-17
7.440000e+02 1.593892e-17
7.450000e+02 1.780602e-17
7.460000e+02 1.988576e-17
7.470000e+02 2.220165e-17
7.480000e+02 2.477971e-17
7.490000e+02 2.764879e-17
7.500000e+02 3.084077e-17
7.510000e+02 3.439095e-17
7.520000e+02 3.833835e-17
7.530000e+02 4.272611e-17
7.540000e+02 4.760195e-17
7.550000e+02 5.301857e-17
7.560000e+02 5.903419e-17
7.570000e+02 6.571313e-17
7.580000e+02 7.312637e-17
7.590000e+02 8.135230e-17
7.600000e+02 9.047739e-17
7.610000e+02 1.005970e-16
7.620000e+02 1.118164e-16
7.630000e+02 1.242516e-16
7.640000e+02 1.380305e-16
7.650000e+02 1.532938e-16
7.660000e+02 1.701969e-16
7.670000e+02 1.889107e-16
7.680000e+02 2.096234e-16
7.690000e+02 2.325422e-16
7.700000e+02 2.578951e-16
7.710000e+02 2.859329e-16
7.720000e+02 3.169316e-16
7.730000e+02 3.511944e-16
7.740000e+02 3.890548e-16
7.750000e+02 4.308793e-16
7.760000e+02 4.770705e-16
7.770000e+02 5.280707e-16
7.780000e+02 5.843655e-16
7.790000e+02 6.464881e-16
7.800000e+02 7.150237e-16
7.810000e+02 7.906144e-16
7.820000e+02 8.739646e-16
7.830000e+02 9.658467e-16
7.840000e+02 1.067108e-15
7.850000e+02 1.178676e-15
7.860000e+02 1.301569e-15
7.870000e+02 1.436902e-15
7.880000e+02 1.585895e-15
7.890000e+02 1.749886e-15
7.900000e+02 1.930338e-15
7.910000e+02 2.128853e-15
7.920000e+02 2.347184e-15
7.930000e+02 2.587248e-15
7.940000e+02 2.851144e-15
7.950000e+02 3.141165e-15
7.960000e+02 3.459817e-15
7.970000e+02 3.809841e-15
7.980000e+02 4.194230e-15
7.990000e+02 4.616254e-15
8.000000e+02 5.079485e-15
8.010000e+02 5.587823e-15
8.020000e+02 6.145523e-15
8.030000e+02 6.757231e-15
8.040000e+02 7.428016e-15
8.050000e+02 8.163406e-15
8.060000e+02 8.969432e-15
8.070000e+02 9.852666e-15
8.080000e+02 1.082027e-14
8.090000e+02 1.188007e-14
8.100000e+02 1.304055e-14
8.110000e+02 1.431100e-14
8.120000e+02 1.570150e-14
8.130000e+02 1.722305e-14
8.140000e+02 1.888761e-14
8.150000e+02 2.070820e-14
8.160000e+02 2.269899e-14
8.170000e+02 2.487538e-14
8.180000e+02 2.725414e-14
8.190000e+02 2.985350e-14
8.200000e+02 3.269326e-14
8.210000e+02 3.579495e-14
8.220000e+02 3.918198e-14
8.230000e+02 4.287976e-14
8.240000e+02 4.691590e-14
8.250000e+02 5.132038e-14
8.260000e+02 5.612575e-14
8.270000e+02 6.136733e-14
8.280000e+02 6.708347e-14
8.290000e+02 7.331575e-14
8.300000e+02 8.010930e-14
8.310000e+02 8.751305e-14
8.320000e+02 9.558005e-14
8.330000e+02 1.043678e-13
8.340000e+02 1.139387e-13
8.350000e+02 1.243602e-13
8.360000e+02 1.357056e-13
8.370000e+02 1.480540e-13
8.380000e+02 1.614914e-13
8.390000e+02 1.761106e-13
8.400000e+02 1.920123e-13
8.410000e+02 2.093052e-13
8.420000e+02 2.281072e-13
8.430000e+02 2.485458e-13
8.440000e+02 2.707587e-13
8.450000e+02 2.948950e-13
8.460000e+02 3.211157e-13
8.470000e+02 3.495952e-13
8.480000e+02 3.805216e-13
8.490000e+02 4.140982e-13
8.500000e+02 4.505448e-13
8.510000e+02 4.900987e-13
8.520000e+02 5.330161e-13
8.530000e+02 5.795736e-13
8.540000e+02 6.300699e-13
8.550000e+02 6.848272e-13
8.560000e+02 7.441934e-13
8.570000e+02 8.085434e-13
8.580000e+02 8.782821e-13
8.590000e+02 9.538455e-13
8.600000e+02 1.035704e-12
8.610000e+02 1.124366e-12
8.620000e+02 1.220376e-12
8.630000e+02 1.324324e-12
8.640000e+02 1.436845e-12
8.650000e+02 1.558622e-12
8.660000e+02 1.690390e-12
8.670000e+02 1.832943e-12
8.680000e+02 1.987134e-12
8.690000e+02 2.153882e-12
8.700000e+02 2.334173e-12
8.710000e+02 2.529073e-12
8.720000e+02 2.739724e-12
8.730000e+02 2.967357e-12
8.740000e+02 3.213296e-12
8.750000e+02 3.478962e-12
8.760000e+02 3.765886e-12
8.770000e+02 4.075709e-12
8.780000e+02 4.410200e-12
8.790000e+02 4.771254e-12
8.800000e+02 5.160911e-12
8.810000e+02 5.581359e-12
8.820000e+02 6.034950e-12
8.830000e+02 6.524207e-12
8.840000e+02 7.051839e-12
8.850000e+02 7.620754e-12
8.860000e+02 8.234072e-12
8.870000e+02 8.895141e-12
8.880000e+02 9.607552e-12
8.890000e+02 1.037515e-11
8.900000e+02 1.120208e-11
8.910000e+02 1.209276e-11
8.920000e+02 1.305193e-11
8.930000e+02 1.408468e-11
8.940000e+02 1.519647e-11
8.950000e+02 1.639313e-11
8.960000e+02 1.768093e-11
8.970000e+02 1.906655e-11
8.980000e+02 2.055718e-11
8.990000e+02 2.216050e-11
9.000000e+02 2.388474e-11
9.010000e+02 2.573869e-11
9.020000e+02 2.773178e-11
9.030000e+02 2.987409e-11
9.040000e+02 3.217640e-11
9.050000e+02 3.465024e-11
9.060000e+02 3.730795e-11
9.070000e+02 4.016272e-11
9.080000e+02 4.322865e-11
9.090000e+02 4.652082e-11
9.100000e+02 5.005533e-11
9.110000e+02 5.384940e-11
9.120000e+02 5.792142e-11
9.130000e+02 6.229104e-11
9.140000e+02 6.745893e-11
9.150000e+02 2.026906e-08
9.160000e+02 1.752021e-07
9.170000e+02 1.679620e-08
9.180000e+02 2.650168e-08
9.190000e+02 5.675976e-07
9.200000e+02 1.913481e-06
9.210000e+02 1.108038e-10
9.220000e+02 2.053585e-06
9.230000e+02 7.594315e-09
9.240000e+02 3.691571e-08
9.250000e+02 5.580942e-07
9.260000e+02 3.909872e-08
9.270000e+02 3.137846e-08
9.280000e+02 1.449037e-05
9.290000e+02 1.359178e-05
9.300000e+02 2.274006e-06
9.310000e+02 1.722220e-08
9.320000e+02 1.016603e-05
9.330000e+02 6.403827e-06
9.340000e+02 1.502103e-06
9.350000e+02 1.509866e-08
9.360000e+02 1.250559e-07
9.370000e+02 4.081084e-09
9.380000e+02 7.846996e-09
9.390000e+02 3.692524e-07
9.400000e+02 2.421319e-05
9.410000e+02 6.181505e-07
9.420000e+02 4.839932e-05
9.430000e+02 7.685703e-07
9.440000e+02 5.485876e-05
9.450000e+02 5.361419e-05
9.460000e+02 1.866953e-05
9.470000e+02 9.216819e-09
9.480000e+02 1.240682e-05
9.490000e+02 8.832483e-07
9.500000e+02 7.534563e-09
9.510000e+02 4.789349e-06
9.520000e+02 2.053763e-05
9.530000e+02 1.170174e-07
9.540000e+02 1.022181e-08
9.550000e+02 1.980537e-06
9.560000e+02 6.902947e-05
9.570000e+02 5.557595e-07
9.580000e+02 3.365130e-09
9.590000e+02 9.277315e-05
9.600000e+02 2.646266e-08
9.610000e+02 3.574626e-05
9.620000e+02 1.086296e-05
9.630000e+02 8.746429e-07
9.640000e+02 8.360257e-08
9.650000e+02 3.322202e-08
9.660000e+02 2.126282e-06
9.670000e+02 2.389352e-07
9.680000e+02 1.532098e-07
9.690000e+02 1.487323e-05
9.700000e+02 1.579383e-05
9.710000e+02 3.296807e-07
9.720000e+02 6.678030e-08
9.730000e+02 1.382181e-07
9.740000e+02 6.073677e-06
9.750000e+02 4.086280e-06
9.760000e+02 1.019467e-04
9.770000e+02 9.560397e-05
9.780000e+02 4.464564e-05
9.790000e+02 2.919828e-04
9.800000e+02 3.191660e-04
9.810000e+02 2.982328e-05
9.820000e+02 3.231879e-06
9.830000e+02 3.723218e-04
9.840000e+02 5.670122e-06
9.850000e+02 1.008658e-05
9.860000e+02 1.362646e-05
9.870000e+02 4.548542e-04
9.880000e+02 1.056760e-07
9.890000e+02 1.849627e-04
9.900000e+02 1.228180e-04
9.910000e+02 2.951073e-06
9.920000e+02 2.233446e-08
9.930000e+02 5.223031e-04
9.940000e+02 2.099478e-08
9.950000e+02 1.712287e-05
9.960000e+02 5.024485e-07
9.970000e+02 2.191342e-06
9.980000e+02 4.636540e-04
9.990000e+02 4.828865e-06
1.000000e+03 9.333928e-04
1.001000e+03 8.583212e-04
1.002000e+03 1.016146e-03
1.003000e+03 5.265305e-06
1.004000e+03 1.701992e-07
1.005000e+03 2.786028e-05
1.006000e+03 1.037086e-03
1.007000e+03 1.221445e-03
1.008000e+03 8.364856e-04
1.009000e+03 6.785509e-06
1.010000e+03 8.473475e-04
1.011000e+03 9.923304e-04
1.012000e+03 1.042008e-03
1.013000e+03 9.931590e-04
1.014000e+03 8.061761e-08
1.015000e+03 3.266032e-07
1.016000e+03 2.661580e-05
1.017000e+03 6.915070e-08
1.018000e+03 7.630326e-06
1.019000e+03 2.937159e-07
1.020000e+03 8.054463e-04
1.021000e+03 1.104089e-05
1.022000e+03 2.077324e-05
1.023000e+03 9.123469e-07
1.024000e+03 3.304465e-05
1.025000e+03 9.199630e-08
1.026000e+03 1.283030e-07
1.027000e+03 1.281061e-05
1.028000e+03 8.648130e-07
1.029000e+03 1.508452e-07
1.030000e+03 1.337060e-04
1.031000e+03 3.572619e-04
1.032000e+03 2.208850e-03
1.033000e+03 1.286576e-05
1.034000e+03 5.219303e-04
1.035000e+03 4.607718e-07
1.036000e+03 3.203750e-07
1.037000e+03 5.437289e-03
1.038000e+03 1.197869e-02
1.039000e+03 6.593508e-03
1.040000e+03 6.433028e-03
1.041000e+03 1.462623e-02
1.042000e+03 1.412797e-02
1.043000e+03 9.531275e-03
1.044000e+03 2.049227e-02
1.045000e+03 6.196649e-07
1.046000e+03 6.720417e-03
1.047000e+03 1.866689e-03
1.048000e+03 1.305668e-05
1.049000e+03 1.919411e-03
1.050000e+03 2.715858e-04
1.051000e+03 1.077969e-04
1.052000e+03 2.036340e-02
1.053000e+03 2.675459e-02
1.054000e+03 6.332994e-07
1.055000e+03 2.664137e-02
1.056000e+03 3.023208e-02
1.057000e+03 5.613249e-03
1.058000e+03 1.209696e-04
1.059000e+03 5.584769e-05
1.060000e+03 1.757406e-05
1.061000e+03 1.360878e-02
1.062000e+03 5.514991e-05
1.063000e+03 2.315280e-04
1.064000e+03 1.210719e-06
1.065000e+03 1.098961e-06
1.066000e+03 1.188387e-02
1.067000e+03 7.712729e-05
1.068000e+03 5.284846e-02
1.069000e+03 1.439225e-05
1.070000e+03 2.120130e-03
1.071000e+03 4.149963e-02
1.072000e+03 5.947202e-02
1.073000e+03 2.749264e-06
1.074000e+03 7.125128e-03
1.075000e+03 3.459796e-03
1.076000e+03 4.789299e-02
1.077000e+03 3.093202e-05
1.078000e+03 1.587719e-04
1.079000e+03 1.211572e-03
1.080000e+03 6.404239e-03
1.081000e+03 4.431434e-02
1.082000e+03 2.562684e-02
1.083000e+03 1.250926e-02
1.084000e+03 9.704416e-02
1.085000e+03 1.594044e-03
1.086000e+03 1.018805e-01
1.087000e+03 1.995414e-04
1.088000e+03 1.141504e-01
1.089000e+03 1.183743e-01
1.090000e+03 1.179366e-03
1.091000e+03 2.066284e-03
1.092000e+03 1.229805e-01
1.093000e+03 1.327093e-01
1.094000e+03 2.860983e-02
1.095000e+03 1.479260e-01
1.096000e+03 3.693439e-03
1.097000e+03 1.128501e-01
1.098000e+03 1.517736e-01
1.099000e+03 5.414993e-03
1.100000e+03 3.951928e-05
1.101000e+03 1.315586e-04
1.102000e+03 3.404748e-03
1.103000e+03 1.882121e-01
1.104000e+03 2.031150e-01
1.105000e+03 2.051218e-01
1.106000e+03 2.634953e-02
1.107000e+03 8.492172e-05
1.108000e+03 1.590208e-01
1.109000e+03 1.519501e-03
1.110000e+03 2.370921e-01
1.111000e+03 2.131501e-01
1.112000e+03 9.420772e-02
1.113000e+03 1.874208e-01
1.114000e+03 4.565070e-02
1.115000e+03 1.667889e-03
1.116000e+03 5.013003e-04
1.117000e+03 2.730782e-01
1.118000e+03 2.707392e-03
1.119000e+03 1.047670e-01
1.120000e+03 8.396804e-04
1.121000e+03 2.717875e-01
1.122000e+03 3.583260e-01
1.123000e+03 4.117993e-01
1.124000e+03 4.772122e-01
1.125000e+03 3.562449e-01
1.126000e+03 4.862239e-01
1.127000e+03 3.701028e-01
1.128000e+03 3.202439e-01
1.129000e+03 2.180568e-01
1.130000e+03 3.915072e-01
1.131000e+03 3.317914e-01
1.132000e+03 1.480952e-03
1.133000e+03 2.062550e-02
1.134000e+03 2.480989e-01
1.135000e+03 1.830569e-01
1.136000e+03 4.321241e-02
1.137000e+03 2.964791e-01
1.138000e+03 1.982551e-01
1.139000e+03 3.559279e-01
1.140000e+03 3.423309e-01
1.141000e+03 3.392923e-01
1.142000e+03 3.515808e-01
1.143000e+03 2.113651e-01
1.144000e+03 3.432746e-01
1.145000e+03 7.414520e-04
1.146000e+03 3.696343e-01
1.147000e+03 3.671404e-01
1.148000e+03 8.471906e-03
1.149000e+03 3.393120e-01
1.150000e+03 3.257475e-01
1.151000e+03 3.622121e-01
1.152000e+03 3.378774e-01
1.153000e+03 3.493439e-01
1.154000e+03 3.479215e-01
1.155000e+03 3.161556e-01
1.156000e+03 2.691910e-01
1.157000e+03 3.235805e-01
1.158000e+03 2.181196e-01
1.159000e+03 3.344213e-01
1.160000e+03 2.439558e-01
1.161000e+03 3.094934e-01
1.162000e+03 3.724243e-02
1.163000e+03 1.260028e-01
1.164000e+03 6.321818e-04
1.165000e+03 1.803278e-01
1.166000e+03 9.623989e-02
1.167000e+03 6.362543e-02
1.168000e+03 3.488473e-01
1.169000e+03 3.541214e-01
1.170000e+03 6.374674e-02
1.171000e+03 1.674320e-01
1.172000e+03 1.273949e-01
1.173000e+03 1.157368e-01
1.174000e+03 5.032107e-03
1.175000e+03 5.423725e-04
1.176000e+03 1.935661e-04
1.177000e+03 4.428874e-01
1.178000e+03 4.206007e-01
1.179000e+03 3.993676e-01
1.180000e+03 3.407415e-01
1.181000e+03 3.648115e-01
1.182000e+03 3.520525e-01
1.183000e+03 3.123561e-01
1.184000e+03 2.964641e-01
1.185000e+03 2.946459e-01
1.186000e+03 2.850365e-02
1.187000e+03 2.917327e-01
1.188000e+03 2.469031e-01
1.189000e+03 2.816583e-01
1.190000e+03 2.735058e-01
1.191000e+03 2.553279e-01
1.192000e+03 2.329404e-01
1.193000e+03 2.248570e-01
1.194000e+03 2.223736e-01
1.195000e+03 2.118628e-01
1.196000e+03 2.584792e+00
1.197000e+03 2.552746e+00
1.198000e+03 1.350868e-01
1.199000e+03 2.265199e+00
1.200000e+03 4.877040e-01
1.201000e+03 1.882616e+00
1.202000e+03 1.423369e+00
1.203000e+03 1.456892e+00
1.204000e+03 4.151707e-01
1.205000e+03 1.008475e+00
1.206000e+03 8.029520e-01
1.207000e+03 1.057827e-01
1.208000e+03 3.850258e-01
1.209000e+03 2.845728e-01
1.210000e+03 1.000062e-03
1.211000e+03 9.846264e-02
1.212000e+03 4.652667e-02
1.213000e+03 1.890033e-02
1.214000e+03 5.160759e-03
1.215000e+03 8.827057e-04
1.216000e+03 7.782241e-04
1.217000e+03 3.170448e-03
1.218000e+03 1.522036e-02
1.219000e+03 4.460627e-02
1.220000e+03 8.946630e-02
1.221000e+03 2.057205e-01
1.222000e+03 3.663357e-01
1.223000e+03 5.608201e-01
1.224000e+03 8.089522e-01
1.225000e+03 1.720362e-01
1.226000e+03 1.666878e+00
1.227000e+03 2.197932e+00
1.228000e+03 1.498302e+00
1.229000e+03 3.275768e+00
1.230000e+03 2.990282e+00
1.231000e+03 1.040537e+00
1.232000e+03 5.130569e+00
1.233000e+03 5.807856e+00
1.234000e+03 5.018973e+00
1.235000e+03 6.991379e+00
1.236000e+03 3.576618e+00
1.237000e+03 8.250563e+00
1.238000e+03 8.821673e+00
1.239000e+03 8.562289e+00
1.240000e+03 1.909775e+00
1.241000e+03 9.108570e+00
1.242000e+03 1.095154e+01
1.243000e+03 1.167472e+01
1.244000e+03 1.227464e+01
1.245000e+03 1.273680e+01
1.246000e+03 1.271280e+01
1.247000e+03 1.359512e+01
1.248000e+03 1.067797e+01
1.249000e+03 1.488900e+01
1.250000e+03 1.253906e+01
1.251000e+03 1.603450e+01
1.252000e+03 1.575205e+01
1.253000e+03 1.686115e+01
1.254000e+03 1.672543e+01
1.255000e+03 5.436725e+00
1.256000e+03 1.550246e+01
1.257000e+03 1.238323e+01
1.258000e+03 1.638650e+01
1.259000e+03 1.726056e+01
1.260000e+03 1.950928e+01
1.261000e+03 5.831470e-01
1.262000e+03 2.030429e+01
1.263000e+03 1.920906e+01
1.264000e+03 1.865669e+01
1.265000e+03 4.914429e+00
1.266000e+03 2.349455e+01
1.267000e+03 2.370003e+01
