# wavelength_A flux
5.000000e+02 3.380429e-28
5.010000e+02 4.202344e-28
5.020000e+02 5.219481e-28
5.030000e+02 6.477107e-28
5.040000e+02 8.030734e-28
5.050000e+02 1.015820e-27
5.060000e+02 1.256713e-27
5.070000e+02 1.553034e-27
5.080000e+02 1.918226e-27
5.090000e+02 2.366903e-27
5.100000e+02 2.857556e-27
5.110000e+02 3.594714e-27
5.120000e+02 4.423580e-27
5.130000e+02 5.441523e-27
5.140000e+02 6.686820e-27
5.150000e+02 8.210403e-27
5.160000e+02 1.007298e-26
5.170000e+02 1.234870e-26
5.180000e+02 1.512622e-26
5.190000e+02 1.851384e-26
5.200000e+02 2.264235e-26
5.210000e+02 2.766984e-26
5.220000e+02 3.378320e-26
5.230000e+02 4.122562e-26
5.240000e+02 5.026327e-26
5.250000e+02 6.123501e-26
5.260000e+02 7.454503e-26
5.270000e+02 9.067955e-26
5.280000e+02 1.102234e-25
5.290000e+02 1.338792e-25
5.300000e+02 1.624915e-25
5.310000e+02 1.970728e-25
5.320000e+02 2.388379e-25
5.330000e+02 2.892427e-25
5.340000e+02 3.500302e-25
5.350000e+02 4.232862e-25
5.360000e+02 5.115027e-25
5.370000e+02 6.135339e-25
5.380000e+02 7.453333e-25
5.390000e+02 8.987591e-25
5.400000e+02 1.082998e-24
5.410000e+02 1.304062e-24
5.420000e+02 1.569222e-24
5.430000e+02 1.886951e-24
5.440000e+02 2.267449e-24
5.450000e+02 2.722806e-24
5.460000e+02 3.267380e-24
5.470000e+02 3.918217e-24
5.480000e+02 4.695524e-24
5.490000e+02 5.623262e-24
5.500000e+02 6.729809e-24
5.510000e+02 8.048757e-24
5.520000e+02 9.619848e-24
5.530000e+02 1.149006e-23
5.540000e+02 1.371490e-23
5.550000e+02 1.635990e-23
5.560000e+02 1.950240e-23
5.570000e+02 2.323358e-23
5.580000e+02 2.766091e-23
5.590000e+02 3.291095e-23
5.600000e+02 3.913267e-23
5.610000e+02 4.650130e-23
5.620000e+02 5.522284e-23
5.630000e+02 6.553929e-23
5.640000e+02 7.773481e-23
5.650000e+02 9.214285e-23
5.660000e+02 1.091544e-22
5.670000e+02 1.292278e-22
5.680000e+02 1.528999e-22
5.690000e+02 1.807990e-22
5.700000e+02 2.136604e-22
5.710000e+02 2.523437e-22
5.720000e+02 2.978535e-22
5.730000e+02 3.513631e-22
5.740000e+02 4.142419e-22
5.750000e+02 4.880876e-22
5.760000e+02 5.747617e-22
5.770000e+02 6.764425e-22
5.780000e+02 7.956457e-22
5.790000e+02 9.353183e-22
5.800000e+02 1.098883e-21
5.810000e+02 1.290318e-21
5.820000e+02 1.514247e-21
5.830000e+02 1.776035e-21
5.840000e+02 2.081751e-21
5.850000e+02 2.439104e-21
5.860000e+02 2.856080e-21
5.870000e+02 3.342444e-21
5.880000e+02 3.909484e-21
5.890000e+02 4.570229e-21
5.900000e+02 5.339751e-21
5.910000e+02 6.235479e-21
5.920000e+02 7.277555e-21
5.930000e+02 8.489249e-21
5.940000e+02 9.897428e-21
5.950000e+02 1.153309e-20
5.960000e+02 1.343201e-20
5.970000e+02 1.563539e-20
5.980000e+02 1.819074e-20
5.990000e+02 2.115275e-20
6.000000e+02 2.458440e-20
6.010000e+02 2.855811e-20
6.020000e+02 3.315720e-20
6.030000e+02 3.847738e-20
6.040000e+02 4.462864e-20
6.050000e+02 5.173727e-20
6.060000e+02 5.994818e-20
6.070000e+02 6.942761e-20
6.080000e+02 8.036617e-20
6.090000e+02 9.298229e-20
6.100000e+02 1.075262e-19
6.110000e+02 1.242842e-19
6.120000e+02 1.435843e-19
6.130000e+02 1.658012e-19
6.140000e+02 1.913638e-19
6.150000e+02 2.207618e-19
6.160000e+02 2.545546e-19
6.170000e+02 2.933812e-19
6.180000e+02 3.379705e-19
6.190000e+02 3.891538e-19
6.200000e+02 4.478792e-19
6.210000e+02 5.152269e-19
6.220000e+02 5.924276e-19
6.230000e+02 6.808823e-19
6.240000e+02 7.821855e-19
6.250000e+02 8.981512e-19
6.260000e+02 1.030842e-18
6.270000e+02 1.182601e-18
6.280000e+02 1.356093e-18
6.290000e+02 1.554342e-18
6.300000e+02 1.780779e-18
6.310000e+02 2.039174e-18
6.320000e+02 2.334321e-18
6.330000e+02 2.670850e-18
6.340000e+02 3.054560e-18
6.350000e+02 3.491873e-18
6.360000e+02 3.990080e-18
6.370000e+02 4.557399e-18
6.380000e+02 5.203150e-18
6.390000e+02 5.937866e-18
6.400000e+02 6.773451e-18
6.410000e+02 7.723356e-18
6.420000e+02 8.802773e-18
6.430000e+02 1.002885e-17
6.440000e+02 1.142094e-17
6.450000e+02 1.300087e-17
6.460000e+02 1.479325e-17
6.470000e+02 1.682583e-17
6.480000e+02 1.912985e-17
6.490000e+02 2.174052e-17
6.500000e+02 2.469747e-17
6.510000e+02 2.804528e-17
6.520000e+02 3.183411e-17
6.530000e+02 3.612037e-17
6.540000e+02 4.096744e-17
6.550000e+02 4.644656e-17
6.560000e+02 5.263773e-17
6.570000e+02 5.963077e-17
6.580000e+02 6.752647e-17
6.590000e+02 7.643793e-17
6.600000e+02 8.649196e-17
6.610000e+02 9.783074e-17
6.620000e+02 1.106136e-16
6.630000e+02 1.250189e-16
6.640000e+02 1.412466e-16
6.650000e+02 1.595204e-16
6.660000e+02 1.800905e-16
6.670000e+02 2.032370e-16
6.680000e+02 2.292728e-16
6.690000e+02 2.585479e-16
6.700000e+02 2.914533e-16
6.710000e+02 3.284257e-16
6.720000e+02 3.699527e-16
6.730000e+02 4.165784e-16
6.740000e+02 4.689102e-16
6.750000e+02 5.276253e-16
6.760000e+02 5.934789e-16
6.770000e+02 6.673127e-16
6.780000e+02 7.500644e-16
6.790000e+02 8.427786e-16
6.800000e+02 9.466185e-16
6.810000e+02 1.062878e-15
6.820000e+02 1.192999e-15
6.830000e+02 1.338582e-15
6.840000e+02 1.501410e-15
6.850000e+02 1.683462e-15
6.860000e+02 1.886939e-15
6.870000e+02 2.114285e-15
6.880000e+02 2.368214e-15
6.890000e+02 2.651741e-15
6.900000e+02 2.968207e-15
6.910000e+02 3.321323e-15
6.920000e+02 3.715201e-15
6.930000e+02 4.154404e-15
6.940000e+02 4.643984e-15
6.950000e+02 5.189543e-15
6.960000e+02 5.797281e-15
6.970000e+02 6.474066e-15
6.980000e+02 7.227500e-15
6.990000e+02 8.065994e-15
7.000000e+02 8.998850e-15
7.010000e+02 1.003636e-14
7.020000e+02 1.118989e-14
7.030000e+02 1.247202e-14
7.040000e+02 1.389663e-14
7.050000e+02 1.547907e-14
7.060000e+02 1.723624e-14
7.070000e+02 1.918689e-14
7.080000e+02 2.135160e-14
7.090000e+02 2.375314e-14
7.100000e+02 2.641660e-14
7.110000e+02 2.936965e-14
7.120000e+02 3.264277e-14
7.130000e+02 3.626956e-14
7.140000e+02 4.028702e-14
7.150000e+02 4.473590e-14
7.160000e+02 4.966104e-14
7.170000e+02 5.511183e-14
7.180000e+02 6.114256e-14
7.190000e+02 6.781296e-14
7.200000e+02 7.518874e-14
7.210000e+02 8.334207e-14
7.220000e+02 9.235231e-14
7.230000e+02 1.023066e-13
7.240000e+02 1.133008e-13
7.250000e+02 1.254398e-13
7.260000e+02 1.388393e-13
7.270000e+02 1.536256e-13
7.280000e+02 1.699379e-13
7.290000e+02 1.879285e-13
7.300000e+02 2.077643e-13
7.310000e+02 2.296287e-13
7.320000e+02 2.537223e-13
7.330000e+02 2.802649e-13
7.340000e+02 3.094975e-13
7.350000e+02 3.416837e-13
7.360000e+02 3.771122e-13
7.370000e+02 4.160990e-13
7.380000e+02 4.589897e-13
7.390000e+02 5.061625e-13
7.400000e+02 5.580308e-13
7.410000e+02 6.150467e-13
7.420000e+02 6.777042e-13
7.430000e+02 7.465432e-13
7.440000e+02 8.221534e-13
7.450000e+02 9.051788e-13
7.460000e+02 9.963225e-13
7.470000e+02 1.096352e-12
7.480000e+02 1.206105e-12
7.490000e+02 1.326496e-12
7.500000e+02 1.458520e-12
7.510000e+02 1.603266e-12
7.520000e+02 1.761917e-12
7.530000e+02 1.935765e-12
7.540000e+02 2.126217e-12
7.550000e+02 2.334806e-12
7.560000e+02 2.563202e-12
7.570000e+02 2.813221e-12
7.580000e+02 3.086842e-12
7.590000e+02 3.386219e-12
7.600000e+02 3.713693e-12
7.610000e+02 4.071815e-12
7.620000e+02 4.463353e-12
7.630000e+02 4.891322e-12
7.640000e+02 5.358996e-12
7.650000e+02 5.869934e-12
7.660000e+02 6.428004e-12
7.670000e+02 7.037402e-12
7.680000e+02 7.702693e-12
7.690000e+02 8.428824e-12
7.700000e+02 9.221174e-12
7.710000e+02 1.008557e-11
7.720000e+02 1.102835e-11
7.730000e+02 1.205636e-11
7.740000e+02 1.317705e-11
7.750000e+02 1.439850e-11
7.760000e+02 1.572944e-11
7.770000e+02 1.717936e-11
7.780000e+02 1.875852e-11
7.790000e+02 2.047805e-11
7.800000e+02 2.235000e-11
7.810000e+02 2.438739e-11
7.820000e+02 2.660436e-11
7.830000e+02 2.901618e-11
7.840000e+02 3.163938e-11
7.850000e+02 3.449184e-11
7.860000e+02 3.759290e-11
7.870000e+02 4.096348e-11
7.880000e+02 4.462618e-11
7.890000e+02 4.860543e-11
7.900000e+02 5.292763e-11
7.910000e+02 5.762131e-11
7.920000e+02 6.271728e-11
7.930000e+02 6.824878e-11
7.940000e+02 7.425176e-11
7.950000e+02 8.076497e-11
7.960000e+02 8.783025e-11
7.970000e+02 9.549275e-11
7.980000e+02 1.038012e-10
7.990000e+02 1.128080e-10
8.000000e+02 1.225699e-10
8.010000e+02 1.331480e-10
8.020000e+02 1.446080e-10
8.030000e+02 1.570208e-10
8.040000e+02 1.704628e-10
8.050000e+02 1.850162e-10
8.060000e+02 2.007702e-10
8.070000e+02 2.178195e-10
8.080000e+02 2.362673e-10
8.090000e+02 2.562239e-10
8.100000e+02 2.778085e-10
8.110000e+02 3.011490e-10
8.120000e+02 3.263831e-10
8.130000e+02 3.536590e-10
8.140000e+02 3.831359e-10
8.150000e+02 4.149850e-10
8.160000e+02 4.493903e-10
8.170000e+02 4.865495e-10
8.180000e+02 5.266751e-10
8.190000e+02 5.699953e-10
8.200000e+02 6.167551e-10
8.210000e+02 6.672177e-10
8.220000e+02 7.216658e-10
8.230000e+02 7.804025e-10
8.240000e+02 8.437533e-10
8.250000e+02 9.120675e-10
8.260000e+02 9.857196e-10
8.270000e+02 1.065112e-09
8.280000e+02 1.150674e-09
8.290000e+02 1.242869e-09
8.300000e+02 1.342192e-09
8.310000e+02 1.449174e-09
8.320000e+02 1.564383e-09
8.330000e+02 1.688430e-09
8.340000e+02 1.821965e-09
8.350000e+02 1.965689e-09
8.360000e+02 2.120351e-09
8.370000e+02 2.286751e-09
8.380000e+02 2.465747e-09
8.390000e+02 2.658258e-09
8.400000e+02 2.865266e-09
8.410000e+02 3.087821e-09
8.420000e+02 3.327049e-09
8.430000e+02 3.584151e-09
8.440000e+02 3.860412e-09
8.450000e+02 4.157208e-09
8.460000e+02 4.476007e-09
8.470000e+02 4.818379e-09
8.480000e+02 5.186001e-09
8.490000e+02 5.580666e-09
8.500000e+02 6.004287e-09
8.510000e+02 6.458910e-09
8.520000e+02 6.946717e-09
8.530000e+02 7.470040e-09
8.540000e+02 8.031363e-09
8.550000e+02 8.633346e-09
8.560000e+02 9.278817e-09
8.570000e+02 9.970802e-09
8.580000e+02 1.071252e-08
8.590000e+02 1.150742e-08
8.600000e+02 1.235916e-08
8.610000e+02 1.327165e-08
8.620000e+02 1.424906e-08
8.630000e+02 1.529583e-08
8.640000e+02 1.641670e-08
8.650000e+02 1.761670e-08
8.660000e+02 1.890122e-08
8.670000e+02 2.027596e-08
8.680000e+02 2.174703e-08
8.690000e+02 2.332092e-08
8.700000e+02 2.500453e-08
8.710000e+02 2.680522e-08
8.720000e+02 2.873082e-08
8.730000e+02 3.078964e-08
8.740000e+02 3.299056e-08
8.750000e+02 3.534300e-08
8.760000e+02 3.785697e-08
8.770000e+02 4.054316e-08
8.780000e+02 4.341288e-08
8.790000e+02 4.647819e-08
8.800000e+02 4.975190e-08
8.810000e+02 5.324762e-08
8.820000e+02 5.697983e-08
8.830000e+02 6.096388e-08
8.840000e+02 6.521611e-08
8.850000e+02 6.975386e-08
8.860000e+02 7.459554e-08
8.870000e+02 7.976071e-08
8.880000e+02 8.527013e-08
8.890000e+02 9.114583e-08
8.900000e+02 9.741121e-08
8.910000e+02 1.040911e-07
8.920000e+02 1.112118e-07
8.930000e+02 1.188012e-07
8.940000e+02 1.268891e-07
8.950000e+02 1.355067e-07
8.960000e+02 1.446875e-07
8.970000e+02 1.544668e-07
8.980000e+02 1.648821e-07
8.990000e+02 1.759729e-07
9.000000e+02 1.877814e-07
9.010000e+02 2.003523e-07
9.020000e+02 2.137326e-07
9.030000e+02 2.279725e-07
9.040000e+02 2.431249e-07
9.050000e+02 2.592460e-07
9.060000e+02 2.763952e-07
9.070000e+02 2.946354e-07
9.080000e+02 3.140333e-07
9.090000e+02 3.346592e-07
9.100000e+02 3.565879e-07
9.110000e+02 3.798982e-07
9.120000e+02 4.046736e-07
9.130000e+02 4.310026e-07
9.140000e+02 4.758112e-07
9.150000e+02 1.341293e-04
9.160000e+02 5.606846e-04
9.170000e+02 1.034276e-05
9.180000e+02 1.745087e-04
9.190000e+02 1.555650e-03
9.200000e+02 3.912773e-03
9.210000e+02 7.099816e-07
9.220000e+02 7.245265e-04
9.230000e+02 1.380503e-05
9.240000e+02 1.769373e-05
9.250000e+02 1.234842e-04
9.260000e+02 2.282889e-04
9.270000e+02 1.414157e-05
9.280000e+02 1.464780e-02
9.290000e+02 1.884645e-02
9.300000e+02 4.695356e-03
9.310000e+02 1.841729e-05
9.320000e+02 1.546113e-02
9.330000e+02 6.012153e-04
9.340000e+02 1.925193e-04
9.350000e+02 8.104029e-05
9.360000e+02 3.619364e-05
9.370000e+02 1.108662e-05
9.380000e+02 5.110866e-05
9.390000e+02 9.343310e-05
9.400000e+02 5.707164e-03
9.410000e+02 1.002801e-03
9.420000e+02 5.379194e-02
9.430000e+02 1.355587e-04
9.440000e+02 6.275376e-02
9.450000e+02 4.580378e-02
9.460000e+02 1.832792e-03
9.470000e+02 7.057854e-06
9.480000e+02 1.418036e-02
9.490000e+02 2.716213e-03
9.500000e+02 9.750563e-05
9.510000e+02 1.642956e-03
9.520000e+02 3.178949e-03
9.530000e+02 3.343179e-05
9.540000e+02 8.479892e-06
9.550000e+02 3.497303e-04
9.560000e+02 4.670805e-02
9.570000e+02 1.920685e-04
9.580000e+02 6.697199e-06
9.590000e+02 1.487294e-02
9.600000e+02 1.781625e-04
9.610000e+02 2.378976e-03
9.620000e+02 9.316727e-04
9.630000e+02 2.468675e-04
9.640000e+02 5.044765e-05
9.650000e+02 2.109259e-05
9.660000e+02 3.794953e-04
9.670000e+02 7.854309e-05
9.680000e+02 5.311891e-05
9.690000e+02 2.125686e-03
9.700000e+02 2.201091e-03
9.710000e+02 1.115283e-04
9.720000e+02 6.815523e-05
9.730000e+02 7.918497e-04
9.740000e+02 2.686278e-03
9.750000e+02 7.463967e-04
9.760000e+02 2.028917e-02
9.770000e+02 9.410016e-03
9.780000e+02 3.555401e-03
9.790000e+02 1.942080e-01
9.800000e+02 1.569685e-01
9.810000e+02 2.602898e-03
9.820000e+02 5.304627e-04
9.830000e+02 7.001620e-02
9.840000e+02 1.115822e-02
9.850000e+02 1.319681e-03
9.860000e+02 2.057221e-03
9.870000e+02 8.156873e-02
9.880000e+02 6.128103e-05
9.890000e+02 1.135374e-02
9.900000e+02 3.465854e-02
9.910000e+02 5.086957e-04
9.920000e+02 4.223500e-05
9.930000e+02 3.817590e-01
9.940000e+02 1.187348e-04
9.950000e+02 1.842704e-02
9.960000e+02 1.861304e-04
9.970000e+02 2.311335e-02
9.980000e+02 3.821374e-02
9.990000e+02 9.601372e-04
1.000000e+03 6.714329e-01
1.001000e+03 4.931764e-01
1.002000e+03 2.395352e-01
1.003000e+03 1.022577e-03
1.004000e+03 1.145303e-04
1.005000e+03 3.142238e-03
1.006000e+03 1.387435e-01
1.007000e+03 3.029263e-01
1.008000e+03 6.452298e-02
1.009000e+03 1.617474e-03
1.010000e+03 7.001320e-02
1.011000e+03 1.256898e-01
1.012000e+03 9.079083e-02
1.013000e+03 8.008715e-02
1.014000e+03 1.308247e-04
1.015000e+03 1.925826e-04
1.016000e+03 3.903434e-03
1.017000e+03 1.501888e-04
1.018000e+03 1.587108e-03
1.019000e+03 2.049208e-04
1.020000e+03 2.406723e-01
1.021000e+03 2.552032e-03
1.022000e+03 3.784478e-03
1.023000e+03 3.513396e-04
1.024000e+03 6.995222e-02
1.025000e+03 2.231202e-04
1.026000e+03 5.016960e-04
1.027000e+03 1.422884e-02
1.028000e+03 3.347382e-03
1.029000e+03 2.734140e-04
1.030000e+03 1.613927e-02
1.031000e+03 2.396047e-02
1.032000e+03 2.872959e-01
1.033000e+03 2.469113e-02
1.034000e+03 3.465740e-02
1.035000e+03 2.328768e-03
1.036000e+03 3.908947e-04
1.037000e+03 2.129551e-01
1.038000e+03 1.511441e+00
1.039000e+03 2.209454e-01
1.040000e+03 2.480851e-01
1.041000e+03 2.106378e+00
1.042000e+03 7.975786e-01
1.043000e+03 8.575677e-01
1.044000e+03 6.493506e+00
1.045000e+03 1.681961e-03
1.046000e+03 2.508078e-01
1.047000e+03 7.630312e-02
1.048000e+03 2.494186e-03
1.049000e+03 8.380821e-02
1.050000e+03 2.946019e-02
1.051000e+03 1.663554e-02
1.052000e+03 9.383218e-01
1.053000e+03 2.213770e+00
1.054000e+03 9.025931e-04
1.055000e+03 3.034601e+00
1.056000e+03 3.186828e+00
1.057000e+03 2.109278e-01
1.058000e+03 1.754777e-02
1.059000e+03 1.263738e-02
1.060000e+03 3.938258e-03
1.061000e+03 3.322992e-01
1.062000e+03 9.713044e-03
1.063000e+03 3.177511e-01
1.064000e+03 3.198624e-03
1.065000e+03 1.499772e-03
1.066000e+03 4.802770e-01
1.067000e+03 1.017582e-02
1.068000e+03 8.799589e+00
1.069000e+03 3.319874e-03
1.070000e+03 1.333818e-01
1.071000e+03 1.945255e+00
1.072000e+03 5.111108e+00
1.073000e+03 2.233505e-03
1.074000e+03 2.316065e-01
1.075000e+03 1.390018e-01
1.076000e+03 5.950194e+00
1.077000e+03 1.410046e-02
1.078000e+03 2.372885e-02
1.079000e+03 9.723954e-02
1.080000e+03 3.148400e-01
1.081000e+03 1.179407e+00
1.082000e+03 7.095785e-01
1.083000e+03 3.956919e-01
1.084000e+03 2.051204e+01
1.085000e+03 1.156292e-01
1.086000e+03 1.140584e+01
1.087000e+03 2.590084e-02
1.088000e+03 3.089286e+01
1.089000e+03 3.020624e+01
1.090000e+03 9.284446e-02
1.091000e+03 1.270180e-01
1.092000e+03 1.666340e+01
1.093000e+03 2.209840e+01
1.094000e+03 1.059324e+00
1.095000e+03 4.106250e+01
1.096000e+03 4.931920e+00
1.097000e+03 3.850191e+00
1.098000e+03 3.214484e+01
1.099000e+03 3.385544e-01
1.100000e+03 1.110053e-02
1.101000e+03 2.449160e-02
1.102000e+03 2.093374e-01
1.103000e+03 2.394465e+01
1.104000e+03 5.251615e+01
1.105000e+03 3.453990e+01
1.106000e+03 9.232412e-01
1.107000e+03 1.604652e-02
1.108000e+03 5.230029e+00
1.109000e+03 1.268291e-01
1.110000e+03 6.256917e+01
1.111000e+03 1.714860e+01
1.112000e+03 2.470643e+00
1.113000e+03 3.727369e+01
1.114000e+03 1.557602e+00
1.115000e+03 1.737829e-01
1.116000e+03 8.187956e-02
1.117000e+03 1.760113e+01
1.118000e+03 2.068238e-01
1.119000e+03 3.144007e+00
1.120000e+03 1.023655e-01
1.121000e+03 1.197068e+01
1.122000e+03 8.187068e+01
1.123000e+03 2.556694e+01
1.124000e+03 2.924461e+01
1.125000e+03 1.223825e+01
1.126000e+03 1.814910e+02
1.127000e+03 1.867921e+01
1.128000e+03 8.398170e+01
1.129000e+03 7.953831e+00
1.130000e+03 4.712518e+01
1.131000e+03 8.572050e+01
1.132000e+03 1.865499e-01
1.133000e+03 9.224854e-01
1.134000e+03 9.095955e+00
1.135000e+03 6.553112e+01
1.136000e+03 1.984463e+00
1.137000e+03 3.500206e+01
1.138000e+03 7.756112e+00
1.139000e+03 8.657991e+01
1.140000e+03 9.400986e+01
1.141000e+03 6.683346e+01
1.142000e+03 1.200306e+02
1.143000e+03 1.213922e+01
1.144000e+03 1.123843e+02
1.145000e+03 1.079636e-01
1.146000e+03 1.389618e+02
1.147000e+03 8.597234e+01
1.148000e+03 6.241302e-01
1.149000e+03 4.022596e+01
1.150000e+03 2.477984e+01
1.151000e+03 1.261627e+02
1.152000e+03 6.130626e+01
1.153000e+03 8.973127e+01
1.154000e+03 1.469153e+02
1.155000e+03 3.470496e+01
1.156000e+03 1.200362e+02
1.157000e+03 1.380791e+02
1.158000e+03 1.371890e+01
1.159000e+03 1.105583e+02
1.160000e+03 1.598369e+01
1.161000e+03 9.253083e+01
1.162000e+03 2.504570e+00
1.163000e+03 7.648514e+00
1.164000e+03 9.833145e-01
1.165000e+03 4.652505e+01
1.166000e+03 2.682587e+01
1.167000e+03 2.457444e+01
1.168000e+03 1.409797e+02
1.169000e+03 1.573547e+02
1.170000e+03 1.833015e+01
1.171000e+03 6.637822e+01
1.172000e+03 2.336839e+01
1.173000e+03 6.391043e+01
1.174000e+03 5.740356e-01
1.175000e+03 6.108875e-01
1.176000e+03 2.225342e-01
1.177000e+03 1.935299e+02
1.178000e+03 1.897380e+02
1.179000e+03 1.464187e+02
1.180000e+03 4.972973e+01
1.181000e+03 1.697590e+02
1.182000e+03 1.307697e+02
1.183000e+03 5.449055e+01
1.184000e+03 4.356761e+01
1.185000e+03 5.895148e+01
1.186000e+03 2.700458e+00
1.187000e+03 9.322726e+01
1.188000e+03 3.222488e+01
1.189000e+03 1.410153e+02
1.190000e+03 1.318154e+02
1.191000e+03 8.330484e+01
1.192000e+03 1.083629e+02
1.193000e+03 7.159091e+01
1.194000e+03 1.036995e+02
1.195000e+03 9.812678e+01
1.196000e+03 3.387617e+02
1.197000e+03 8.172125e+02
1.198000e+03 7.517303e+00
1.199000e+03 7.616420e+02
1.200000e+03 2.066151e+01
1.201000e+03 5.688762e+02
1.202000e+03 1.035650e+02
1.203000e+03 3.582140e+02
1.204000e+03 2.074067e+01
1.205000e+03 2.476681e+02
1.206000e+03 2.630573e+02
1.207000e+03 7.315689e+01
1.208000e+03 1.548712e+02
1.209000e+03 1.524063e+02
1.210000e+03 9.946518e-01
1.211000e+03 6.669740e+01
1.212000e+03 2.776522e+01
1.213000e+03 1.899753e+01
1.214000e+03 6.312680e+00
1.215000e+03 9.519007e-01
1.216000e+03 6.056734e-01
1.217000e+03 4.018681e+00
1.218000e+03 1.596516e+01
1.219000e+03 3.795159e+01
1.220000e+03 2.111818e+01
1.221000e+03 1.219742e+02
1.222000e+03 1.367805e+02
1.223000e+03 1.289715e+02
1.224000e+03 3.476233e+02
1.225000e+03 1.202133e+01
1.226000e+03 6.394611e+02
1.227000e+03 6.746730e+02
1.228000e+03 7.123056e+01
1.229000e+03 5.442118e+02
1.230000e+03 3.675286e+02
1.231000e+03 4.381836e+01
1.232000e+03 1.625632e+03
1.233000e+03 1.877279e+03
1.234000e+03 1.772232e+03
1.235000e+03 1.399001e+03
1.236000e+03 1.067094e+02
1.237000e+03 2.222634e+03
1.238000e+03 1.709190e+03
1.239000e+03 6.479127e+02
1.240000e+03 1.383742e+03
1.241000e+03 6.653961e+02
1.242000e+03 1.534704e+03
1.243000e+03 2.999753e+03
1.244000e+03 3.447160e+03
1.245000e+03 2.763817e+03
1.246000e+03 1.343698e+03
1.247000e+03 2.059529e+03
1.248000e+03 3.362042e+03
1.249000e+03 4.416480e+03
1.250000e+03 2.600590e+03
1.251000e+03 4.112033e+03
1.252000e+03 2.538023e+03
1.253000e+03 4.572550e+03
1.254000e+03 2.844022e+03
1.255000e+03 1.852828e+03
1.256000e+03 2.222452e+03
1.257000e+03 3.146987e+03
1.258000e+03 9.392197e+02
1.259000e+03 1.657391e+03
1.260000e+03 4.617209e+03
1.261000e+03 2.750166e+02
1.262000e+03 5.400306e+03
1.263000e+03 3.683319e+03
1.264000e+03 1.277792e+03
1.265000e+03 1.239638e+03
1.266000e+03 5.014621e+03
1.267000e+03 1.976885e+03
