# wavelength_A flux
5.000000e+02 2.988773e-40
5.010000e+02 3.869125e-40
5.020000e+02 5.004051e-40
5.030000e+02 6.465045e-40
5.040000e+02 8.344494e-40
5.050000e+02 3.032011e-39
5.060000e+02 3.882405e-39
5.070000e+02 4.966715e-39
5.080000e+02 6.348012e-39
5.090000e+02 8.106046e-39
5.100000e+02 1.034155e-38
5.110000e+02 1.318250e-38
5.120000e+02 1.678803e-38
5.130000e+02 2.136005e-38
5.140000e+02 2.715310e-38
5.150000e+02 3.448608e-38
5.160000e+02 4.376350e-38
5.170000e+02 5.548186e-38
5.180000e+02 7.028717e-38
5.190000e+02 8.896805e-38
5.200000e+02 1.125043e-37
5.210000e+02 1.421345e-37
5.220000e+02 1.786219e-37
5.230000e+02 2.262876e-37
5.240000e+02 2.852695e-37
5.250000e+02 3.592404e-37
5.260000e+02 4.520509e-37
5.270000e+02 5.683055e-37
5.280000e+02 7.138821e-37
5.290000e+02 8.955553e-37
5.300000e+02 1.120608e-36
5.310000e+02 1.407489e-36
5.320000e+02 1.762971e-36
5.330000e+02 2.205712e-36
5.340000e+02 2.757242e-36
5.350000e+02 3.443875e-36
5.360000e+02 4.296929e-36
5.370000e+02 3.029256e-36
5.380000e+02 6.677820e-36
5.390000e+02 8.317080e-36
5.400000e+02 1.035144e-35
5.410000e+02 1.286908e-35
5.420000e+02 1.599003e-35
5.430000e+02 1.985082e-35
5.440000e+02 2.462515e-35
5.450000e+02 3.052494e-35
5.460000e+02 3.779885e-35
5.470000e+02 4.679950e-35
5.480000e+02 5.788353e-35
5.490000e+02 7.154052e-35
5.500000e+02 8.835753e-35
5.510000e+02 1.090463e-34
5.520000e+02 1.344827e-34
5.530000e+02 1.657341e-34
5.540000e+02 2.041026e-34
5.550000e+02 2.511761e-34
5.560000e+02 3.088892e-34
5.570000e+02 3.795978e-34
5.580000e+02 4.661682e-34
5.590000e+02 5.720857e-34
5.600000e+02 7.015896e-34
5.610000e+02 8.598362e-34
5.620000e+02 1.053033e-33
5.630000e+02 1.288765e-33
5.640000e+02 1.576208e-33
5.650000e+02 1.926468e-33
5.660000e+02 2.352994e-33
5.670000e+02 2.872049e-33
5.680000e+02 3.503292e-33
5.690000e+02 4.270474e-33
5.700000e+02 5.202260e-33
5.710000e+02 6.333400e-33
5.720000e+02 7.705303e-33
5.730000e+02 9.368355e-33
5.740000e+02 1.138306e-32
5.750000e+02 1.383128e-32
5.760000e+02 1.667402e-32
5.770000e+02 2.035507e-32
5.780000e+02 2.466983e-32
5.790000e+02 2.988042e-32
5.800000e+02 3.616874e-32
5.810000e+02 4.375339e-32
5.820000e+02 5.289043e-32
5.830000e+02 6.387088e-32
5.840000e+02 7.622324e-32
5.850000e+02 9.285632e-32
5.860000e+02 1.122874e-31
5.870000e+02 1.353385e-31
5.880000e+02 1.631052e-31
5.890000e+02 1.963669e-31
5.900000e+02 2.362878e-31
5.910000e+02 2.841293e-31
5.920000e+02 3.414828e-31
5.930000e+02 4.101576e-31
5.940000e+02 4.923580e-31
5.950000e+02 5.906924e-31
5.960000e+02 7.082610e-31
5.970000e+02 8.487465e-31
5.980000e+02 1.016521e-30
5.990000e+02 1.216775e-30
6.000000e+02 1.455701e-30
6.010000e+02 1.738050e-30
6.020000e+02 2.079917e-30
6.030000e+02 2.484117e-30
6.040000e+02 2.965242e-30
6.050000e+02 3.537613e-30
6.060000e+02 4.218197e-30
6.070000e+02 5.026955e-30
6.080000e+02 5.987549e-30
6.090000e+02 7.128064e-30
6.100000e+02 8.481058e-30
6.110000e+02 1.008551e-29
6.120000e+02 1.198715e-29
6.130000e+02 1.423984e-29
6.140000e+02 1.690702e-29
6.150000e+02 2.006330e-29
6.160000e+02 2.379644e-29
6.170000e+02 2.821045e-29
6.180000e+02 3.342503e-29
6.190000e+02 3.958309e-29
6.200000e+02 4.685250e-29
6.210000e+02 5.542820e-29
6.220000e+02 6.554050e-29
6.230000e+02 7.745860e-29
6.240000e+02 9.149859e-29
6.250000e+02 1.080294e-28
6.260000e+02 1.274854e-28
6.270000e+02 1.503689e-28
6.280000e+02 1.772735e-28
6.290000e+02 2.088894e-28
6.300000e+02 2.459830e-28
6.310000e+02 2.866145e-28
6.320000e+02 3.402136e-28
6.330000e+02 4.000860e-28
6.340000e+02 4.711239e-28
6.350000e+02 5.534204e-28
6.360000e+02 6.500092e-28
6.370000e+02 7.630959e-28
6.380000e+02 8.953342e-28
6.390000e+02 1.049999e-27
6.400000e+02 1.230808e-27
6.410000e+02 1.442084e-27
6.420000e+02 1.688849e-27
6.430000e+02 1.976933e-27
6.440000e+02 2.313102e-27
6.450000e+02 2.705001e-27
6.460000e+02 3.162341e-27
6.470000e+02 3.695087e-27
6.480000e+02 4.315577e-27
6.490000e+02 5.038098e-27
6.500000e+02 5.878068e-27
6.510000e+02 6.856780e-27
6.520000e+02 7.994344e-27
6.530000e+02 9.316173e-27
6.540000e+02 1.085189e-26
6.550000e+02 1.263523e-26
6.560000e+02 1.470524e-26
6.570000e+02 1.710646e-26
6.580000e+02 1.989248e-26
6.590000e+02 2.312184e-26
6.600000e+02 2.686343e-26
6.610000e+02 3.119796e-26
6.620000e+02 3.621617e-26
6.630000e+02 4.202388e-26
6.640000e+02 4.874250e-26
6.650000e+02 5.651148e-26
6.660000e+02 6.549202e-26
6.670000e+02 7.586793e-26
6.680000e+02 8.785201e-26
6.690000e+02 1.016871e-25
6.700000e+02 1.176529e-25
6.710000e+02 1.360709e-25
6.720000e+02 1.573074e-25
6.730000e+02 1.817849e-25
6.740000e+02 2.099868e-25
6.750000e+02 2.424668e-25
6.760000e+02 2.798591e-25
6.770000e+02 3.228896e-25
6.780000e+02 3.723900e-25
6.790000e+02 4.293042e-25
6.800000e+02 4.947342e-25
6.810000e+02 5.699070e-25
6.820000e+02 6.562466e-25
6.830000e+02 7.553787e-25
6.840000e+02 8.691441e-25
6.850000e+02 9.996486e-25
6.860000e+02 1.149333e-24
6.870000e+02 1.320913e-24
6.880000e+02 1.517532e-24
6.890000e+02 1.742758e-24
6.900000e+02 2.000657e-24
6.910000e+02 2.295860e-24
6.920000e+02 2.633637e-24
6.930000e+02 3.019984e-24
6.940000e+02 3.461747e-24
6.950000e+02 3.966639e-24
6.960000e+02 4.543505e-24
6.970000e+02 5.202279e-24
6.980000e+02 5.954555e-24
6.990000e+02 6.813046e-24
7.000000e+02 7.792487e-24
7.010000e+02 8.909517e-24
7.020000e+02 1.018301e-23
7.030000e+02 1.162752e-23
7.040000e+02 1.328784e-23
7.050000e+02 1.517074e-23
7.060000e+02 1.731469e-23
7.070000e+02 1.975464e-23
7.080000e+02 2.253031e-23
7.090000e+02 2.568673e-23
7.100000e+02 2.927578e-23
7.110000e+02 3.335436e-23
7.120000e+02 3.798802e-23
7.130000e+02 4.325050e-23
7.140000e+02 4.922517e-23
7.150000e+02 5.600570e-23
7.160000e+02 6.369949e-23
7.170000e+02 7.242468e-23
7.180000e+02 8.231711e-23
7.190000e+02 9.353016e-23
7.200000e+02 1.062344e-22
7.210000e+02 1.206242e-22
7.220000e+02 1.369174e-22
7.230000e+02 1.553598e-22
7.240000e+02 1.762281e-22
7.250000e+02 1.998337e-22
7.260000e+02 2.265189e-22
7.270000e+02 2.567033e-22
7.280000e+02 2.908030e-22
7.290000e+02 3.293256e-22
7.300000e+02 3.728313e-22
7.310000e+02 4.219477e-22
7.320000e+02 4.773815e-22
7.330000e+02 5.399252e-22
7.340000e+02 6.104685e-22
7.350000e+02 6.900095e-22
7.360000e+02 7.796521e-22
7.370000e+02 8.806998e-22
7.380000e+02 9.945120e-22
7.390000e+02 1.122679e-21
7.400000e+02 1.266962e-21
7.410000e+02 1.429358e-21
7.420000e+02 1.612055e-21
7.430000e+02 1.817560e-21
7.440000e+02 2.048624e-21
7.450000e+02 2.308358e-21
7.460000e+02 2.600232e-21
7.470000e+02 2.928116e-21
7.480000e+02 3.296347e-21
7.490000e+02 3.709767e-21
7.500000e+02 4.173783e-21
7.510000e+02 4.694372e-21
7.520000e+02 5.278449e-21
7.530000e+02 5.933359e-21
7.540000e+02 6.667548e-21
7.550000e+02 7.490374e-21
7.560000e+02 8.412265e-21
7.570000e+02 9.444511e-21
7.580000e+02 1.060108e-20
7.590000e+02 1.189536e-20
7.600000e+02 1.334387e-20
7.610000e+02 1.496440e-20
7.620000e+02 1.677690e-20
7.630000e+02 1.880352e-20
7.640000e+02 2.106892e-20
7.650000e+02 2.360034e-20
7.660000e+02 2.642878e-20
7.670000e+02 2.958759e-20
7.680000e+02 3.311442e-20
7.690000e+02 3.663535e-20
7.700000e+02 4.144523e-20
7.710000e+02 4.634679e-20
7.720000e+02 5.181364e-20
7.730000e+02 5.790926e-20
7.740000e+02 6.470412e-20
7.750000e+02 7.227637e-20
7.760000e+02 8.069224e-20
7.770000e+02 9.010911e-20
7.780000e+02 1.005720e-19
7.790000e+02 1.122192e-19
7.800000e+02 1.251815e-19
7.810000e+02 1.396033e-19
7.820000e+02 1.556447e-19
7.830000e+02 1.734830e-19
7.840000e+02 1.933142e-19
7.850000e+02 2.153549e-19
7.860000e+02 2.398442e-19
7.870000e+02 2.670648e-19
7.880000e+02 2.972785e-19
7.890000e+02 3.308235e-19
7.900000e+02 3.680574e-19
7.910000e+02 4.093760e-19
7.920000e+02 4.552140e-19
7.930000e+02 5.060534e-19
7.940000e+02 5.624255e-19
7.950000e+02 6.249165e-19
7.960000e+02 6.941730e-19
7.970000e+02 7.709080e-19
7.980000e+02 8.559070e-19
7.990000e+02 9.500349e-19
8.000000e+02 1.054254e-18
8.010000e+02 1.169606e-18
8.020000e+02 1.297258e-18
8.030000e+02 1.438479e-18
8.040000e+02 1.594676e-18
8.050000e+02 1.767396e-18
8.060000e+02 1.958337e-18
8.070000e+02 2.169369e-18
8.080000e+02 2.402551e-18
8.090000e+02 2.660146e-18
8.100000e+02 2.944638e-18
8.110000e+02 3.258763e-18
8.120000e+02 3.605519e-18
8.130000e+02 3.988212e-18
8.140000e+02 4.410456e-18
8.150000e+02 4.876233e-18
8.160000e+02 5.389908e-18
8.170000e+02 5.956232e-18
8.180000e+02 6.580590e-18
8.190000e+02 7.268612e-18
8.200000e+02 8.026672e-18
8.210000e+02 8.861699e-18
8.220000e+02 9.781307e-18
8.230000e+02 1.079381e-17
8.240000e+02 1.190834e-17
8.250000e+02 1.313491e-17
8.260000e+02 1.448444e-17
8.270000e+02 1.596895e-17
8.280000e+02 1.760154e-17
8.290000e+02 1.939659e-17
8.300000e+02 2.136982e-17
8.310000e+02 2.353844e-17
8.320000e+02 2.592120e-17
8.330000e+02 2.853871e-17
8.340000e+02 3.141343e-17
8.350000e+02 3.454270e-17
8.360000e+02 3.803509e-17
8.370000e+02 4.183821e-17
8.380000e+02 4.600920e-17
8.390000e+02 5.058909e-17
8.400000e+02 5.561085e-17
8.410000e+02 6.111711e-17
8.420000e+02 6.715335e-17
8.430000e+02 7.377057e-17
8.440000e+02 8.102167e-17
8.450000e+02 8.896599e-17
8.460000e+02 9.766804e-17
8.470000e+02 1.071981e-16
8.480000e+02 1.176326e-16
8.490000e+02 1.290550e-16
8.500000e+02 1.415562e-16
8.510000e+02 1.552352e-16
8.520000e+02 1.701996e-16
8.530000e+02 1.865673e-16
8.540000e+02 2.044660e-16
8.550000e+02 2.240343e-16
8.560000e+02 2.454230e-16
8.570000e+02 2.687986e-16
8.580000e+02 2.935804e-16
8.590000e+02 3.222374e-16
8.600000e+02 3.527077e-16
8.610000e+02 3.859793e-16
8.620000e+02 4.223025e-16
8.630000e+02 4.619475e-16
8.640000e+02 5.052134e-16
8.650000e+02 5.523819e-16
8.660000e+02 6.039082e-16
8.670000e+02 6.600648e-16
8.680000e+02 7.212972e-16
8.690000e+02 7.880513e-16
8.700000e+02 8.608094e-16
8.710000e+02 9.400970e-16
8.720000e+02 1.026482e-15
8.730000e+02 1.120581e-15
8.740000e+02 1.223065e-15
8.750000e+02 1.334656e-15
8.760000e+02 1.456141e-15
8.770000e+02 1.588364e-15
8.780000e+02 1.732175e-15
8.790000e+02 1.888836e-15
8.800000e+02 2.059151e-15
8.810000e+02 2.244387e-15
8.820000e+02 2.445813e-15
8.830000e+02 2.664613e-15
8.840000e+02 2.902836e-15
8.850000e+02 3.161529e-15
8.860000e+02 3.442614e-15
8.870000e+02 3.747977e-15
8.880000e+02 4.079648e-15
8.890000e+02 4.439835e-15
8.900000e+02 4.830909e-15
8.910000e+02 5.255437e-15
8.920000e+02 5.715906e-15
8.930000e+02 6.216191e-15
8.940000e+02 6.758657e-15
8.950000e+02 7.347096e-15
8.960000e+02 7.985285e-15
8.970000e+02 8.677305e-15
8.980000e+02 9.427561e-15
8.990000e+02 1.024081e-14
9.000000e+02 1.112216e-14
9.010000e+02 1.207717e-14
9.020000e+02 1.311179e-14
9.030000e+02 1.423245e-14
9.040000e+02 1.544611e-14
9.050000e+02 1.676020e-14
9.060000e+02 1.818290e-14
9.070000e+02 1.972029e-14
9.080000e+02 2.138927e-14
9.090000e+02 2.319242e-14
9.100000e+02 2.514312e-14
9.110000e+02 2.725363e-14
9.120000e+02 2.954215e-14
9.130000e+02 2.907669e-14
9.140000e+02 9.947598e-14
9.150000e+02 3.817019e-07
9.160000e+02 1.776807e-06
9.170000e+02 1.865413e-06
9.180000e+02 1.952536e-06
9.190000e+02 2.055560e-06
9.200000e+02 2.158352e-06
9.210000e+02 5.511390e-14
9.220000e+02 2.366612e-06
9.230000e+02 2.437424e-06
9.240000e+02 2.621604e-06
9.250000e+02 2.446324e-06
9.260000e+02 2.806318e-06
9.270000e+02 2.882522e-06
9.280000e+02 3.175013e-06
9.290000e+02 1.939907e-08
9.300000e+02 1.345314e-06
9.310000e+02 3.425543e-06
9.320000e+02 3.841295e-06
9.330000e+02 4.022901e-06
9.340000e+02 3.782355e-06
9.350000e+02 2.104343e-09
9.360000e+02 3.797647e-06
9.370000e+02 4.532623e-10
9.380000e+02 2.352463e-09
9.390000e+02 5.200872e-06
9.400000e+02 5.460347e-06
9.410000e+02 6.466323e-09
9.420000e+02 5.972897e-06
9.430000e+02 2.750626e-06
9.440000e+02 5.325228e-06
9.450000e+02 6.722018e-06
9.460000e+02 6.952537e-06
9.470000e+02 3.663820e-08
9.480000e+02 5.972254e-08
9.490000e+02 7.431364e-06
9.500000e+02 3.390142e-10
9.510000e+02 8.514245e-06
9.520000e+02 9.185806e-06
9.530000e+02 3.293541e-06
9.540000e+02 1.411956e-07
9.550000e+02 7.606625e-06
9.560000e+02 1.030799e-08
9.570000e+02 4.808071e-07
9.580000e+02 1.035542e-07
9.590000e+02 1.364809e-05
9.600000e+02 2.177330e-09
9.610000e+02 1.389664e-05
9.620000e+02 1.487174e-05
9.630000e+02 9.338139e-06
9.640000e+02 2.683009e-10
9.650000e+02 6.946402e-07
9.660000e+02 1.595542e-05
9.670000e+02 7.505456e-06
9.680000e+02 5.229108e-06
9.690000e+02 1.604403e-05
9.700000e+02 2.078608e-05
9.710000e+02 9.323638e-06
9.720000e+02 3.242431e-06
9.730000e+02 7.764715e-06
9.740000e+02 1.749164e-05
9.750000e+02 2.173586e-05
9.760000e+02 3.021406e-05
9.770000e+02 3.204728e-05
9.780000e+02 3.166289e-05
9.790000e+02 3.612031e-05
9.800000e+02 3.778588e-05
9.810000e+02 3.829011e-05
9.820000e+02 3.328210e-05
9.830000e+02 4.293881e-05
9.840000e+02 8.574685e-07
9.850000e+02 4.504448e-06
9.860000e+02 2.497205e-05
9.870000e+02 5.367725e-05
9.880000e+02 1.226615e-06
9.890000e+02 5.090361e-05
9.900000e+02 4.619339e-07
9.910000e+02 2.562871e-05
9.920000e+02 2.044389e-07
9.930000e+02 3.712377e-05
9.940000e+02 1.302396e-09
9.950000e+02 1.595934e-06
9.960000e+02 3.989298e-06
9.970000e+02 5.264155e-09
9.980000e+02 8.736963e-05
9.990000e+02 1.980520e-05
1.000000e+03 8.759875e-05
1.001000e+03 6.834693e-05
1.002000e+03 1.202256e-04
1.003000e+03 7.746764e-05
1.004000e+03 4.106230e-06
1.005000e+03 1.129837e-04
1.006000e+03 1.469370e-04
1.007000e+03 1.540521e-04
1.008000e+03 1.543771e-04
1.009000e+03 4.934816e-05
1.010000e+03 1.805559e-04
1.011000e+03 1.882322e-04
1.012000e+03 1.983813e-04
1.013000e+03 2.093117e-04
1.014000e+03 6.313494e-07
1.015000e+03 3.366382e-06
1.016000e+03 1.171242e-04
1.017000e+03 9.031210e-07
1.018000e+03 1.725631e-04
1.019000e+03 8.714182e-06
1.020000e+03 2.779829e-04
1.021000e+03 7.739582e-07
1.022000e+03 5.998075e-05
1.023000e+03 2.464134e-05
1.024000e+03 1.816748e-06
1.025000e+03 4.729857e-07
1.026000e+03 4.647083e-07
1.027000e+03 8.472220e-06
1.028000e+03 1.007866e-07
1.029000e+03 1.362700e-06
1.030000e+03 1.106754e-04
1.031000e+03 3.682778e-04
1.032000e+03 1.257505e-04
1.033000e+03 2.103945e-06
1.034000e+03 4.592884e-04
1.035000e+03 3.393507e-08
1.036000e+03 3.510679e-06
1.037000e+03 6.392042e-04
1.038000e+03 6.956488e-04
1.039000e+03 6.664808e-04
1.040000e+03 7.516565e-04
1.041000e+03 5.117161e-04
1.042000e+03 8.423320e-04
1.043000e+03 4.048008e-04
1.044000e+03 9.248679e-04
1.045000e+03 9.640928e-04
1.046000e+03 9.994340e-04
1.047000e+03 9.542868e-04
1.048000e+03 2.501097e-04
1.049000e+03 8.823196e-04
1.050000e+03 6.756338e-04
1.051000e+03 5.161342e-04
1.052000e+03 1.299967e-03
1.053000e+03 1.380140e-03
1.054000e+03 5.545560e-06
1.055000e+03 9.863288e-06
1.056000e+03 1.591642e-03
1.057000e+03 1.502050e-03
1.058000e+03 1.305508e-03
1.059000e+03 1.025623e-03
1.060000e+03 1.611116e-04
1.061000e+03 1.974416e-03
1.062000e+03 1.258980e-03
1.063000e+03 2.299175e-07
1.064000e+03 2.724119e-08
1.065000e+03 1.341291e-05
1.066000e+03 4.230766e-06
1.067000e+03 1.173926e-04
1.068000e+03 2.711999e-03
1.069000e+03 2.181153e-04
1.070000e+03 2.702681e-03
1.071000e+03 3.053365e-03
1.072000e+03 3.211845e-03
1.073000e+03 4.275772e-05
1.074000e+03 3.365793e-03
1.075000e+03 2.669060e-03
1.076000e+03 3.044248e-04
1.077000e+03 2.315966e-06
1.078000e+03 2.727087e-03
1.079000e+03 3.863562e-03
1.080000e+03 3.323858e-03
1.081000e+03 4.406146e-03
1.082000e+03 3.623808e-03
1.083000e+03 4.137363e-04
1.084000e+03 3.912914e-03
1.085000e+03 1.193585e-03
1.086000e+03 5.690443e-03
1.087000e+03 2.422305e-03
1.088000e+03 5.113931e-03
1.089000e+03 6.358131e-03
1.090000e+03 5.499728e-03
1.091000e+03 3.612194e-03
1.092000e+03 4.238531e-04
1.093000e+03 6.476090e-03
1.094000e+03 6.446763e-03
1.095000e+03 7.748735e-03
1.096000e+03 2.835547e-04
1.097000e+03 2.679815e-03
1.098000e+03 2.171057e-04
1.099000e+03 7.327969e-03
1.100000e+03 3.854797e-04
1.101000e+03 1.583315e-03
1.102000e+03 8.608867e-03
1.103000e+03 1.028077e-02
1.104000e+03 1.105837e-02
1.105000e+03 1.034055e-02
1.106000e+03 1.143947e-02
1.107000e+03 1.497874e-03
1.108000e+03 1.162004e-02
1.109000e+03 6.195604e-03
1.110000e+03 1.172321e-02
1.111000e+03 1.332319e-02
1.112000e+03 1.353306e-02
1.113000e+03 1.225067e-02
1.114000e+03 9.850156e-03
1.115000e+03 8.949167e-03
1.116000e+03 6.208318e-03
1.117000e+03 1.491840e-02
1.118000e+03 9.871149e-03
1.119000e+03 1.600695e-02
1.120000e+03 9.668240e-03
1.121000e+03 1.635083e-02
1.122000e+03 2.119916e-03
1.123000e+03 1.700639e-02
1.124000e+03 1.814442e-02
1.125000e+03 1.797960e-02
1.126000e+03 1.903834e-02
1.127000e+03 1.861907e-02
1.128000e+03 1.707901e-02
1.129000e+03 1.941100e-02
1.130000e+03 1.552116e-02
1.131000e+03 1.952271e-02
1.132000e+03 2.280319e-03
1.133000e+03 1.939297e-02
1.134000e+03 1.790676e-02
1.135000e+03 2.847239e-05
1.136000e+03 2.045824e-02
1.137000e+03 2.428286e-02
1.138000e+03 2.441376e-02
1.139000e+03 2.540615e-02
1.140000e+03 2.217226e-02
1.141000e+03 2.657211e-02
1.142000e+03 2.717412e-02
1.143000e+03 2.531854e-02
1.144000e+03 2.644104e-02
1.145000e+03 7.524967e-03
1.146000e+03 2.938090e-02
1.147000e+03 3.020243e-02
1.148000e+03 2.644496e-02
1.149000e+03 3.111027e-02
1.150000e+03 3.074019e-02
1.151000e+03 3.319590e-02
1.152000e+03 3.390798e-02
1.153000e+03 3.203508e-02
1.154000e+03 3.381466e-02
1.155000e+03 3.573117e-02
1.156000e+03 1.539029e-04
1.157000e+03 3.678976e-02
1.158000e+03 2.924233e-02
1.159000e+03 3.891128e-02
1.160000e+03 3.993591e-02
1.161000e+03 4.103263e-02
1.162000e+03 1.737479e-02
1.163000e+03 4.110935e-02
1.164000e+03 7.819757e-05
1.165000e+03 4.472808e-02
1.166000e+03 4.597585e-02
1.167000e+03 4.715884e-02
1.168000e+03 4.667787e-02
1.169000e+03 1.442574e-02
1.170000e+03 5.059784e-02
1.171000e+03 5.236681e-02
1.172000e+03 5.360629e-02
1.173000e+03 5.520888e-02
1.174000e+03 3.131535e-02
1.175000e+03 1.012534e-04
1.176000e+03 2.319738e-05
1.177000e+03 6.105926e-02
1.178000e+03 6.210893e-02
1.179000e+03 6.411552e-02
1.180000e+03 6.333096e-02
1.181000e+03 6.636971e-02
1.182000e+03 6.865836e-02
1.183000e+03 7.026543e-02
1.184000e+03 6.860697e-02
1.185000e+03 7.406136e-02
1.186000e+03 2.313812e-02
1.187000e+03 7.590082e-02
1.188000e+03 7.637894e-02
1.189000e+03 7.225889e-02
1.190000e+03 8.035519e-02
1.191000e+03 8.351383e-02
1.192000e+03 8.416385e-02
1.193000e+03 4.464204e-02
1.194000e+03 8.115323e-02
1.195000e+03 8.793341e-02
1.196000e+03 8.797418e-02
1.197000e+03 1.591269e-01
1.198000e+03 1.474873e-01
1.199000e+03 1.365357e-01
1.200000e+03 1.405981e-01
1.201000e+03 1.467346e-01
1.202000e+03 1.426460e-01
1.203000e+03 1.875549e-01
1.204000e+03 1.642354e-01
1.205000e+03 1.577027e-01
1.206000e+03 1.520468e-01
1.207000e+03 3.586024e-03
1.208000e+03 1.018999e-01
1.209000e+03 7.291128e-02
1.210000e+03 1.498535e-04
1.211000e+03 3.101441e-02
1.212000e+03 1.443863e-02
1.213000e+03 6.239000e-03
1.214000e+03 1.649746e-03
1.215000e+03 1.490752e-04
1.216000e+03 2.730010e-05
1.217000e+03 9.516734e-04
1.218000e+03 5.004333e-03
1.219000e+03 1.463175e-02
1.220000e+03 3.335290e-02
1.221000e+03 5.705660e-02
1.222000e+03 9.465881e-02
1.223000e+03 1.193701e-01
1.224000e+03 1.635020e-01
1.225000e+03 2.095559e-01
1.226000e+03 2.538245e-01
1.227000e+03 2.047995e-01
1.228000e+03 3.742906e-01
1.229000e+03 4.088122e-01
1.230000e+03 1.277667e-03
1.231000e+03 3.831185e-01
1.232000e+03 5.214372e-01
1.233000e+03 5.727652e-01
1.234000e+03 4.403577e-01
1.235000e+03 6.442820e-01
1.236000e+03 6.644560e-01
1.237000e+03 7.085492e-01
1.238000e+03 7.389013e-01
1.239000e+03 7.430077e-01
1.240000e+03 1.026444e-01
1.241000e+03 7.469872e-01
1.242000e+03 8.281182e-01
1.243000e+03 8.713824e-01
1.244000e+03 9.124252e-01
1.245000e+03 3.350887e-01
1.246000e+03 9.648447e-01
1.247000e+03 9.837080e-01
1.248000e+03 1.604416e-01
1.249000e+03 9.774295e-01
1.250000e+03 9.038115e-01
1.251000e+03 1.123247e+00
1.252000e+03 1.073293e+00
1.253000e+03 1.190773e+00
1.254000e+03 1.176411e+00
1.255000e+03 9.713054e-03
1.256000e+03 7.548389e-01
1.257000e+03 1.005968e+00
1.258000e+03 1.131778e+00
1.259000e+03 1.409163e+00
1.260000e+03 1.428757e+00
1.261000e+03 8.497167e-02
1.262000e+03 1.534948e+00
1.263000e+03 4.425511e-01
1.264000e+03 1.067790e+00
1.265000e+03 2.212077e-02
1.266000e+03 1.689376e+00
1.267000e+03 1.747691e+00
