# wavelength_A flux
5.000000e+02 3.630106e-11
5.010000e+02 4.170810e-11
5.020000e+02 4.789311e-11
5.030000e+02 5.496405e-11
5.040000e+02 6.304336e-11
5.050000e+02 7.624931e-11
5.060000e+02 8.733420e-11
5.070000e+02 9.997542e-11
5.080000e+02 1.143836e-10
5.090000e+02 1.308086e-10
5.100000e+02 1.494977e-10
5.110000e+02 1.707647e-10
5.120000e+02 1.949516e-10
5.130000e+02 2.224469e-10
5.140000e+02 2.536857e-10
5.150000e+02 2.891548e-10
5.160000e+02 3.294204e-10
5.170000e+02 3.750527e-10
5.180000e+02 4.268747e-10
5.190000e+02 4.855564e-10
5.200000e+02 5.520222e-10
5.210000e+02 6.272625e-10
5.220000e+02 7.122362e-10
5.230000e+02 8.086881e-10
5.240000e+02 9.175271e-10
5.250000e+02 1.040529e-09
5.260000e+02 1.179414e-09
5.270000e+02 1.336179e-09
5.280000e+02 1.513042e-09
5.290000e+02 1.711479e-09
5.300000e+02 1.937280e-09
5.310000e+02 2.190533e-09
5.320000e+02 2.475725e-09
5.330000e+02 2.796702e-09
5.340000e+02 3.157802e-09
5.350000e+02 3.563846e-09
5.360000e+02 4.020165e-09
5.370000e+02 4.410243e-09
5.380000e+02 5.108405e-09
5.390000e+02 5.754974e-09
5.400000e+02 6.480054e-09
5.410000e+02 7.292022e-09
5.420000e+02 8.204350e-09
5.430000e+02 9.225776e-09
5.440000e+02 1.036944e-08
5.450000e+02 1.164971e-08
5.460000e+02 1.307742e-08
5.470000e+02 1.468453e-08
5.480000e+02 1.647576e-08
5.490000e+02 1.847760e-08
5.500000e+02 2.071371e-08
5.510000e+02 2.321033e-08
5.520000e+02 2.599690e-08
5.530000e+02 2.910571e-08
5.540000e+02 3.257250e-08
5.550000e+02 3.643693e-08
5.560000e+02 4.074280e-08
5.570000e+02 4.553861e-08
5.580000e+02 5.087792e-08
5.590000e+02 5.681989e-08
5.600000e+02 6.342989e-08
5.610000e+02 7.078008e-08
5.620000e+02 7.895012e-08
5.630000e+02 8.802780e-08
5.640000e+02 9.810943e-08
5.650000e+02 1.093028e-07
5.660000e+02 1.217251e-07
5.670000e+02 1.355059e-07
5.680000e+02 1.507878e-07
5.690000e+02 1.677279e-07
5.700000e+02 1.864985e-07
5.710000e+02 2.072904e-07
5.720000e+02 2.303105e-07
5.730000e+02 2.557911e-07
5.740000e+02 2.839829e-07
5.750000e+02 3.151742e-07
5.760000e+02 3.496002e-07
5.770000e+02 3.877450e-07
5.780000e+02 4.298360e-07
5.790000e+02 4.763203e-07
5.800000e+02 5.276373e-07
5.810000e+02 5.842684e-07
5.820000e+02 6.467400e-07
5.830000e+02 7.156166e-07
5.840000e+02 7.910582e-07
5.850000e+02 8.751520e-07
5.860000e+02 9.674828e-07
5.870000e+02 1.069039e-06
5.880000e+02 1.180814e-06
5.890000e+02 1.303817e-06
5.900000e+02 1.439146e-06
5.910000e+02 1.587973e-06
5.920000e+02 1.751577e-06
5.930000e+02 1.931373e-06
5.940000e+02 2.128896e-06
5.950000e+02 2.345583e-06
5.960000e+02 2.583964e-06
5.970000e+02 2.845340e-06
5.980000e+02 3.132106e-06
5.990000e+02 3.446625e-06
6.000000e+02 3.791448e-06
6.010000e+02 4.169417e-06
6.020000e+02 4.583567e-06
6.030000e+02 5.037207e-06
6.040000e+02 5.533942e-06
6.050000e+02 6.077706e-06
6.060000e+02 6.672701e-06
6.070000e+02 7.323698e-06
6.080000e+02 8.035603e-06
6.090000e+02 8.813912e-06
6.100000e+02 9.664559e-06
6.110000e+02 1.059391e-05
6.120000e+02 1.160909e-05
6.130000e+02 1.271758e-05
6.140000e+02 1.392761e-05
6.150000e+02 1.524810e-05
6.160000e+02 1.668857e-05
6.170000e+02 1.825968e-05
6.180000e+02 1.997264e-05
6.190000e+02 2.183969e-05
6.200000e+02 2.387413e-05
6.210000e+02 2.609029e-05
6.220000e+02 2.850351e-05
6.230000e+02 3.113094e-05
6.240000e+02 3.399056e-05
6.250000e+02 3.710200e-05
6.260000e+02 4.048646e-05
6.270000e+02 4.416683e-05
6.280000e+02 4.816784e-05
6.290000e+02 5.251617e-05
6.300000e+02 5.724082e-05
6.310000e+02 6.237182e-05
6.320000e+02 6.794521e-05
6.330000e+02 7.399498e-05
6.340000e+02 8.056084e-05
6.350000e+02 8.768474e-05
6.360000e+02 9.514170e-05
6.370000e+02 1.037914e-04
6.380000e+02 1.128760e-04
6.390000e+02 1.227222e-04
6.400000e+02 1.333910e-04
6.410000e+02 1.449478e-04
6.420000e+02 1.574635e-04
6.430000e+02 1.710139e-04
6.440000e+02 1.856808e-04
6.450000e+02 2.015515e-04
6.460000e+02 2.187216e-04
6.470000e+02 2.372910e-04
6.480000e+02 2.573695e-04
6.490000e+02 2.790750e-04
6.500000e+02 3.025318e-04
6.510000e+02 3.278753e-04
6.520000e+02 3.552504e-04
6.530000e+02 3.848125e-04
6.540000e+02 4.167283e-04
6.550000e+02 4.511735e-04
6.560000e+02 4.883457e-04
6.570000e+02 5.284366e-04
6.580000e+02 5.716993e-04
6.590000e+02 6.183369e-04
6.600000e+02 6.686131e-04
6.610000e+02 7.227985e-04
6.620000e+02 7.811809e-04
6.630000e+02 8.440744e-04
6.640000e+02 9.118105e-04
6.650000e+02 9.847423e-04
6.660000e+02 1.063252e-03
6.670000e+02 1.147744e-03
6.680000e+02 1.238655e-03
6.690000e+02 1.336448e-03
6.700000e+02 1.441620e-03
6.710000e+02 1.554703e-03
6.720000e+02 1.676206e-03
6.730000e+02 1.806890e-03
6.740000e+02 1.947258e-03
6.750000e+02 2.098044e-03
6.760000e+02 2.259985e-03
6.770000e+02 2.433866e-03
6.780000e+02 2.620526e-03
6.790000e+02 2.820857e-03
6.800000e+02 3.035818e-03
6.810000e+02 3.266422e-03
6.820000e+02 3.513754e-03
6.830000e+02 3.778970e-03
6.840000e+02 4.063298e-03
6.850000e+02 4.368050e-03
6.860000e+02 4.694624e-03
6.870000e+02 5.044415e-03
6.880000e+02 5.419278e-03
6.890000e+02 5.820540e-03
6.900000e+02 6.250295e-03
6.910000e+02 6.710288e-03
6.920000e+02 7.202585e-03
6.930000e+02 7.729344e-03
6.940000e+02 8.292860e-03
6.950000e+02 8.895552e-03
6.960000e+02 9.540078e-03
6.970000e+02 1.022859e-02
6.980000e+02 1.096560e-02
6.990000e+02 1.175270e-02
7.000000e+02 1.259369e-02
7.010000e+02 1.349206e-02
7.020000e+02 1.445155e-02
7.030000e+02 1.547610e-02
7.040000e+02 1.656991e-02
7.050000e+02 1.773739e-02
7.060000e+02 1.898317e-02
7.070000e+02 2.031253e-02
7.080000e+02 2.173063e-02
7.090000e+02 2.324308e-02
7.100000e+02 2.485587e-02
7.110000e+02 2.657530e-02
7.120000e+02 2.840809e-02
7.130000e+02 3.036131e-02
7.140000e+02 3.244249e-02
7.150000e+02 3.465958e-02
7.160000e+02 3.702101e-02
7.170000e+02 3.953555e-02
7.180000e+02 4.221193e-02
7.190000e+02 4.506325e-02
7.200000e+02 4.809665e-02
7.210000e+02 5.132410e-02
7.220000e+02 5.475821e-02
7.230000e+02 5.841113e-02
7.240000e+02 6.229606e-02
7.250000e+02 6.642700e-02
7.260000e+02 7.081871e-02
7.270000e+02 7.548679e-02
7.280000e+02 8.044742e-02
7.290000e+02 8.571871e-02
7.300000e+02 9.131836e-02
7.310000e+02 9.726688e-02
7.320000e+02 1.035837e-01
7.330000e+02 1.102909e-01
7.340000e+02 1.174113e-01
7.350000e+02 1.249691e-01
7.360000e+02 1.329882e-01
7.370000e+02 1.414987e-01
7.380000e+02 1.505268e-01
7.390000e+02 1.601028e-01
7.400000e+02 1.702581e-01
7.410000e+02 1.810261e-01
7.420000e+02 1.924416e-01
7.430000e+02 2.045415e-01
7.440000e+02 2.173649e-01
7.450000e+02 2.309525e-01
7.460000e+02 2.453475e-01
7.470000e+02 2.605954e-01
7.480000e+02 2.767439e-01
7.490000e+02 2.938436e-01
7.500000e+02 3.119473e-01
7.510000e+02 3.311083e-01
7.520000e+02 3.513905e-01
7.530000e+02 3.728531e-01
7.540000e+02 3.955612e-01
7.550000e+02 4.195831e-01
7.560000e+02 4.449909e-01
7.570000e+02 4.718567e-01
7.580000e+02 5.002678e-01
7.590000e+02 5.303003e-01
7.600000e+02 5.620493e-01
7.610000e+02 5.956019e-01
7.620000e+02 6.310556e-01
7.630000e+02 6.685127e-01
7.640000e+02 7.080804e-01
7.650000e+02 7.498646e-01
7.660000e+02 7.939969e-01
7.670000e+02 8.405942e-01
7.680000e+02 8.897796e-01
7.690000e+02 9.417124e-01
7.700000e+02 9.965132e-01
7.710000e+02 1.054339e+00
7.720000e+02 1.115350e+00
7.730000e+02 1.179709e+00
7.740000e+02 1.247592e+00
7.750000e+02 1.319180e+00
7.760000e+02 1.394638e+00
7.770000e+02 1.474245e+00
7.780000e+02 1.558134e+00
7.790000e+02 1.646533e+00
7.800000e+02 1.739705e+00
7.810000e+02 1.837875e+00
7.820000e+02 1.941298e+00
7.830000e+02 2.050238e+00
7.840000e+02 2.164963e+00
7.850000e+02 2.285784e+00
7.860000e+02 2.412995e+00
7.870000e+02 2.546932e+00
7.880000e+02 2.687898e+00
7.890000e+02 2.836258e+00
7.900000e+02 2.992364e+00
7.910000e+02 3.156638e+00
7.920000e+02 3.329427e+00
7.930000e+02 3.511192e+00
7.940000e+02 3.702356e+00
7.950000e+02 3.903379e+00
7.960000e+02 4.114739e+00
7.970000e+02 4.336939e+00
7.980000e+02 4.570492e+00
7.990000e+02 4.815972e+00
8.000000e+02 5.073927e+00
8.010000e+02 5.344963e+00
8.020000e+02 5.629706e+00
8.030000e+02 5.928804e+00
8.040000e+02 6.242951e+00
8.050000e+02 6.572848e+00
8.060000e+02 6.919245e+00
8.070000e+02 7.282917e+00
8.080000e+02 7.664677e+00
8.090000e+02 8.065372e+00
8.100000e+02 8.485842e+00
8.110000e+02 8.927094e+00
8.120000e+02 9.390024e+00
8.130000e+02 9.875722e+00
8.140000e+02 1.038515e+01
8.150000e+02 1.091941e+01
8.160000e+02 1.147971e+01
8.170000e+02 1.206715e+01
8.180000e+02 1.268304e+01
8.190000e+02 1.332866e+01
8.200000e+02 1.400534e+01
8.210000e+02 1.471449e+01
8.220000e+02 1.545758e+01
8.230000e+02 1.623612e+01
8.240000e+02 1.705175e+01
8.250000e+02 1.790610e+01
8.260000e+02 1.880090e+01
8.270000e+02 1.973794e+01
8.280000e+02 2.071911e+01
8.290000e+02 2.174637e+01
8.300000e+02 2.282173e+01
8.310000e+02 2.394733e+01
8.320000e+02 2.512536e+01
8.330000e+02 2.635813e+01
8.340000e+02 2.764787e+01
8.350000e+02 2.898954e+01
8.360000e+02 3.040842e+01
8.370000e+02 3.188559e+01
8.380000e+02 3.342987e+01
8.390000e+02 3.504474e+01
8.400000e+02 3.673325e+01
8.410000e+02 3.849850e+01
8.420000e+02 4.034113e+01
8.430000e+02 4.227276e+01
8.440000e+02 4.428863e+01
8.450000e+02 4.639521e+01
8.460000e+02 4.859631e+01
8.470000e+02 5.089597e+01
8.480000e+02 5.329816e+01
8.490000e+02 5.580752e+01
8.500000e+02 5.842820e+01
8.510000e+02 6.116496e+01
8.520000e+02 6.402254e+01
8.530000e+02 6.700612e+01
8.540000e+02 7.012148e+01
8.550000e+02 7.337267e+01
8.560000e+02 7.676583e+01
8.570000e+02 8.030663e+01
8.580000e+02 8.400179e+01
8.590000e+02 8.785732e+01
8.600000e+02 9.187959e+01
8.610000e+02 9.607536e+01
8.620000e+02 1.004517e+02
8.630000e+02 1.050158e+02
8.640000e+02 1.097755e+02
8.650000e+02 1.147383e+02
8.660000e+02 1.199125e+02
8.670000e+02 1.253065e+02
8.680000e+02 1.309290e+02
8.690000e+02 1.367892e+02
8.700000e+02 1.428950e+02
8.710000e+02 1.492602e+02
8.720000e+02 1.558910e+02
8.730000e+02 1.627991e+02
8.740000e+02 1.699954e+02
8.750000e+02 1.774912e+02
8.760000e+02 1.852980e+02
8.770000e+02 1.934278e+02
8.780000e+02 2.018940e+02
8.790000e+02 2.107073e+02
8.800000e+02 2.198840e+02
8.810000e+02 2.294366e+02
8.820000e+02 2.393797e+02
8.830000e+02 2.497283e+02
8.840000e+02 2.604977e+02
8.850000e+02 2.717037e+02
8.860000e+02 2.833635e+02
8.870000e+02 2.954938e+02
8.880000e+02 3.081124e+02
8.890000e+02 3.212377e+02
8.900000e+02 3.348887e+02
8.910000e+02 3.490851e+02
8.920000e+02 3.623335e+02
8.930000e+02 3.791962e+02
8.940000e+02 3.951539e+02
8.950000e+02 4.117426e+02
8.960000e+02 4.289860e+02
8.970000e+02 4.469079e+02
8.980000e+02 4.655334e+02
8.990000e+02 4.848882e+02
9.000000e+02 5.049990e+02
9.010000e+02 5.258889e+02
9.020000e+02 5.475953e+02
9.030000e+02 5.701431e+02
9.040000e+02 5.935468e+02
9.050000e+02 6.178865e+02
9.060000e+02 6.431460e+02
9.070000e+02 6.693674e+02
9.080000e+02 6.966084e+02
9.090000e+02 7.248819e+02
9.100000e+02 7.542327e+02
9.110000e+02 7.847062e+02
9.120000e+02 8.163713e+02
9.130000e+02 8.210444e+02
9.140000e+02 9.289019e+02
9.150000e+02 1.147677e+04
9.160000e+02 2.903258e+04
9.170000e+02 3.020213e+04
9.180000e+02 3.097867e+04
9.190000e+02 3.220192e+04
9.200000e+02 3.322716e+04
9.210000e+02 1.093026e+03
9.220000e+02 3.529249e+04
9.230000e+02 3.616290e+04
9.240000e+02 3.107487e+04
9.250000e+02 3.787550e+04
9.260000e+02 3.968178e+04
9.270000e+02 4.105470e+04
9.280000e+02 4.241078e+04
9.290000e+02 3.469699e+04
9.300000e+02 4.431311e+04
9.310000e+02 4.585625e+04
9.320000e+02 4.789177e+04
9.330000e+02 4.930507e+04
9.340000e+02 5.083217e+04
9.350000e+02 1.351180e+04
9.360000e+02 5.369522e+04
9.370000e+02 1.021603e+04
9.380000e+02 3.925770e+04
9.390000e+02 5.896446e+04
9.400000e+02 6.078439e+04
9.410000e+02 4.641005e+04
9.420000e+02 6.451661e+04
9.430000e+02 6.643651e+04
9.440000e+02 5.279281e+04
9.450000e+02 7.038725e+04
9.460000e+02 7.250339e+04
9.470000e+02 5.228146e+04
9.480000e+02 7.630788e+04
9.490000e+02 7.796682e+04
9.500000e+02 1.960818e+04
9.510000e+02 7.884111e+04
9.520000e+02 8.625632e+04
9.530000e+02 8.872255e+04
9.540000e+02 7.115253e+04
9.550000e+02 9.416512e+04
9.560000e+02 9.738841e+04
9.570000e+02 7.657186e+04
9.580000e+02 1.013160e+05
9.590000e+02 1.060960e+05
9.600000e+02 2.178182e+04
9.610000e+02 1.125163e+05
9.620000e+02 1.156190e+05
9.630000e+02 1.190429e+05
9.640000e+02 6.669414e+03
9.650000e+02 1.104949e+05
9.660000e+02 1.294789e+05
9.670000e+02 1.330997e+05
9.680000e+02 1.357012e+05
9.690000e+02 1.395062e+05
9.700000e+02 1.441063e+05
9.710000e+02 1.464401e+05
9.720000e+02 1.329972e+05
9.730000e+02 1.313457e+05
9.740000e+02 1.580914e+05
9.750000e+02 1.654544e+05
9.760000e+02 1.706825e+05
9.770000e+02 1.756051e+05
9.780000e+02 1.803171e+05
9.790000e+02 1.857210e+05
9.800000e+02 1.908725e+05
9.810000e+02 1.962355e+05
9.820000e+02 2.004134e+05
9.830000e+02 2.070616e+05
9.840000e+02 5.181630e+04
9.850000e+02 2.186729e+05
9.860000e+02 2.246389e+05
9.870000e+02 2.306913e+05
9.880000e+02 2.361303e+05
9.890000e+02 1.586618e+05
9.900000e+02 1.981315e+04
9.910000e+02 2.540631e+05
9.920000e+02 2.585231e+05
9.930000e+02 2.590478e+05
9.940000e+02 3.516758e+04
9.950000e+02 4.397683e+04
9.960000e+02 1.324123e+05
9.970000e+02 7.484161e+04
9.980000e+02 3.070743e+05
9.990000e+02 3.135852e+05
1.000000e+03 3.258602e+05
1.001000e+03 3.344900e+05
1.002000e+03 3.432175e+05
1.003000e+03 3.207520e+05
1.004000e+03 3.615129e+05
1.005000e+03 3.459768e+05
1.006000e+03 3.807569e+05
1.007000e+03 3.906871e+05
1.008000e+03 4.006141e+05
1.009000e+03 3.964325e+05
1.010000e+03 4.217778e+05
1.011000e+03 4.326032e+05
1.012000e+03 4.436561e+05
1.013000e+03 4.550338e+05
1.014000e+03 4.659559e+05
1.015000e+03 4.674858e+05
1.016000e+03 4.895245e+05
1.017000e+03 5.015108e+05
1.018000e+03 5.144084e+05
1.019000e+03 5.263051e+05
1.020000e+03 5.381373e+05
1.021000e+03 4.827880e+05
1.022000e+03 5.404084e+05
1.023000e+03 5.584599e+05
1.024000e+03 5.328809e+05
1.025000e+03 3.560175e+05
1.026000e+03 1.325016e+05
1.027000e+03 5.252888e+05
1.028000e+03 1.704192e+05
1.029000e+03 6.583796e+05
1.030000e+03 6.784116e+05
1.031000e+03 7.072281e+05
1.032000e+03 7.247110e+05
1.033000e+03 3.732081e+05
1.034000e+03 7.672809e+05
1.035000e+03 1.598758e+05
1.036000e+03 8.008509e+05
1.037000e+03 9.535988e+04
1.038000e+03 8.480061e+05
1.039000e+03 8.662568e+05
1.040000e+03 8.913878e+05
1.041000e+03 9.123490e+05
1.042000e+03 9.233146e+05
1.043000e+03 9.475396e+05
1.044000e+03 9.814892e+05
1.045000e+03 1.005618e+06
1.046000e+03 1.031144e+06
1.047000e+03 1.056323e+06
1.048000e+03 1.078454e+06
1.049000e+03 1.105131e+06
1.050000e+03 1.134803e+06
1.051000e+03 1.162084e+06
1.052000e+03 1.190010e+06
1.053000e+03 1.206249e+06
1.054000e+03 1.245924e+06
1.055000e+03 1.277151e+06
1.056000e+03 1.307751e+06
1.057000e+03 1.338666e+06
1.058000e+03 1.370417e+06
1.059000e+03 1.402732e+06
1.060000e+03 1.435657e+06
1.061000e+03 1.469783e+06
1.062000e+03 1.504246e+06
1.063000e+03 1.304001e+06
1.064000e+03 2.926298e+05
1.065000e+03 1.620257e+06
1.066000e+03 1.655215e+06
1.067000e+03 1.665686e+06
1.068000e+03 1.736462e+06
1.069000e+03 1.775052e+06
1.070000e+03 1.808632e+06
1.071000e+03 1.861948e+06
1.072000e+03 1.904677e+06
1.073000e+03 1.947156e+06
1.074000e+03 1.993228e+06
1.075000e+03 2.038349e+06
1.076000e+03 2.085532e+06
1.077000e+03 2.131308e+06
1.078000e+03 2.181801e+06
1.079000e+03 2.220708e+06
1.080000e+03 2.281024e+06
1.081000e+03 2.333638e+06
1.082000e+03 2.383970e+06
1.083000e+03 2.440172e+06
1.084000e+03 2.470583e+06
1.085000e+03 2.379973e+06
1.086000e+03 2.608050e+06
1.087000e+03 2.665703e+06
1.088000e+03 2.713057e+06
1.089000e+03 2.786071e+06
1.090000e+03 2.847277e+06
1.091000e+03 2.911098e+06
1.092000e+03 2.974741e+06
1.093000e+03 3.037335e+06
1.094000e+03 3.108266e+06
1.095000e+03 3.173436e+06
1.096000e+03 3.245842e+06
1.097000e+03 3.287097e+06
1.098000e+03 3.380808e+06
1.099000e+03 3.462086e+06
1.100000e+03 3.482694e+06
1.101000e+03 3.236796e+06
1.102000e+03 9.092078e+06
1.103000e+03 4.074590e+07
1.104000e+03 9.647968e+06
1.105000e+03 3.693240e+06
1.106000e+03 1.184399e+08
1.107000e+03 1.146252e+08
1.108000e+03 1.227394e+08
1.109000e+03 9.131664e+07
1.110000e+03 1.935520e+07
1.111000e+03 9.519160e+06
1.112000e+03 1.195979e+08
1.113000e+03 1.329875e+08
1.114000e+03 2.995264e+06
1.115000e+03 1.321557e+08
1.116000e+03 1.362677e+08
1.117000e+03 2.562928e+06
1.118000e+03 1.339381e+08
1.119000e+03 1.436831e+08
1.120000e+03 1.454026e+08
1.121000e+03 1.054053e+08
1.122000e+03 7.940160e+05
1.123000e+03 1.501481e+07
1.124000e+03 1.546768e+08
1.125000e+03 7.288546e+07
1.126000e+03 1.607955e+08
1.127000e+03 1.508013e+08
1.128000e+03 7.024398e+07
1.129000e+03 1.630000e+08
1.130000e+03 1.369503e+08
1.131000e+03 1.746199e+08
1.132000e+03 2.790928e+06
1.133000e+03 1.753924e+08
1.134000e+03 1.710916e+08
1.135000e+03 2.748032e+06
1.136000e+03 1.865180e+08
1.137000e+03 1.905720e+08
1.138000e+03 1.948082e+08
1.139000e+03 1.894308e+08
1.140000e+03 1.715760e+06
1.141000e+03 2.042082e+08
1.142000e+03 2.006187e+08
1.143000e+03 2.095955e+08
1.144000e+03 2.133357e+08
1.145000e+03 1.459482e+08
1.146000e+03 2.203618e+08
1.147000e+03 2.155926e+08
1.148000e+03 2.196195e+08
1.149000e+03 2.291731e+08
1.150000e+03 2.210134e+08
1.151000e+03 2.326916e+08
1.152000e+03 2.387816e+08
1.153000e+03 7.303003e+07
1.154000e+03 4.783712e+06
1.155000e+03 2.277032e+08
1.156000e+03 9.952464e+07
1.157000e+03 2.561744e+08
1.158000e+03 4.325476e+06
1.159000e+03 2.126473e+08
1.160000e+03 2.701643e+08
1.161000e+03 2.750068e+08
1.162000e+03 2.611037e+07
1.163000e+03 2.785067e+08
1.164000e+03 6.184528e+06
1.165000e+03 2.906521e+08
1.166000e+03 2.912843e+08
1.167000e+03 2.806488e+08
1.168000e+03 3.039759e+08
1.169000e+03 2.915531e+08
1.170000e+03 3.128656e+08
1.171000e+03 3.172972e+08
1.172000e+03 3.100942e+08
1.173000e+03 3.256994e+08
1.174000e+03 3.249587e+08
1.175000e+03 6.093280e+06
1.176000e+03 4.428864e+06
1.177000e+03 3.403002e+08
1.178000e+03 3.298488e+08
1.179000e+03 3.495721e+08
1.180000e+03 2.802544e+08
1.181000e+03 3.483956e+08
1.182000e+03 3.596688e+08
1.183000e+03 3.622765e+08
1.184000e+03 3.648795e+08
1.185000e+03 3.613229e+08
1.186000e+03 3.682038e+08
1.187000e+03 3.696951e+08
1.188000e+03 3.648145e+08
1.189000e+03 4.951200e+06
1.190000e+03 8.720976e+07
1.191000e+03 3.561138e+08
1.192000e+03 3.552826e+08
1.193000e+03 4.069696e+06
1.194000e+03 5.662432e+06
1.195000e+03 1.824310e+08
1.196000e+03 3.417842e+08
1.197000e+03 3.832070e+08
1.198000e+03 3.846041e+08
1.199000e+03 3.646812e+08
1.200000e+03 3.074343e+08
1.201000e+03 3.242122e+08
1.202000e+03 3.159712e+08
1.203000e+03 3.167093e+08
1.204000e+03 2.822787e+08
1.205000e+03 2.524091e+08
1.206000e+03 2.112706e+08
1.207000e+03 8.741014e+07
1.208000e+03 1.523410e+08
1.209000e+03 1.145948e+08
1.210000e+03 1.000556e+07
1.211000e+03 6.109090e+07
1.212000e+03 3.896012e+07
1.213000e+03 2.290271e+07
1.214000e+03 1.289701e+07
1.215000e+03 7.732153e+06
1.216000e+03 6.715184e+06
1.217000e+03 1.128464e+07
1.218000e+03 2.066218e+07
1.219000e+03 3.729538e+07
1.220000e+03 6.228887e+07
1.221000e+03 9.549537e+07
1.222000e+03 1.360511e+08
1.223000e+03 1.828913e+08
1.224000e+03 2.349621e+08
1.225000e+03 2.912120e+08
1.226000e+03 3.500087e+08
1.227000e+03 4.081487e+08
1.228000e+03 4.778730e+08
1.229000e+03 5.434831e+08
1.230000e+03 6.094026e+08
1.231000e+03 6.770733e+08
1.232000e+03 7.446835e+08
1.233000e+03 8.115807e+08
1.234000e+03 4.674081e+08
1.235000e+03 9.433178e+08
1.236000e+03 1.007802e+09
1.237000e+03 1.071457e+09
1.238000e+03 1.135242e+09
1.239000e+03 1.197174e+09
1.240000e+03 1.140256e+09
1.241000e+03 1.915364e+09
1.242000e+03 1.093597e+09
1.243000e+03 1.752928e+09
1.244000e+03 7.277422e+08
1.245000e+03 1.069020e+09
1.246000e+03 3.202538e+09
1.247000e+03 3.429422e+09
1.248000e+03 7.618056e+08
1.249000e+03 1.067009e+09
1.250000e+03 4.071588e+09
1.251000e+03 4.271852e+09
1.252000e+03 4.455940e+09
1.253000e+03 4.753963e+09
1.254000e+03 4.885601e+09
1.255000e+03 5.188949e+09
1.256000e+03 5.374462e+09
1.257000e+03 5.654370e+09
1.258000e+03 5.771793e+09
1.259000e+03 5.466632e+09
1.260000e+03 3.984729e+09
1.261000e+03 1.779811e+07
1.262000e+03 4.614441e+08
1.263000e+03 6.550482e+09
1.264000e+03 5.425002e+09
1.265000e+03 1.598573e+07
1.266000e+03 7.000797e+09
1.267000e+03 7.887058e+09
