# wavelength_A flux
5.000000e+02 3.821195e-12
5.010000e+02 4.412625e-12
5.020000e+02 5.092575e-12
5.030000e+02 5.873837e-12
5.040000e+02 6.770988e-12
5.050000e+02 7.846775e-12
5.060000e+02 9.034123e-12
5.070000e+02 1.039517e-11
5.080000e+02 1.195443e-11
5.090000e+02 1.373979e-11
5.100000e+02 1.578288e-11
5.110000e+02 1.811961e-11
5.120000e+02 2.079071e-11
5.130000e+02 2.384236e-11
5.140000e+02 2.732687e-11
5.150000e+02 3.130340e-11
5.160000e+02 3.583926e-11
5.170000e+02 4.100957e-11
5.180000e+02 4.690164e-11
5.190000e+02 5.361094e-11
5.200000e+02 6.124741e-11
5.210000e+02 6.993461e-11
5.220000e+02 7.980972e-11
5.230000e+02 9.103693e-11
5.240000e+02 1.037866e-10
5.250000e+02 1.182611e-10
5.260000e+02 1.346847e-10
5.270000e+02 1.533109e-10
5.280000e+02 1.744243e-10
5.290000e+02 1.983326e-10
5.300000e+02 2.254336e-10
5.310000e+02 2.560936e-10
5.320000e+02 2.907792e-10
5.330000e+02 3.299997e-10
5.340000e+02 3.743265e-10
5.350000e+02 4.244003e-10
5.360000e+02 4.809383e-10
5.370000e+02 5.432914e-10
5.380000e+02 6.167219e-10
5.390000e+02 6.978815e-10
5.400000e+02 7.893425e-10
5.410000e+02 8.923471e-10
5.420000e+02 1.008366e-09
5.430000e+02 1.138917e-09
5.440000e+02 1.285769e-09
5.450000e+02 1.450888e-09
5.460000e+02 1.636389e-09
5.470000e+02 1.844925e-09
5.480000e+02 2.079003e-09
5.490000e+02 2.341725e-09
5.500000e+02 2.636462e-09
5.510000e+02 2.966972e-09
5.520000e+02 3.337434e-09
5.530000e+02 3.752496e-09
5.540000e+02 4.217326e-09
5.550000e+02 4.737668e-09
5.560000e+02 5.319900e-09
5.570000e+02 5.971107e-09
5.580000e+02 6.699150e-09
5.590000e+02 7.512753e-09
5.600000e+02 8.421589e-09
5.610000e+02 9.436381e-09
5.620000e+02 1.056901e-08
5.630000e+02 1.183265e-08
5.640000e+02 1.324185e-08
5.650000e+02 1.481276e-08
5.660000e+02 1.656323e-08
5.670000e+02 1.851297e-08
5.680000e+02 2.068380e-08
5.690000e+02 2.309984e-08
5.700000e+02 2.578771e-08
5.710000e+02 2.877682e-08
5.720000e+02 3.209961e-08
5.730000e+02 3.579189e-08
5.740000e+02 3.989315e-08
5.750000e+02 4.444707e-08
5.760000e+02 4.950068e-08
5.770000e+02 5.510904e-08
5.780000e+02 6.132829e-08
5.790000e+02 6.822322e-08
5.800000e+02 7.586434e-08
5.810000e+02 8.432922e-08
5.820000e+02 9.370317e-08
5.830000e+02 1.040798e-07
5.840000e+02 1.155565e-07
5.850000e+02 1.282632e-07
5.860000e+02 1.423100e-07
5.870000e+02 1.578355e-07
5.880000e+02 1.749905e-07
5.890000e+02 1.939390e-07
5.900000e+02 2.148620e-07
5.910000e+02 2.379561e-07
5.920000e+02 2.634378e-07
5.930000e+02 2.915442e-07
5.940000e+02 3.225348e-07
5.950000e+02 3.566934e-07
5.960000e+02 3.943311e-07
5.970000e+02 4.357878e-07
5.980000e+02 4.814354e-07
5.990000e+02 5.316803e-07
6.000000e+02 5.869667e-07
6.010000e+02 6.477797e-07
6.020000e+02 7.146502e-07
6.030000e+02 7.881559e-07
6.040000e+02 8.689287e-07
6.050000e+02 9.576577e-07
6.060000e+02 1.055094e-06
6.070000e+02 1.162058e-06
6.080000e+02 1.279442e-06
6.090000e+02 1.408220e-06
6.100000e+02 1.549452e-06
6.110000e+02 1.704293e-06
6.120000e+02 1.873999e-06
6.130000e+02 2.059939e-06
6.140000e+02 2.263601e-06
6.150000e+02 2.486603e-06
6.160000e+02 2.730707e-06
6.170000e+02 2.997825e-06
6.180000e+02 3.290037e-06
6.190000e+02 3.609600e-06
6.200000e+02 3.958969e-06
6.210000e+02 4.340805e-06
6.220000e+02 4.757999e-06
6.230000e+02 5.213688e-06
6.240000e+02 5.711272e-06
6.250000e+02 6.254443e-06
6.260000e+02 6.847197e-06
6.270000e+02 7.493870e-06
6.280000e+02 8.199158e-06
6.290000e+02 8.968149e-06
6.300000e+02 9.806348e-06
6.310000e+02 1.071892e-05
6.320000e+02 1.171472e-05
6.330000e+02 1.279831e-05
6.340000e+02 1.397809e-05
6.350000e+02 1.526216e-05
6.360000e+02 1.665940e-05
6.370000e+02 1.817938e-05
6.380000e+02 1.983233e-05
6.390000e+02 2.162942e-05
6.400000e+02 2.358268e-05
6.410000e+02 2.570508e-05
6.420000e+02 2.801064e-05
6.430000e+02 3.051447e-05
6.440000e+02 3.323289e-05
6.450000e+02 3.618346e-05
6.460000e+02 3.938518e-05
6.470000e+02 4.285845e-05
6.480000e+02 4.662531e-05
6.490000e+02 5.070948e-05
6.500000e+02 5.513652e-05
6.510000e+02 5.993393e-05
6.520000e+02 6.513134e-05
6.530000e+02 7.076062e-05
6.540000e+02 7.685606e-05
6.550000e+02 8.345454e-05
6.560000e+02 9.059576e-05
6.570000e+02 9.832217e-05
6.580000e+02 1.066801e-04
6.590000e+02 1.157184e-04
6.600000e+02 1.254900e-04
6.610000e+02 1.360519e-04
6.620000e+02 1.474651e-04
6.630000e+02 1.597951e-04
6.640000e+02 1.731122e-04
6.650000e+02 1.874918e-04
6.660000e+02 2.030150e-04
6.670000e+02 2.197686e-04
6.680000e+02 2.378457e-04
6.690000e+02 2.573459e-04
6.700000e+02 2.783765e-04
6.710000e+02 3.010518e-04
6.720000e+02 3.254947e-04
6.730000e+02 3.518367e-04
6.740000e+02 3.802186e-04
6.750000e+02 4.107910e-04
6.760000e+02 4.437154e-04
6.770000e+02 4.791643e-04
6.780000e+02 5.173223e-04
6.790000e+02 5.583871e-04
6.800000e+02 6.025696e-04
6.810000e+02 6.500958e-04
6.820000e+02 7.012069e-04
6.830000e+02 7.561606e-04
6.840000e+02 8.152327e-04
6.850000e+02 8.787172e-04
6.860000e+02 9.469285e-04
6.870000e+02 1.020202e-03
6.880000e+02 1.098895e-03
6.890000e+02 1.183392e-03
6.900000e+02 1.274098e-03
6.910000e+02 1.371449e-03
6.920000e+02 1.475909e-03
6.930000e+02 1.587973e-03
6.940000e+02 1.708168e-03
6.950000e+02 1.837056e-03
6.960000e+02 1.975236e-03
6.970000e+02 2.123342e-03
6.980000e+02 2.282066e-03
6.990000e+02 2.452119e-03
7.000000e+02 2.634276e-03
7.010000e+02 2.829358e-03
7.020000e+02 3.038238e-03
7.030000e+02 3.261844e-03
7.040000e+02 3.501166e-03
7.050000e+02 3.757254e-03
7.060000e+02 4.031228e-03
7.070000e+02 4.324275e-03
7.080000e+02 4.637659e-03
7.090000e+02 4.972724e-03
7.100000e+02 5.330897e-03
7.110000e+02 5.713694e-03
7.120000e+02 6.122726e-03
7.130000e+02 6.559702e-03
7.140000e+02 7.026440e-03
7.150000e+02 7.524868e-03
7.160000e+02 8.057031e-03
7.170000e+02 8.625099e-03
7.180000e+02 9.231372e-03
7.190000e+02 9.878322e-03
7.200000e+02 1.056851e-02
7.210000e+02 1.130469e-02
7.220000e+02 1.208978e-02
7.230000e+02 1.292687e-02
7.240000e+02 1.381923e-02
7.250000e+02 1.477033e-02
7.260000e+02 1.578385e-02
7.270000e+02 1.686368e-02
7.280000e+02 1.801394e-02
7.290000e+02 1.923899e-02
7.300000e+02 2.054346e-02
7.310000e+02 2.193223e-02
7.320000e+02 2.341049e-02
7.330000e+02 2.498370e-02
7.340000e+02 2.665767e-02
7.350000e+02 2.843851e-02
7.360000e+02 3.033271e-02
7.370000e+02 3.234712e-02
7.380000e+02 3.448898e-02
7.390000e+02 3.676595e-02
7.400000e+02 3.918612e-02
7.410000e+02 4.175803e-02
7.420000e+02 4.449072e-02
7.430000e+02 4.739373e-02
7.440000e+02 5.047712e-02
7.450000e+02 5.375154e-02
7.460000e+02 5.722821e-02
7.470000e+02 6.091898e-02
7.480000e+02 6.483638e-02
7.490000e+02 6.899358e-02
7.500000e+02 7.340451e-02
7.510000e+02 7.808387e-02
7.520000e+02 8.304715e-02
7.530000e+02 8.831067e-02
7.540000e+02 9.389168e-02
7.550000e+02 9.980831e-02
7.560000e+02 1.060797e-01
7.570000e+02 1.127260e-01
7.580000e+02 1.197685e-01
7.590000e+02 1.272295e-01
7.600000e+02 1.351327e-01
7.610000e+02 1.435029e-01
7.620000e+02 1.523661e-01
7.630000e+02 1.617500e-01
7.640000e+02 1.716835e-01
7.650000e+02 1.821971e-01
7.660000e+02 1.933228e-01
7.670000e+02 2.050945e-01
7.680000e+02 2.175476e-01
7.690000e+02 2.307197e-01
7.700000e+02 2.446498e-01
7.710000e+02 2.593794e-01
7.720000e+02 2.749518e-01
7.730000e+02 2.914127e-01
7.740000e+02 3.088102e-01
7.750000e+02 3.271946e-01
7.760000e+02 3.466182e-01
7.770000e+02 3.671389e-01
7.780000e+02 3.888130e-01
7.790000e+02 4.117026e-01
7.800000e+02 4.358721e-01
7.810000e+02 4.613895e-01
7.820000e+02 4.883256e-01
7.830000e+02 5.167552e-01
7.840000e+02 5.467565e-01
7.850000e+02 5.784118e-01
7.860000e+02 6.118072e-01
7.870000e+02 6.470335e-01
7.880000e+02 6.841850e-01
7.890000e+02 7.233616e-01
7.900000e+02 7.646675e-01
7.910000e+02 8.082121e-01
7.920000e+02 8.541102e-01
7.930000e+02 9.024819e-01
7.940000e+02 9.534532e-01
7.950000e+02 1.007156e+00
7.960000e+02 1.063729e+00
7.970000e+02 1.123317e+00
7.980000e+02 1.186072e+00
7.990000e+02 1.252152e+00
8.000000e+02 1.321724e+00
8.010000e+02 1.394962e+00
8.020000e+02 1.472050e+00
8.030000e+02 1.553177e+00
8.040000e+02 1.638544e+00
8.050000e+02 1.728360e+00
8.060000e+02 1.822843e+00
8.070000e+02 1.922224e+00
8.080000e+02 2.026741e+00
8.090000e+02 2.136644e+00
8.100000e+02 2.252197e+00
8.110000e+02 2.373673e+00
8.120000e+02 2.501358e+00
8.130000e+02 2.635551e+00
8.140000e+02 2.776567e+00
8.150000e+02 2.924731e+00
8.160000e+02 3.080387e+00
8.170000e+02 3.243890e+00
8.180000e+02 3.415614e+00
8.190000e+02 3.595950e+00
8.200000e+02 3.785303e+00
8.210000e+02 3.984100e+00
8.220000e+02 4.192784e+00
8.230000e+02 4.411819e+00
8.240000e+02 4.641688e+00
8.250000e+02 4.882897e+00
8.260000e+02 5.135973e+00
8.270000e+02 5.401467e+00
8.280000e+02 5.679952e+00
8.290000e+02 5.972027e+00
8.300000e+02 6.278316e+00
8.310000e+02 6.599473e+00
8.320000e+02 6.936176e+00
8.330000e+02 7.289134e+00
8.340000e+02 7.659086e+00
8.350000e+02 8.046728e+00
8.360000e+02 8.453082e+00
8.370000e+02 8.878778e+00
8.380000e+02 9.324744e+00
8.390000e+02 9.791899e+00
8.400000e+02 1.028119e+01
8.410000e+02 1.079360e+01
8.420000e+02 1.133013e+01
8.430000e+02 1.189193e+01
8.440000e+02 1.248005e+01
8.450000e+02 1.309566e+01
8.460000e+02 1.373998e+01
8.470000e+02 1.441427e+01
8.480000e+02 1.511983e+01
8.490000e+02 1.585803e+01
8.500000e+02 1.663030e+01
8.510000e+02 1.743810e+01
8.520000e+02 1.828298e+01
8.530000e+02 1.916654e+01
8.540000e+02 2.009045e+01
8.550000e+02 2.105642e+01
8.560000e+02 2.206626e+01
8.570000e+02 2.312186e+01
8.580000e+02 2.422514e+01
8.590000e+02 2.537815e+01
8.600000e+02 2.658297e+01
8.610000e+02 2.784181e+01
8.620000e+02 2.915694e+01
8.630000e+02 3.053071e+01
8.640000e+02 3.196560e+01
8.650000e+02 3.346414e+01
8.660000e+02 3.502899e+01
8.670000e+02 3.666291e+01
8.680000e+02 3.836876e+01
8.690000e+02 4.014952e+01
8.700000e+02 4.200825e+01
8.710000e+02 4.394819e+01
8.720000e+02 4.597265e+01
8.730000e+02 4.808509e+01
8.740000e+02 5.028910e+01
8.750000e+02 5.258840e+01
8.760000e+02 5.498685e+01
8.770000e+02 5.748848e+01
8.780000e+02 6.009743e+01
8.790000e+02 6.281804e+01
8.800000e+02 6.565478e+01
8.810000e+02 6.861230e+01
8.820000e+02 7.169541e+01
8.830000e+02 7.490914e+01
8.840000e+02 7.825865e+01
8.850000e+02 8.174934e+01
8.860000e+02 8.538676e+01
8.870000e+02 8.917671e+01
8.880000e+02 9.312519e+01
8.890000e+02 9.723840e+01
8.900000e+02 1.015228e+02
8.910000e+02 1.059850e+02
8.920000e+02 1.106174e+02
8.930000e+02 1.154709e+02
8.940000e+02 1.205092e+02
8.950000e+02 1.257545e+02
8.960000e+02 1.312149e+02
8.970000e+02 1.368985e+02
8.980000e+02 1.428139e+02
8.990000e+02 1.489700e+02
9.000000e+02 1.553759e+02
9.010000e+02 1.620412e+02
9.020000e+02 1.689756e+02
9.030000e+02 1.761893e+02
9.040000e+02 1.836928e+02
9.050000e+02 1.914971e+02
9.060000e+02 1.996135e+02
9.070000e+02 2.080534e+02
9.080000e+02 2.168293e+02
9.090000e+02 2.259533e+02
9.100000e+02 2.354386e+02
9.110000e+02 2.452984e+02
9.120000e+02 2.555471e+02
9.130000e+02 2.659670e+02
9.140000e+02 2.778755e+02
9.150000e+02 8.833239e+02
9.160000e+02 2.316791e+03
9.170000e+02 1.999349e+03
9.180000e+02 1.869236e+03
9.190000e+02 4.531903e+03
9.200000e+02 5.634674e+03
9.210000e+02 3.674255e+02
9.220000e+02 5.999152e+03
9.230000e+02 2.242856e+03
9.240000e+02 3.951416e+03
9.250000e+02 5.549284e+03
9.260000e+02 4.280884e+03
9.270000e+02 3.792398e+03
9.280000e+02 7.987398e+03
9.290000e+02 7.141763e+03
9.300000e+02 8.083159e+03
9.310000e+02 3.359568e+03
9.320000e+02 9.075047e+03
9.330000e+02 8.404903e+03
9.340000e+02 7.729650e+03
9.350000e+02 9.217261e+02
9.360000e+02 4.718882e+03
9.370000e+02 8.643485e+02
9.380000e+02 3.333844e+03
9.390000e+02 5.874262e+03
9.400000e+02 1.162578e+04
9.410000e+02 3.174109e+03
9.420000e+02 1.260021e+04
9.430000e+02 7.474859e+03
9.440000e+02 1.029515e+04
9.450000e+02 1.383584e+04
9.460000e+02 1.324430e+04
9.470000e+02 4.120195e+03
9.480000e+02 1.405853e+04
9.490000e+02 1.456830e+04
9.500000e+02 1.636758e+03
9.510000e+02 1.398514e+04
9.520000e+02 1.567749e+04
9.530000e+02 4.933592e+03
9.540000e+02 4.685730e+03
9.550000e+02 1.370556e+04
9.560000e+02 1.887339e+04
9.570000e+02 6.006150e+03
9.580000e+02 3.373470e+03
9.590000e+02 2.142457e+04
9.600000e+02 2.027727e+03
9.610000e+02 1.997232e+04
9.620000e+02 1.730720e+04
9.630000e+02 1.755899e+04
9.640000e+02 1.930375e+03
9.650000e+02 7.346294e+03
9.660000e+02 1.806837e+04
9.670000e+02 1.176617e+04
9.680000e+02 8.371912e+03
9.690000e+02 2.324511e+04
9.700000e+02 2.256070e+04
9.710000e+02 1.197090e+04
9.720000e+02 1.490048e+04
9.730000e+02 2.395505e+04
9.740000e+02 2.729303e+04
9.750000e+02 2.342999e+04
9.760000e+02 3.433998e+04
9.770000e+02 3.403209e+04
9.780000e+02 2.947945e+04
9.790000e+02 3.924683e+04
9.800000e+02 4.042979e+04
9.810000e+02 3.392279e+04
9.820000e+02 2.254528e+04
9.830000e+02 4.352948e+04
9.840000e+02 1.108866e+04
9.850000e+02 3.349279e+04
9.860000e+02 3.373935e+04
9.870000e+02 4.888269e+04
9.880000e+02 1.340021e+04
9.890000e+02 3.555456e+04
9.900000e+02 5.315633e+03
9.910000e+02 1.985435e+04
9.920000e+02 9.576582e+03
9.930000e+02 5.574225e+04
9.940000e+02 5.784988e+03
9.950000e+02 1.030188e+04
9.960000e+02 2.025111e+04
9.970000e+02 9.798676e+03
9.980000e+02 6.201745e+04
9.990000e+02 2.887951e+04
1.000000e+03 7.093663e+04
1.001000e+03 7.411406e+04
1.002000e+03 7.532627e+04
1.003000e+03 4.075944e+04
1.004000e+03 2.332926e+04
1.005000e+03 4.881732e+04
1.006000e+03 8.337854e+04
1.007000e+03 8.694706e+04
1.008000e+03 8.564576e+04
1.009000e+03 5.373061e+04
1.010000e+03 9.048820e+04
1.011000e+03 9.611561e+04
1.012000e+03 9.511603e+04
1.013000e+03 9.603238e+04
1.014000e+03 1.817107e+04
1.015000e+03 2.669080e+04
1.016000e+03 5.856569e+04
1.017000e+03 2.009906e+04
1.018000e+03 6.420893e+04
1.019000e+03 3.023409e+04
1.020000e+03 1.222756e+05
1.021000e+03 3.919438e+04
1.022000e+03 6.224205e+04
1.023000e+03 3.425422e+04
1.024000e+03 1.217921e+05
1.025000e+03 2.343069e+04
1.026000e+03 2.830799e+04
1.027000e+03 1.034753e+05
1.028000e+03 1.999530e+04
1.029000e+03 2.946280e+04
1.030000e+03 1.299679e+05
1.031000e+03 1.067351e+05
1.032000e+03 1.594482e+05
1.033000e+03 3.256358e+04
1.034000e+03 1.455645e+05
1.035000e+03 2.308936e+04
1.036000e+03 3.754692e+04
1.037000e+03 1.785518e+05
1.038000e+03 1.989732e+05
1.039000e+03 1.933680e+05
1.040000e+03 2.007835e+05
1.041000e+03 2.160484e+05
1.042000e+03 2.183929e+05
1.043000e+03 2.084127e+05
1.044000e+03 2.353967e+05
1.045000e+03 2.296937e+05
1.046000e+03 2.420570e+05
1.047000e+03 1.958657e+05
1.048000e+03 8.696856e+04
1.049000e+03 2.290444e+05
1.050000e+03 2.109688e+05
1.051000e+03 1.815062e+05
1.052000e+03 2.793773e+05
1.053000e+03 2.925907e+05
1.054000e+03 5.978577e+04
1.055000e+03 3.108204e+05
1.056000e+03 3.187451e+05
1.057000e+03 2.797761e+05
1.058000e+03 2.445734e+05
1.059000e+03 1.497989e+05
1.060000e+03 1.233227e+05
1.061000e+03 3.153681e+05
1.062000e+03 2.195429e+05
1.063000e+03 1.347683e+05
1.064000e+03 5.313094e+04
1.065000e+03 8.587953e+04
1.066000e+03 3.490618e+05
1.067000e+03 1.604303e+05
1.068000e+03 4.327110e+05
1.069000e+03 1.165976e+05
1.070000e+03 3.945000e+05
1.071000e+03 4.635227e+05
1.072000e+03 4.725506e+05
1.073000e+03 1.163294e+05
1.074000e+03 3.820182e+05
1.075000e+03 3.515741e+05
1.076000e+03 5.221471e+05
1.077000e+03 2.001676e+05
1.078000e+03 3.468263e+05
1.079000e+03 4.490669e+05
1.080000e+03 4.935171e+05
1.081000e+03 5.455061e+05
1.082000e+03 5.504364e+05
1.083000e+03 5.321062e+05
1.084000e+03 6.376487e+05
1.085000e+03 4.146742e+05
1.086000e+03 6.671058e+05
1.087000e+03 2.939221e+05
1.088000e+03 6.993364e+05
1.089000e+03 7.179624e+05
1.090000e+03 4.602937e+05
1.091000e+03 4.622609e+05
1.092000e+03 7.653608e+05
1.093000e+03 7.823930e+05
1.094000e+03 7.471214e+05
1.095000e+03 8.234024e+05
1.096000e+03 7.045418e+05
1.097000e+03 8.049915e+05
1.098000e+03 8.795653e+05
1.099000e+03 7.497572e+05
1.100000e+03 3.172230e+05
1.101000e+03 4.014142e+05
1.102000e+03 8.647993e+05
1.103000e+03 4.483323e+06
1.104000e+03 2.161398e+06
1.105000e+03 9.646140e+05
1.106000e+03 3.151475e+06
1.107000e+03 3.622675e+05
1.108000e+03 5.274937e+06
1.109000e+03 9.191780e+05
1.110000e+03 3.567806e+06
1.111000e+03 2.165137e+06
1.112000e+03 4.556479e+06
1.113000e+03 7.305704e+06
1.114000e+03 7.245293e+05
1.115000e+03 1.618483e+06
1.116000e+03 1.284079e+06
1.117000e+03 6.669355e+05
1.118000e+03 1.245903e+06
1.119000e+03 5.847032e+06
1.120000e+03 1.353446e+06
1.121000e+03 7.197330e+06
1.122000e+03 2.504500e+05
1.123000e+03 3.010621e+06
1.124000e+03 8.238059e+06
1.125000e+03 6.168022e+06
1.126000e+03 9.828444e+06
1.127000e+03 8.956776e+06
1.128000e+03 4.525800e+06
1.129000e+03 6.848354e+06
1.130000e+03 9.249002e+06
1.131000e+03 1.014702e+07
1.132000e+03 6.939525e+05
1.133000e+03 2.172056e+06
1.134000e+03 7.056126e+06
1.135000e+03 6.201048e+05
1.136000e+03 4.245010e+06
1.137000e+03 1.080790e+07
1.138000e+03 7.209784e+06
1.139000e+03 1.162618e+07
1.140000e+03 4.556844e+05
1.141000e+03 1.150610e+07
1.142000e+03 1.268760e+07
1.143000e+03 1.074695e+07
1.144000e+03 1.313812e+07
1.145000e+03 1.259262e+06
1.146000e+03 1.382809e+07
1.147000e+03 1.324283e+07
1.148000e+03 2.806932e+06
1.149000e+03 1.310256e+07
1.150000e+03 1.059762e+07
1.151000e+03 1.492426e+07
1.152000e+03 1.448868e+07
1.153000e+03 9.629672e+06
1.154000e+03 1.477259e+07
1.155000e+03 1.297308e+07
1.156000e+03 1.198075e+07
1.157000e+03 1.625831e+07
1.158000e+03 9.997344e+05
1.159000e+03 1.544300e+07
1.160000e+03 1.067903e+07
1.161000e+03 1.701100e+07
1.162000e+03 4.173665e+06
1.163000e+03 8.647602e+06
1.164000e+03 8.419290e+05
1.165000e+03 1.795869e+07
1.166000e+03 1.632573e+07
1.167000e+03 1.589272e+07
1.168000e+03 1.990067e+07
1.169000e+03 1.999870e+07
1.170000e+03 1.770312e+07
1.171000e+03 1.920975e+07
1.172000e+03 1.305574e+07
1.173000e+03 2.151094e+07
1.174000e+03 3.725629e+06
1.175000e+03 1.041807e+06
1.176000e+03 9.971640e+05
1.177000e+03 2.349451e+07
1.178000e+03 2.373633e+07
1.179000e+03 2.352246e+07
1.180000e+03 1.662376e+07
1.181000e+03 2.506488e+07
1.182000e+03 2.423307e+07
1.183000e+03 2.188369e+07
1.184000e+03 2.085216e+07
1.185000e+03 2.407994e+07
1.186000e+03 9.979963e+06
1.187000e+03 2.491252e+07
1.188000e+03 1.740335e+07
1.189000e+03 1.428970e+06
1.190000e+03 1.548485e+07
1.191000e+03 2.509249e+07
1.192000e+03 2.815670e+07
1.193000e+03 1.417502e+06
1.194000e+03 1.627152e+06
1.195000e+03 2.537078e+07
1.196000e+03 2.846171e+07
1.197000e+03 4.066456e+07
1.198000e+03 1.805773e+07
1.199000e+03 4.038310e+07
1.200000e+03 2.108660e+07
1.201000e+03 3.903141e+07
1.202000e+03 2.909587e+07
1.203000e+03 4.357396e+07
1.204000e+03 1.824883e+07
1.205000e+03 3.820845e+07
1.206000e+03 3.888268e+07
1.207000e+03 7.112032e+06
1.208000e+03 3.067060e+07
1.209000e+03 2.581323e+07
1.210000e+03 2.209092e+06
1.211000e+03 1.555399e+07
1.212000e+03 9.965416e+06
1.213000e+03 6.383038e+06
1.214000e+03 3.726760e+06
1.215000e+03 2.605022e+06
1.216000e+03 2.448978e+06
1.217000e+03 3.391728e+06
1.218000e+03 5.822442e+06
1.219000e+03 1.025800e+07
1.220000e+03 1.263590e+07
1.221000e+03 2.343786e+07
1.222000e+03 2.941168e+07
1.223000e+03 3.675624e+07
1.224000e+03 4.535989e+07
1.225000e+03 1.992923e+07
1.226000e+03 6.035455e+07
1.227000e+03 6.467514e+07
1.228000e+03 4.169104e+07
1.229000e+03 6.757811e+07
1.230000e+03 6.354392e+07
1.231000e+03 4.157351e+07
1.232000e+03 9.111814e+07
1.233000e+03 9.647146e+07
1.234000e+03 7.234396e+07
1.235000e+03 1.004854e+08
1.236000e+03 5.373728e+07
1.237000e+03 1.089712e+08
1.238000e+03 1.042914e+08
1.239000e+03 1.024778e+08
1.240000e+03 8.860389e+07
1.241000e+03 1.027092e+08
1.242000e+03 1.086179e+08
1.243000e+03 1.306178e+08
1.244000e+03 1.107227e+08
1.245000e+03 1.196565e+08
1.246000e+03 1.348103e+08
1.247000e+03 1.380217e+08
1.248000e+03 1.068765e+08
1.249000e+03 1.326832e+08
1.250000e+03 1.343845e+08
1.251000e+03 1.649304e+08
1.252000e+03 1.554313e+08
1.253000e+03 1.699691e+08
1.254000e+03 1.615765e+08
1.255000e+03 1.750152e+08
1.256000e+03 1.633461e+08
1.257000e+03 1.695942e+08
1.258000e+03 1.419929e+08
1.259000e+03 1.711728e+08
1.260000e+03 1.864604e+08
1.261000e+03 6.217776e+06
1.262000e+03 1.096508e+08
1.263000e+03 1.939358e+08
1.264000e+03 1.648677e+08
1.265000e+03 6.650912e+06
1.266000e+03 2.032581e+08
1.267000e+03 1.794972e+08
