# wavelength_A flux
5.000000e+02 1.289357e-39
5.010000e+02 1.689394e-39
5.020000e+02 2.211120e-39
5.030000e+02 2.890814e-39
5.040000e+02 3.775355e-39
5.050000e+02 4.926045e-39
5.060000e+02 6.419487e-39
5.070000e+02 8.356781e-39
5.080000e+02 1.086726e-38
5.090000e+02 1.411705e-38
5.100000e+02 1.831712e-38
5.110000e+02 2.374830e-38
5.120000e+02 3.075401e-38
5.130000e+02 3.978572e-38
5.140000e+02 5.141721e-38
5.150000e+02 6.638179e-38
5.160000e+02 8.561530e-38
5.170000e+02 1.103109e-37
5.180000e+02 1.419882e-37
5.190000e+02 1.825811e-37
5.200000e+02 2.345478e-37
5.210000e+02 3.010103e-37
5.220000e+02 3.859294e-37
5.230000e+02 4.943275e-37
5.240000e+02 6.325618e-37
5.250000e+02 8.086776e-37
5.260000e+02 1.032843e-36
5.270000e+02 1.317900e-36
5.280000e+02 1.680048e-36
5.290000e+02 2.139708e-36
5.300000e+02 2.722598e-36
5.310000e+02 3.461072e-36
5.320000e+02 4.395804e-36
5.330000e+02 5.577875e-36
5.340000e+02 7.071381e-36
5.350000e+02 8.956679e-36
5.360000e+02 1.133442e-35
5.370000e+02 1.433015e-35
5.380000e+02 1.810260e-35
5.390000e+02 2.284729e-35
5.400000e+02 2.881022e-35
5.410000e+02 3.629766e-35
5.420000e+02 4.569128e-35
5.430000e+02 5.746618e-35
5.440000e+02 7.221343e-35
5.450000e+02 9.066763e-35
5.460000e+02 1.137411e-34
5.470000e+02 1.425657e-34
5.480000e+02 1.785449e-34
5.490000e+02 2.234172e-34
5.500000e+02 2.793345e-34
5.510000e+02 3.489582e-34
5.520000e+02 4.355769e-34
5.530000e+02 5.432514e-34
5.540000e+02 6.769920e-34
5.550000e+02 8.429750e-34
5.560000e+02 1.048809e-33
5.570000e+02 1.303858e-33
5.580000e+02 1.619639e-33
5.590000e+02 2.010307e-33
5.600000e+02 2.493243e-33
5.610000e+02 3.089772e-33
5.620000e+02 3.826043e-33
5.630000e+02 4.734092e-33
5.640000e+02 5.853138e-33
5.650000e+02 7.231156e-33
5.660000e+02 8.926795e-33
5.670000e+02 1.101169e-32
5.680000e+02 1.357327e-32
5.690000e+02 1.671819e-32
5.700000e+02 2.057641e-32
5.710000e+02 2.530623e-32
5.720000e+02 3.110029e-32
5.730000e+02 3.819287e-32
5.740000e+02 4.686868e-32
5.750000e+02 5.747347e-32
5.760000e+02 7.042679e-32
5.770000e+02 8.623745e-32
5.780000e+02 1.055220e-31
5.790000e+02 1.290271e-31
5.800000e+02 1.576563e-31
5.810000e+02 1.925021e-31
5.820000e+02 2.348850e-31
5.830000e+02 2.863995e-31
5.840000e+02 3.489698e-31
5.850000e+02 4.249167e-31
5.860000e+02 5.170369e-31
5.870000e+02 6.286988e-31
5.880000e+02 7.639564e-31
5.890000e+02 9.276857e-31
5.900000e+02 1.125748e-30
5.910000e+02 1.365182e-30
5.920000e+02 1.654440e-30
5.930000e+02 2.003659e-30
5.940000e+02 2.424992e-30
5.950000e+02 2.933000e-30
5.960000e+02 3.545117e-30
5.970000e+02 4.282203e-30
5.980000e+02 5.169200e-30
5.990000e+02 6.235919e-30
6.000000e+02 7.517959e-30
6.010000e+02 9.057810e-30
6.020000e+02 1.090615e-29
6.030000e+02 1.312341e-29
6.040000e+02 1.578154e-29
6.050000e+02 1.896625e-29
6.060000e+02 2.277950e-29
6.070000e+02 2.734254e-29
6.080000e+02 3.279946e-29
6.090000e+02 3.932143e-29
6.100000e+02 4.711158e-29
6.110000e+02 5.641095e-29
6.120000e+02 6.750525e-29
6.130000e+02 8.073309e-29
6.140000e+02 9.649540e-29
6.150000e+02 1.152668e-28
6.160000e+02 1.376085e-28
6.170000e+02 1.641841e-28
6.180000e+02 1.957777e-28
6.190000e+02 2.333150e-28
6.200000e+02 2.778886e-28
6.210000e+02 3.307872e-28
6.220000e+02 3.935297e-28
6.230000e+02 4.679061e-28
6.240000e+02 5.560238e-28
6.250000e+02 6.603629e-28
6.260000e+02 7.838406e-28
6.270000e+02 9.298864e-28
6.280000e+02 1.102529e-27
6.290000e+02 1.306501e-27
6.300000e+02 1.547355e-27
6.310000e+02 1.831604e-27
6.320000e+02 2.166886e-27
6.330000e+02 2.562150e-27
6.340000e+02 3.027875e-27
6.350000e+02 3.576330e-27
6.360000e+02 4.221866e-27
6.370000e+02 4.981266e-27
6.380000e+02 5.874142e-27
6.390000e+02 6.923405e-27
6.400000e+02 8.155802e-27
6.410000e+02 9.602544e-27
6.420000e+02 1.130003e-26
6.430000e+02 1.329071e-26
6.440000e+02 1.562400e-26
6.450000e+02 1.835749e-26
6.460000e+02 2.155820e-26
6.470000e+02 2.530409e-26
6.480000e+02 2.968582e-26
6.490000e+02 3.480875e-26
6.500000e+02 4.079528e-26
6.510000e+02 4.778752e-26
6.520000e+02 5.595041e-26
6.530000e+02 6.547525e-26
6.540000e+02 7.658384e-26
6.550000e+02 8.953324e-26
6.560000e+02 1.046211e-25
6.570000e+02 1.221923e-25
6.580000e+02 1.426455e-25
6.590000e+02 1.664422e-25
6.600000e+02 1.941157e-25
6.610000e+02 2.262825e-25
6.620000e+02 2.636544e-25
6.630000e+02 3.070534e-25
6.640000e+02 3.574279e-25
6.650000e+02 4.158721e-25
6.660000e+02 4.836471e-25
6.670000e+02 5.622067e-25
6.680000e+02 6.532250e-25
6.690000e+02 7.586297e-25
6.700000e+02 8.806394e-25
6.710000e+02 1.021806e-24
6.720000e+02 1.185065e-24
6.730000e+02 1.373787e-24
6.740000e+02 1.591848e-24
6.750000e+02 1.843696e-24
6.760000e+02 2.134438e-24
6.770000e+02 2.469933e-24
6.780000e+02 2.856901e-24
6.790000e+02 3.303042e-24
6.800000e+02 3.817184e-24
6.810000e+02 4.409434e-24
6.820000e+02 5.091365e-24
6.830000e+02 5.876221e-24
6.840000e+02 6.779150e-24
6.850000e+02 7.817474e-24
6.860000e+02 9.010993e-24
6.870000e+02 1.038233e-23
6.880000e+02 1.195730e-23
6.890000e+02 1.376541e-23
6.900000e+02 1.584029e-23
6.910000e+02 1.822032e-23
6.920000e+02 2.094927e-23
6.930000e+02 2.407699e-23
6.940000e+02 2.766029e-23
6.950000e+02 3.176388e-23
6.960000e+02 3.646138e-23
6.970000e+02 4.183660e-23
6.980000e+02 4.798485e-23
6.990000e+02 5.501447e-23
7.000000e+02 6.304864e-23
7.010000e+02 7.222727e-23
7.020000e+02 8.270924e-23
7.030000e+02 9.467495e-23
7.040000e+02 1.083291e-22
7.050000e+02 1.239038e-22
7.060000e+02 1.416624e-22
7.070000e+02 1.619033e-22
7.080000e+02 1.849645e-22
7.090000e+02 2.112291e-22
7.100000e+02 2.411307e-22
7.110000e+02 2.751599e-22
7.120000e+02 3.138719e-22
7.130000e+02 3.578945e-22
7.140000e+02 4.079376e-22
7.150000e+02 4.648033e-22
7.160000e+02 5.293977e-22
7.170000e+02 6.027443e-22
7.180000e+02 6.859981e-22
7.190000e+02 7.804629e-22
7.200000e+02 8.876092e-22
7.210000e+02 1.009095e-21
7.220000e+02 1.146790e-21
7.230000e+02 1.302801e-21
7.240000e+02 1.479500e-21
7.250000e+02 1.679559e-21
7.260000e+02 1.905986e-21
7.270000e+02 2.162166e-21
7.280000e+02 2.451905e-21
7.290000e+02 2.779486e-21
7.300000e+02 3.149720e-21
7.310000e+02 3.568016e-21
7.320000e+02 4.040448e-21
7.330000e+02 4.573840e-21
7.340000e+02 5.175849e-21
7.350000e+02 5.855070e-21
7.360000e+02 6.621145e-21
7.370000e+02 7.484884e-21
7.380000e+02 8.458412e-21
7.390000e+02 9.555313e-21
7.400000e+02 1.079080e-20
7.410000e+02 1.218193e-20
7.420000e+02 1.374779e-20
7.430000e+02 1.550973e-20
7.440000e+02 1.749164e-20
7.450000e+02 1.972028e-20
7.460000e+02 2.222552e-20
7.470000e+02 2.504078e-20
7.480000e+02 2.820340e-20
7.490000e+02 3.175507e-20
7.500000e+02 3.574239e-20
7.510000e+02 4.021735e-20
7.520000e+02 4.523798e-20
7.530000e+02 5.086903e-20
7.540000e+02 5.718270e-20
7.550000e+02 6.425953e-20
7.560000e+02 7.218925e-20
7.570000e+02 8.107187e-20
7.580000e+02 9.101881e-20
7.590000e+02 1.021541e-19
7.600000e+02 1.146159e-19
7.610000e+02 1.285579e-19
7.620000e+02 1.441511e-19
7.630000e+02 1.615858e-19
7.640000e+02 1.810735e-19
7.650000e+02 2.028494e-19
7.660000e+02 2.271747e-19
7.670000e+02 2.543397e-19
7.680000e+02 2.846669e-19
7.690000e+02 3.185143e-19
7.700000e+02 3.562793e-19
7.710000e+02 3.984026e-19
7.720000e+02 4.453736e-19
7.730000e+02 4.977346e-19
7.740000e+02 5.560872e-19
7.750000e+02 6.210979e-19
7.760000e+02 6.935054e-19
7.770000e+02 7.741280e-19
7.780000e+02 8.638719e-19
7.790000e+02 9.637403e-19
7.800000e+02 1.074844e-18
7.810000e+02 1.198411e-18
7.820000e+02 1.335800e-18
7.830000e+02 1.488516e-18
7.840000e+02 1.658220e-18
7.850000e+02 1.846748e-18
7.860000e+02 2.056130e-18
7.870000e+02 2.288609e-18
7.880000e+02 2.546660e-18
7.890000e+02 2.833018e-18
7.900000e+02 3.150700e-18
7.910000e+02 3.503035e-18
7.920000e+02 3.893698e-18
7.930000e+02 4.326739e-18
7.940000e+02 4.806626e-18
7.950000e+02 5.338284e-18
7.960000e+02 5.927138e-18
7.970000e+02 6.579168e-18
7.980000e+02 7.300960e-18
7.990000e+02 8.099763e-18
8.000000e+02 8.983562e-18
8.010000e+02 9.961141e-18
8.020000e+02 1.104217e-17
8.030000e+02 1.223728e-17
8.040000e+02 1.355817e-17
8.050000e+02 1.501769e-17
8.060000e+02 1.662998e-17
8.070000e+02 1.841057e-17
8.080000e+02 2.037652e-17
8.090000e+02 2.254658e-17
8.100000e+02 2.494132e-17
8.110000e+02 2.758333e-17
8.120000e+02 3.049742e-17
8.130000e+02 3.371078e-17
8.140000e+02 3.725327e-17
8.150000e+02 4.115762e-17
8.160000e+02 4.545971e-17
8.170000e+02 5.019889e-17
8.180000e+02 5.541829e-17
8.190000e+02 6.116514e-17
8.200000e+02 6.749117e-17
8.210000e+02 7.445308e-17
8.220000e+02 8.211291e-17
8.230000e+02 9.053857e-17
8.240000e+02 9.980439e-17
8.250000e+02 1.099917e-16
8.260000e+02 1.211894e-16
8.270000e+02 1.334949e-16
8.280000e+02 1.470144e-16
8.290000e+02 1.618642e-16
8.300000e+02 1.781714e-16
8.310000e+02 1.960747e-16
8.320000e+02 2.157258e-16
8.330000e+02 2.372903e-16
8.340000e+02 2.609489e-16
8.350000e+02 2.868990e-16
8.360000e+02 3.153558e-16
8.370000e+02 3.465545e-16
8.380000e+02 3.807512e-16
8.390000e+02 4.182255e-16
8.400000e+02 4.592822e-16
8.410000e+02 5.042534e-16
8.420000e+02 5.535015e-16
8.430000e+02 6.074207e-16
8.440000e+02 6.664409e-16
8.450000e+02 7.310302e-16
8.460000e+02 8.016985e-16
8.470000e+02 8.790005e-16
8.480000e+02 9.635402e-16
8.490000e+02 1.055975e-15
8.500000e+02 1.157020e-15
8.510000e+02 1.267452e-15
8.520000e+02 1.388119e-15
8.530000e+02 1.519938e-15
8.540000e+02 1.663911e-15
8.550000e+02 1.821123e-15
8.560000e+02 1.992755e-15
8.570000e+02 2.180089e-15
8.580000e+02 2.384519e-15
8.590000e+02 2.607556e-15
8.600000e+02 2.850843e-15
8.610000e+02 3.116162e-15
8.620000e+02 3.405447e-15
8.630000e+02 3.720797e-15
8.640000e+02 4.064488e-15
8.650000e+02 4.438991e-15
8.660000e+02 4.846980e-15
8.670000e+02 5.291359e-15
8.680000e+02 5.775273e-15
8.690000e+02 6.302133e-15
8.700000e+02 6.875630e-15
8.710000e+02 7.499767e-15
8.720000e+02 8.178876e-15
8.730000e+02 8.917648e-15
8.740000e+02 9.721164e-15
8.750000e+02 1.059492e-14
8.760000e+02 1.154487e-14
8.770000e+02 1.257745e-14
8.780000e+02 1.369961e-14
8.790000e+02 1.491890e-14
8.800000e+02 1.624346e-14
8.810000e+02 1.768209e-14
8.820000e+02 1.924430e-14
8.830000e+02 2.094039e-14
8.840000e+02 2.278145e-14
8.850000e+02 2.477951e-14
8.860000e+02 2.694752e-14
8.870000e+02 2.929949e-14
8.880000e+02 3.185053e-14
8.890000e+02 3.461696e-14
8.900000e+02 3.761639e-14
8.910000e+02 4.086783e-14
8.920000e+02 4.439179e-14
8.930000e+02 4.821037e-14
8.940000e+02 5.234745e-14
8.950000e+02 5.682871e-14
8.960000e+02 6.168192e-14
8.970000e+02 6.693693e-14
8.980000e+02 7.262598e-14
8.990000e+02 7.878376e-14
9.000000e+02 8.544765e-14
9.010000e+02 9.265794e-14
9.020000e+02 1.004580e-13
9.030000e+02 1.088945e-13
9.040000e+02 1.180177e-13
9.050000e+02 1.278817e-13
9.060000e+02 1.385448e-13
9.070000e+02 1.500696e-13
9.080000e+02 1.625235e-13
9.090000e+02 1.759790e-13
9.100000e+02 1.905139e-13
9.110000e+02 2.062123e-13
9.120000e+02 2.231640e-13
9.130000e+02 2.414661e-13
9.140000e+02 2.644690e-13
9.150000e+02 5.251108e-11
9.160000e+02 4.131606e-10
9.170000e+02 6.502648e-11
9.180000e+02 6.940948e-11
9.190000e+02 1.277172e-09
9.200000e+02 4.038923e-09
9.210000e+02 4.507574e-13
9.220000e+02 5.187755e-09
9.230000e+02 2.448773e-11
9.240000e+02 1.355915e-10
9.250000e+02 2.127057e-09
9.260000e+02 1.083702e-10
9.270000e+02 1.330472e-10
9.280000e+02 3.108459e-08
9.290000e+02 2.923522e-08
9.300000e+02 5.304030e-09
9.310000e+02 6.452671e-11
9.320000e+02 2.261256e-08
9.330000e+02 2.335814e-08
9.340000e+02 7.303683e-09
9.350000e+02 5.728060e-11
9.360000e+02 6.725056e-10
9.370000e+02 1.543290e-11
9.380000e+02 2.508561e-11
9.390000e+02 1.877217e-09
9.400000e+02 6.392177e-08
9.410000e+02 1.268621e-09
9.420000e+02 1.172132e-07
9.430000e+02 4.482885e-09
9.440000e+02 1.348383e-07
9.450000e+02 1.326965e-07
9.460000e+02 6.529359e-08
9.470000e+02 4.120615e-11
9.480000e+02 2.533190e-08
9.490000e+02 2.640120e-09
9.500000e+02 2.199498e-11
9.510000e+02 1.583786e-08
9.520000e+02 6.759664e-08
9.530000e+02 8.158247e-10
9.540000e+02 4.964479e-11
9.550000e+02 1.011733e-08
9.560000e+02 1.190616e-07
9.570000e+02 2.987363e-09
9.580000e+02 1.855938e-11
9.590000e+02 2.623142e-07
9.600000e+02 1.089830e-10
9.610000e+02 1.757272e-07
9.620000e+02 7.228901e-08
9.630000e+02 4.120551e-09
9.640000e+02 7.469012e-10
9.650000e+02 1.656986e-10
9.660000e+02 1.361437e-08
9.670000e+02 1.448370e-09
9.680000e+02 9.750636e-10
9.690000e+02 6.250350e-08
9.700000e+02 7.837394e-08
9.710000e+02 2.047932e-09
9.720000e+02 2.956766e-10
9.730000e+02 5.276949e-10
9.740000e+02 2.450239e-08
9.750000e+02 2.627245e-08
9.760000e+02 3.560032e-07
9.770000e+02 4.022426e-07
9.780000e+02 2.679468e-07
9.790000e+02 9.504061e-07
9.800000e+02 1.055832e-06
9.810000e+02 1.994921e-07
9.820000e+02 2.681298e-08
9.830000e+02 1.325078e-06
9.840000e+02 2.593582e-08
9.850000e+02 7.514995e-08
9.860000e+02 8.029575e-08
9.870000e+02 1.629897e-06
9.880000e+02 6.230039e-10
9.890000e+02 1.012481e-06
9.900000e+02 1.054319e-06
9.910000e+02 2.824820e-08
9.920000e+02 1.460523e-10
9.930000e+02 1.751439e-06
9.940000e+02 1.199112e-10
9.950000e+02 6.936837e-08
9.960000e+02 3.221203e-09
9.970000e+02 4.087594e-09
9.980000e+02 2.229820e-06
9.990000e+02 4.224240e-08
1.000000e+03 3.663389e-06
1.001000e+03 3.306674e-06
1.002000e+03 4.069992e-06
1.003000e+03 4.297209e-08
1.004000e+03 1.066155e-09
1.005000e+03 2.548750e-07
1.006000e+03 4.489070e-06
1.007000e+03 5.098399e-06
1.008000e+03 4.157122e-06
1.009000e+03 4.515792e-08
1.010000e+03 4.126286e-06
1.011000e+03 4.523587e-06
1.012000e+03 5.081207e-06
1.013000e+03 5.068748e-06
1.014000e+03 6.173195e-10
1.015000e+03 2.313300e-09
1.016000e+03 2.347256e-07
1.017000e+03 5.215952e-10
1.018000e+03 6.401638e-08
1.019000e+03 2.210527e-09
1.020000e+03 3.530992e-06
1.021000e+03 7.572248e-08
1.022000e+03 1.782970e-07
1.023000e+03 7.745257e-09
1.024000e+03 1.553420e-07
1.025000e+03 6.870033e-10
1.026000e+03 8.400602e-10
1.027000e+03 6.742238e-08
1.028000e+03 5.119375e-09
1.029000e+03 1.197122e-09
1.030000e+03 1.045544e-06
1.031000e+03 3.599267e-06
1.032000e+03 1.159246e-05
1.033000e+03 8.216921e-08
1.034000e+03 4.413377e-06
1.035000e+03 2.806701e-09
1.036000e+03 2.821253e-09
1.037000e+03 3.878048e-05
1.038000e+03 7.198163e-05
1.039000e+03 5.364425e-05
1.040000e+03 4.555371e-05
1.041000e+03 8.480810e-05
1.042000e+03 9.561462e-05
1.043000e+03 5.723425e-05
1.044000e+03 1.312738e-04
1.045000e+03 4.582143e-09
1.046000e+03 4.768262e-05
1.047000e+03 2.144415e-05
1.048000e+03 1.448934e-07
1.049000e+03 2.007080e-05
1.050000e+03 2.397290e-06
1.051000e+03 8.987554e-07
1.052000e+03 1.731053e-04
1.053000e+03 2.131038e-04
1.054000e+03 5.973561e-09
1.055000e+03 1.813074e-04
1.056000e+03 2.171414e-04
1.057000e+03 6.138079e-05
1.058000e+03 1.156850e-06
1.059000e+03 6.243790e-07
1.060000e+03 1.734006e-07
1.061000e+03 1.591508e-04
1.062000e+03 5.521317e-07
1.063000e+03 4.783646e-07
1.064000e+03 9.255018e-09
1.065000e+03 1.050648e-08
1.066000e+03 5.666136e-05
1.067000e+03 1.023476e-06
1.068000e+03 4.153957e-04
1.069000e+03 1.704599e-07
1.070000e+03 2.053406e-05
1.071000e+03 3.420334e-04
1.072000e+03 5.000996e-04
1.073000e+03 2.840534e-08
1.074000e+03 1.049573e-04
1.075000e+03 5.897100e-05
1.076000e+03 2.623678e-04
1.077000e+03 2.748857e-07
1.078000e+03 1.753971e-06
1.079000e+03 1.414461e-05
1.080000e+03 6.960426e-05
1.081000e+03 5.170455e-04
1.082000e+03 3.125306e-04
1.083000e+03 1.766520e-04
1.084000e+03 8.053086e-04
1.085000e+03 2.198346e-05
1.086000e+03 9.556242e-04
1.087000e+03 2.687157e-06
1.088000e+03 1.051555e-03
1.089000e+03 1.078196e-03
1.090000e+03 1.793535e-05
1.091000e+03 3.583869e-05
1.092000e+03 1.072635e-03
1.093000e+03 1.211678e-03
1.094000e+03 2.901532e-04
1.095000e+03 1.410632e-03
1.096000e+03 2.540171e-05
1.097000e+03 1.267132e-03
1.098000e+03 1.462750e-03
1.099000e+03 6.648095e-05
1.100000e+03 4.452231e-07
1.101000e+03 1.509283e-06
1.102000e+03 5.764766e-05
1.103000e+03 1.908817e-03
1.104000e+03 2.029464e-03
1.105000e+03 2.082492e-03
1.106000e+03 3.724996e-04
1.107000e+03 1.223176e-06
1.108000e+03 1.909464e-03
1.109000e+03 2.601510e-05
1.110000e+03 2.429409e-03
1.111000e+03 2.273594e-03
1.112000e+03 1.338626e-03
1.113000e+03 1.906243e-03
1.114000e+03 6.035049e-04
1.115000e+03 2.363161e-05
1.116000e+03 5.473868e-06
1.117000e+03 3.137440e-03
1.118000e+03 4.786113e-05
1.119000e+03 1.366211e-03
1.120000e+03 1.193001e-05
1.121000e+03 3.301824e-03
1.122000e+03 4.131846e-03
1.123000e+03 5.202388e-03
1.124000e+03 6.310354e-03
1.125000e+03 4.905690e-03
1.126000e+03 5.712880e-03
1.127000e+03 4.618534e-03
1.128000e+03 4.004385e-03
1.129000e+03 2.783963e-03
1.130000e+03 4.483767e-03
1.131000e+03 3.578698e-03
1.132000e+03 1.995265e-05
1.133000e+03 4.271434e-04
1.134000e+03 3.227982e-03
1.135000e+03 2.303074e-03
1.136000e+03 6.861738e-04
1.137000e+03 3.038804e-03
1.138000e+03 2.606847e-03
1.139000e+03 3.759171e-03
1.140000e+03 3.585502e-03
1.141000e+03 3.435484e-03
1.142000e+03 3.666750e-03
1.143000e+03 2.394771e-03
1.144000e+03 3.517925e-03
1.145000e+03 1.140474e-05
1.146000e+03 3.847208e-03
1.147000e+03 3.855799e-03
1.148000e+03 1.608925e-04
1.149000e+03 3.665372e-03
1.150000e+03 3.629920e-03
1.151000e+03 3.771636e-03
1.152000e+03 3.516364e-03
1.153000e+03 3.619164e-03
1.154000e+03 3.530377e-03
1.155000e+03 3.393521e-03
1.156000e+03 2.621816e-03
1.157000e+03 3.317834e-03
1.158000e+03 2.628471e-03
1.159000e+03 3.406265e-03
1.160000e+03 2.905852e-03
1.161000e+03 3.135889e-03
1.162000e+03 6.051182e-04
1.163000e+03 1.720627e-03
1.164000e+03 6.882241e-06
1.165000e+03 1.770933e-03
1.166000e+03 9.246969e-04
1.167000e+03 6.046278e-04
1.168000e+03 3.583364e-03
1.169000e+03 3.641573e-03
1.170000e+03 6.291193e-04
1.171000e+03 1.633564e-03
1.172000e+03 1.296343e-03
1.173000e+03 1.115450e-03
1.174000e+03 8.308725e-05
1.175000e+03 6.949762e-06
1.176000e+03 2.609217e-06
1.177000e+03 4.714919e-03
1.178000e+03 4.453070e-03
1.179000e+03 4.228871e-03
1.180000e+03 3.785047e-03
1.181000e+03 3.825281e-03
1.182000e+03 3.702602e-03
1.183000e+03 3.412687e-03
1.184000e+03 3.296856e-03
1.185000e+03 3.195592e-03
1.186000e+03 4.612436e-04
1.187000e+03 3.081530e-03
1.188000e+03 2.842820e-03
1.189000e+03 2.955809e-03
1.190000e+03 2.873987e-03
1.191000e+03 2.711316e-03
1.192000e+03 2.451894e-03
1.193000e+03 2.419187e-03
1.194000e+03 2.354269e-03
1.195000e+03 2.250007e-03
1.196000e+03 3.965141e-02
1.197000e+03 3.784442e-02
1.198000e+03 2.631711e-03
1.199000e+03 3.221443e-02
1.200000e+03 8.989153e-03
1.201000e+03 2.548927e-02
1.202000e+03 2.029801e-02
1.203000e+03 1.874740e-02
1.204000e+03 7.474309e-03
1.205000e+03 1.230021e-02
1.206000e+03 9.485662e-03
1.207000e+03 1.149928e-03
1.208000e+03 4.350117e-03
1.209000e+03 3.194996e-03
1.210000e+03 1.488230e-05
1.211000e+03 1.108288e-03
1.212000e+03 5.355878e-04
1.213000e+03 2.180318e-04
1.214000e+03 6.145552e-05
1.215000e+03 1.307643e-05
1.216000e+03 1.204168e-05
1.217000e+03 3.946561e-05
1.218000e+03 1.798388e-04
1.219000e+03 5.241141e-04
1.220000e+03 1.148383e-03
1.221000e+03 2.392802e-03
1.222000e+03 4.365787e-03
1.223000e+03 6.919823e-03
1.224000e+03 1.000627e-02
1.225000e+03 3.456767e-03
1.226000e+03 2.173679e-02
1.227000e+03 2.963769e-02
1.228000e+03 2.699331e-02
1.229000e+03 4.809844e-02
1.230000e+03 3.705158e-02
1.231000e+03 2.181798e-02
1.232000e+03 8.170816e-02
1.233000e+03 9.506089e-02
1.234000e+03 8.701732e-02
1.235000e+03 1.209600e-01
1.236000e+03 8.159684e-02
1.237000e+03 1.481359e-01
1.238000e+03 1.617955e-01
1.239000e+03 1.632503e-01
1.240000e+03 2.140245e-02
1.241000e+03 1.763889e-01
1.242000e+03 2.141987e-01
1.243000e+03 2.297755e-01
1.244000e+03 2.445564e-01
1.245000e+03 2.554730e-01
1.246000e+03 2.608768e-01
1.247000e+03 2.776299e-01
1.248000e+03 1.804735e-01
1.249000e+03 3.058046e-01
1.250000e+03 2.716105e-01
1.251000e+03 3.388998e-01
1.252000e+03 3.309452e-01
1.253000e+03 3.584833e-01
1.254000e+03 3.544131e-01
1.255000e+03 7.357515e-02
1.256000e+03 3.268812e-01
1.257000e+03 2.368747e-01
1.258000e+03 3.519074e-01
1.259000e+03 3.853110e-01
1.260000e+03 4.203004e-01
1.261000e+03 9.282768e-03
1.262000e+03 4.376453e-01
1.263000e+03 3.768080e-01
1.264000e+03 4.095072e-01
1.265000e+03 2.800370e-01
1.266000e+03 5.244111e-01
1.267000e+03 5.485269e-01
