# wavelength_A flux
5.000000e+02 3.595171e-41
5.010000e+02 4.744516e-41
5.020000e+02 6.253995e-41
5.030000e+02 8.234730e-41
5.040000e+02 1.083064e-40
5.050000e+02 1.423215e-40
5.060000e+02 1.867735e-40
5.070000e+02 2.448405e-40
5.080000e+02 3.206143e-40
5.090000e+02 4.193848e-40
5.100000e+02 5.479035e-40
5.110000e+02 7.152858e-40
5.120000e+02 9.326538e-40
5.130000e+02 1.214804e-39
5.140000e+02 1.580651e-39
5.150000e+02 2.054535e-39
5.160000e+02 2.667729e-39
5.170000e+02 3.460376e-39
5.180000e+02 4.483946e-39
5.190000e+02 5.804383e-39
5.200000e+02 7.506069e-39
5.210000e+02 9.696891e-39
5.220000e+02 1.251463e-38
5.230000e+02 1.613515e-38
5.240000e+02 2.078253e-38
5.250000e+02 2.674221e-38
5.260000e+02 3.437733e-38
5.270000e+02 4.414943e-38
5.280000e+02 5.664465e-38
5.290000e+02 7.260654e-38
5.300000e+02 9.297754e-38
5.310000e+02 1.189510e-37
5.320000e+02 1.520367e-37
5.330000e+02 1.941428e-37
5.340000e+02 2.476788e-37
5.350000e+02 3.156846e-37
5.360000e+02 4.019919e-37
5.370000e+02 5.114073e-37
5.380000e+02 6.500581e-37
5.390000e+02 8.255199e-37
5.400000e+02 1.047397e-36
5.410000e+02 1.327716e-36
5.420000e+02 1.681558e-36
5.430000e+02 2.127811e-36
5.440000e+02 2.690118e-36
5.450000e+02 3.398040e-36
5.460000e+02 4.288513e-36
5.470000e+02 5.407645e-36
5.480000e+02 6.812945e-36
5.490000e+02 8.576081e-36
5.500000e+02 1.078629e-35
5.510000e+02 1.355461e-35
5.520000e+02 1.701905e-35
5.530000e+02 2.135103e-35
5.540000e+02 2.676331e-35
5.550000e+02 3.351971e-35
5.560000e+02 4.194711e-35
5.570000e+02 5.245018e-35
5.580000e+02 6.552954e-35
5.590000e+02 8.180397e-35
5.600000e+02 1.020377e-34
5.610000e+02 1.271739e-34
5.620000e+02 1.583755e-34
5.630000e+02 1.970754e-34
5.640000e+02 2.450381e-34
5.650000e+02 3.044340e-34
5.660000e+02 3.779311e-34
5.670000e+02 4.688072e-34
5.680000e+02 5.810848e-34
5.690000e+02 7.196981e-34
5.700000e+02 8.906940e-34
5.710000e+02 1.101478e-33
5.720000e+02 1.361112e-33
5.730000e+02 1.680678e-33
5.740000e+02 2.073716e-33
5.750000e+02 2.556761e-33
5.760000e+02 3.149986e-33
5.770000e+02 3.877989e-33
5.780000e+02 4.770737e-33
5.790000e+02 5.864718e-33
5.800000e+02 7.204323e-33
5.810000e+02 8.843521e-33
5.820000e+02 1.084788e-32
5.830000e+02 1.329700e-32
5.840000e+02 1.628746e-32
5.850000e+02 1.993635e-32
5.860000e+02 2.438552e-32
5.870000e+02 2.980669e-32
5.880000e+02 3.640767e-32
5.890000e+02 4.443965e-32
5.900000e+02 5.420616e-32
5.910000e+02 6.607367e-32
5.920000e+02 8.048438e-32
5.930000e+02 9.797147e-32
5.940000e+02 1.191774e-31
5.950000e+02 1.448759e-31
5.960000e+02 1.759979e-31
5.970000e+02 2.136632e-31
5.980000e+02 2.592175e-31
5.990000e+02 3.142769e-31
6.000000e+02 3.807814e-31
6.010000e+02 4.610581e-31
6.020000e+02 5.578963e-31
6.030000e+02 6.746379e-31
6.040000e+02 8.152838e-31
6.050000e+02 9.846210e-31
6.060000e+02 1.188373e-30
6.070000e+02 1.433381e-30
6.080000e+02 1.727813e-30
6.090000e+02 2.081419e-30
6.100000e+02 2.505829e-30
6.110000e+02 3.014905e-30
6.120000e+02 3.625163e-30
6.130000e+02 4.356267e-30
6.140000e+02 5.231615e-30
6.150000e+02 6.279032e-30
6.160000e+02 7.531588e-30
6.170000e+02 9.028564e-30
6.180000e+02 1.081659e-29
6.190000e+02 1.295098e-29
6.200000e+02 1.549734e-29
6.210000e+02 1.853339e-29
6.220000e+02 2.215119e-29
6.230000e+02 2.645971e-29
6.240000e+02 3.158786e-29
6.250000e+02 3.768804e-29
6.260000e+02 4.494034e-29
6.270000e+02 5.355743e-29
6.280000e+02 6.379036e-29
6.290000e+02 7.593524e-29
6.300000e+02 9.034123e-29
6.310000e+02 1.074197e-28
6.320000e+02 1.276552e-28
6.330000e+02 1.516181e-28
6.340000e+02 1.799791e-28
6.350000e+02 2.135273e-28
6.360000e+02 2.531897e-28
6.370000e+02 3.000550e-28
6.380000e+02 3.554013e-28
6.390000e+02 4.207284e-28
6.400000e+02 4.977949e-28
6.410000e+02 5.886616e-28
6.420000e+02 6.957431e-28
6.430000e+02 8.218661e-28
6.440000e+02 9.703386e-28
6.450000e+02 1.145029e-27
6.460000e+02 1.350462e-27
6.470000e+02 1.591919e-27
6.480000e+02 1.875574e-27
6.490000e+02 2.208629e-27
6.500000e+02 2.599488e-27
6.510000e+02 3.057949e-27
6.520000e+02 3.595433e-27
6.530000e+02 4.225243e-27
6.540000e+02 4.962867e-27
6.550000e+02 5.826332e-27
6.560000e+02 6.836603e-27
6.570000e+02 8.018055e-27
6.580000e+02 9.399013e-27
6.590000e+02 1.101238e-26
6.600000e+02 1.289634e-26
6.610000e+02 1.509521e-26
6.620000e+02 1.766040e-26
6.630000e+02 2.065148e-26
6.640000e+02 2.413750e-26
6.650000e+02 2.819842e-26
6.660000e+02 3.292680e-26
6.670000e+02 3.842975e-26
6.680000e+02 4.483113e-26
6.690000e+02 5.227415e-26
6.700000e+02 6.092426e-26
6.710000e+02 7.097258e-26
6.720000e+02 8.263969e-26
6.730000e+02 9.618018e-26
6.740000e+02 1.118876e-25
6.750000e+02 1.301006e-25
6.760000e+02 1.512091e-25
6.770000e+02 1.756624e-25
6.780000e+02 2.039778e-25
6.790000e+02 2.367507e-25
6.800000e+02 2.746658e-25
6.810000e+02 3.185104e-25
6.820000e+02 3.691896e-25
6.830000e+02 4.277430e-25
6.840000e+02 4.953642e-25
6.850000e+02 5.734238e-25
6.860000e+02 6.634937e-25
6.870000e+02 7.673772e-25
6.880000e+02 8.871412e-25
6.890000e+02 1.025154e-24
6.900000e+02 1.184129e-24
6.910000e+02 1.367172e-24
6.920000e+02 1.577837e-24
6.930000e+02 1.820192e-24
6.940000e+02 2.098886e-24
6.950000e+02 2.419234e-24
6.960000e+02 2.787310e-24
6.970000e+02 3.210049e-24
6.980000e+02 3.695369e-24
6.990000e+02 4.252306e-24
7.000000e+02 4.891169e-24
7.010000e+02 5.623711e-24
7.020000e+02 6.463327e-24
7.030000e+02 7.425283e-24
7.040000e+02 8.526962e-24
7.050000e+02 9.788153e-24
7.060000e+02 1.123138e-23
7.070000e+02 1.288227e-23
7.080000e+02 1.476994e-23
7.090000e+02 1.692752e-23
7.100000e+02 1.939264e-23
7.110000e+02 2.220803e-23
7.120000e+02 2.542222e-23
7.130000e+02 2.909029e-23
7.140000e+02 3.327471e-23
7.150000e+02 3.804636e-23
7.160000e+02 4.348556e-23
7.170000e+02 4.968336e-23
7.180000e+02 5.674289e-23
7.190000e+02 6.478094e-23
7.200000e+02 7.392970e-23
7.210000e+02 8.433879e-23
7.220000e+02 9.617743e-23
7.230000e+02 1.096369e-22
7.240000e+02 1.249337e-22
7.250000e+02 1.423120e-22
7.260000e+02 1.620479e-22
7.270000e+02 1.844531e-22
7.280000e+02 2.098796e-22
7.290000e+02 2.387241e-22
7.300000e+02 2.714345e-22
7.310000e+02 3.085157e-22
7.320000e+02 3.505366e-22
7.330000e+02 3.981385e-22
7.340000e+02 4.520436e-22
7.350000e+02 5.130649e-22
7.360000e+02 5.821178e-22
7.370000e+02 6.602320e-22
7.380000e+02 7.485660e-22
7.390000e+02 8.484224e-22
7.400000e+02 9.612650e-22
7.410000e+02 1.088739e-21
7.420000e+02 1.232692e-21
7.430000e+02 1.395200e-21
7.440000e+02 1.578592e-21
7.450000e+02 1.785482e-21
7.460000e+02 2.018801e-21
7.470000e+02 2.281839e-21
7.480000e+02 2.578282e-21
7.490000e+02 2.912260e-21
7.500000e+02 3.288403e-21
7.510000e+02 3.711895e-21
7.520000e+02 4.188538e-21
7.530000e+02 4.724828e-21
7.540000e+02 5.328034e-21
7.550000e+02 6.006285e-21
7.560000e+02 6.768671e-21
7.570000e+02 7.625353e-21
7.580000e+02 8.587686e-21
7.590000e+02 9.668354e-21
7.600000e+02 1.088153e-20
7.610000e+02 1.224301e-20
7.620000e+02 1.377047e-20
7.630000e+02 1.548358e-20
7.640000e+02 1.740433e-20
7.650000e+02 1.955720e-20
7.660000e+02 2.196949e-20
7.670000e+02 2.467163e-20
7.680000e+02 2.769752e-20
7.690000e+02 3.108491e-20
7.700000e+02 3.487583e-20
7.710000e+02 3.911705e-20
7.720000e+02 4.386064e-20
7.730000e+02 4.916449e-20
7.740000e+02 5.509299e-20
7.750000e+02 6.171774e-20
7.760000e+02 6.911827e-20
7.770000e+02 7.738301e-20
7.780000e+02 8.661012e-20
7.790000e+02 9.690864e-20
7.800000e+02 1.083996e-19
7.810000e+02 1.212173e-19
7.820000e+02 1.355108e-19
7.830000e+02 1.514453e-19
7.840000e+02 1.692043e-19
7.850000e+02 1.889907e-19
7.860000e+02 2.110298e-19
7.870000e+02 2.355711e-19
7.880000e+02 2.628908e-19
7.890000e+02 2.932949e-19
7.900000e+02 3.271221e-19
7.910000e+02 3.647471e-19
7.920000e+02 4.065846e-19
7.930000e+02 4.530933e-19
7.940000e+02 5.047804e-19
7.950000e+02 5.622063e-19
7.960000e+02 6.259910e-19
7.970000e+02 6.968188e-19
7.980000e+02 7.754459e-19
7.990000e+02 8.627075e-19
8.000000e+02 9.595254e-19
8.010000e+02 1.066917e-18
8.020000e+02 1.186005e-18
8.030000e+02 1.318028e-18
8.040000e+02 1.464351e-18
8.050000e+02 1.626481e-18
8.060000e+02 1.806076e-18
8.070000e+02 2.004967e-18
8.080000e+02 2.225168e-18
8.090000e+02 2.468897e-18
8.100000e+02 2.738599e-18
8.110000e+02 3.036964e-18
8.120000e+02 3.366952e-18
8.130000e+02 3.731820e-18
8.140000e+02 4.135152e-18
8.150000e+02 4.580886e-18
8.160000e+02 5.073356e-18
8.170000e+02 5.617322e-18
8.180000e+02 6.218017e-18
8.190000e+02 6.881189e-18
8.200000e+02 7.613153e-18
8.210000e+02 8.420840e-18
8.220000e+02 9.311862e-18
8.230000e+02 1.029457e-17
8.240000e+02 1.137813e-17
8.250000e+02 1.257261e-17
8.260000e+02 1.388901e-17
8.270000e+02 1.533944e-17
8.280000e+02 1.693716e-17
8.290000e+02 1.869668e-17
8.300000e+02 2.063393e-17
8.310000e+02 2.276633e-17
8.320000e+02 2.511299e-17
8.330000e+02 2.769481e-17
8.340000e+02 3.053467e-17
8.350000e+02 3.365762e-17
8.360000e+02 3.709107e-17
8.370000e+02 4.086499e-17
8.380000e+02 4.501216e-17
8.390000e+02 4.956844e-17
8.400000e+02 5.457300e-17
8.410000e+02 6.006866e-17
8.420000e+02 6.610222e-17
8.430000e+02 7.272479e-17
8.440000e+02 7.999219e-17
8.450000e+02 8.796537e-17
8.460000e+02 9.671087e-17
8.470000e+02 1.063013e-16
8.480000e+02 1.168159e-16
8.490000e+02 1.283412e-16
8.500000e+02 1.409713e-16
8.510000e+02 1.548092e-16
8.520000e+02 1.699669e-16
8.530000e+02 1.865666e-16
8.540000e+02 2.047413e-16
8.550000e+02 2.246362e-16
8.560000e+02 2.464092e-16
8.570000e+02 2.702324e-16
8.580000e+02 2.962931e-16
8.590000e+02 3.247952e-16
8.600000e+02 3.559606e-16
8.610000e+02 3.900308e-16
8.620000e+02 4.272685e-16
8.630000e+02 4.679593e-16
8.640000e+02 5.124140e-16
8.650000e+02 5.609703e-16
8.660000e+02 6.139952e-16
8.670000e+02 6.718878e-16
8.680000e+02 7.350815e-16
8.690000e+02 8.040471e-16
8.700000e+02 8.792960e-16
8.710000e+02 9.613833e-16
8.720000e+02 1.050912e-15
8.730000e+02 1.148536e-15
8.740000e+02 1.254966e-15
8.750000e+02 1.370971e-15
8.760000e+02 1.497387e-15
8.770000e+02 1.635121e-15
8.780000e+02 1.785154e-15
8.790000e+02 1.948551e-15
8.800000e+02 2.126468e-15
8.810000e+02 2.320155e-15
8.820000e+02 2.530966e-15
8.830000e+02 2.760371e-15
8.840000e+02 3.009959e-15
8.850000e+02 3.281450e-15
8.860000e+02 3.576710e-15
8.870000e+02 3.897755e-15
8.880000e+02 4.246767e-15
8.890000e+02 4.626108e-15
8.900000e+02 5.038334e-15
8.910000e+02 5.486206e-15
8.920000e+02 5.972713e-15
8.930000e+02 6.501085e-15
8.940000e+02 7.074812e-15
8.950000e+02 7.697669e-15
8.960000e+02 8.373730e-15
8.970000e+02 9.107403e-15
8.980000e+02 9.903442e-15
8.990000e+02 1.076699e-14
9.000000e+02 1.170358e-14
9.010000e+02 1.271922e-14
9.020000e+02 1.382035e-14
9.030000e+02 1.501396e-14
9.040000e+02 1.630757e-14
9.050000e+02 1.770929e-14
9.060000e+02 1.922788e-14
9.070000e+02 2.087278e-14
9.080000e+02 2.265416e-14
9.090000e+02 2.458299e-14
9.100000e+02 2.667110e-14
9.110000e+02 2.893122e-14
9.120000e+02 3.137707e-14
9.130000e+02 3.402345e-14
9.140000e+02 3.742492e-14
9.150000e+02 1.347653e-11
9.160000e+02 1.261037e-10
9.170000e+02 3.039296e-11
9.180000e+02 1.798368e-11
9.190000e+02 4.356495e-10
9.200000e+02 1.600048e-09
9.210000e+02 6.460465e-14
9.220000e+02 2.362325e-09
9.230000e+02 7.105011e-12
9.240000e+02 9.315282e-11
9.250000e+02 1.400228e-09
9.260000e+02 2.825419e-11
9.270000e+02 9.374621e-11
9.280000e+02 1.527403e-08
9.290000e+02 1.398966e-08
9.300000e+02 2.000264e-09
9.310000e+02 2.036857e-11
9.320000e+02 1.026220e-08
9.330000e+02 2.540258e-08
9.340000e+02 1.006654e-08
9.350000e+02 1.819427e-11
9.360000e+02 5.321521e-10
9.370000e+02 4.426563e-12
9.380000e+02 5.970569e-12
9.390000e+02 1.228050e-09
9.400000e+02 3.125721e-08
9.410000e+02 2.752548e-10
9.420000e+02 6.036131e-08
9.430000e+02 5.725891e-09
9.440000e+02 6.940595e-08
9.450000e+02 6.810004e-08
9.460000e+02 4.406555e-08
9.470000e+02 2.151879e-11
9.480000e+02 6.639759e-09
9.490000e+02 8.048683e-10
9.500000e+02 4.175267e-12
9.510000e+02 6.563629e-09
9.520000e+02 3.578755e-08
9.530000e+02 5.868981e-10
9.540000e+02 2.731732e-11
9.550000e+02 8.970360e-09
9.560000e+02 2.099699e-08
9.570000e+02 1.749783e-09
9.580000e+02 8.125056e-12
9.590000e+02 1.985821e-07
9.600000e+02 3.038281e-11
9.610000e+02 1.419576e-07
9.620000e+02 7.536224e-08
9.630000e+02 3.108681e-09
9.640000e+02 2.805294e-10
9.650000e+02 8.833467e-11
9.660000e+02 1.369966e-08
9.670000e+02 1.038956e-09
9.680000e+02 6.690470e-10
9.690000e+02 4.749274e-08
9.700000e+02 4.365909e-08
9.710000e+02 1.200097e-09
9.720000e+02 1.051343e-10
9.730000e+02 1.348913e-10
9.740000e+02 1.011766e-08
9.750000e+02 1.962853e-08
9.760000e+02 1.763043e-07
9.770000e+02 2.448448e-07
9.780000e+02 2.093881e-07
9.790000e+02 4.805705e-07
9.800000e+02 5.544106e-07
9.810000e+02 2.029538e-07
9.820000e+02 2.755183e-08
9.830000e+02 7.103417e-07
9.840000e+02 1.017367e-08
9.850000e+02 7.844876e-08
9.860000e+02 8.201564e-08
9.870000e+02 8.957687e-07
9.880000e+02 3.229843e-10
9.890000e+02 7.750072e-07
9.900000e+02 4.278455e-07
9.910000e+02 2.423448e-08
9.920000e+02 5.515000e-11
9.930000e+02 8.240078e-07
9.940000e+02 2.449951e-11
9.950000e+02 2.644938e-08
9.960000e+02 1.817739e-09
9.970000e+02 5.597167e-10
9.980000e+02 1.401982e-06
9.990000e+02 3.447902e-08
1.000000e+03 1.831011e-06
1.001000e+03 1.657573e-06
1.002000e+03 2.137503e-06
1.003000e+03 3.672858e-08
1.004000e+03 5.558149e-10
1.005000e+03 2.655327e-07
1.006000e+03 2.531875e-06
1.007000e+03 2.661636e-06
1.008000e+03 2.504298e-06
1.009000e+03 3.125044e-08
1.010000e+03 2.549470e-06
1.011000e+03 2.988206e-06
1.012000e+03 2.901830e-06
1.013000e+03 2.885781e-06
1.014000e+03 2.432898e-10
1.015000e+03 1.183707e-09
1.016000e+03 1.881613e-07
1.017000e+03 1.723492e-10
1.018000e+03 5.168317e-08
1.019000e+03 1.187573e-09
1.020000e+03 1.782613e-06
1.021000e+03 2.732668e-08
1.022000e+03 1.085784e-07
1.023000e+03 4.486026e-09
1.024000e+03 4.694258e-08
1.025000e+03 1.625655e-10
1.026000e+03 1.632449e-10
1.027000e+03 2.041331e-08
1.028000e+03 1.513797e-09
1.029000e+03 4.130811e-10
1.030000e+03 8.816970e-07
1.031000e+03 2.984803e-06
1.032000e+03 5.943195e-06
1.033000e+03 3.086279e-08
1.034000e+03 4.338490e-06
1.035000e+03 6.966729e-10
1.036000e+03 1.291482e-09
1.037000e+03 3.120878e-05
1.038000e+03 3.987524e-05
1.039000e+03 3.641268e-05
1.040000e+03 4.746625e-05
1.041000e+03 4.651528e-05
1.042000e+03 5.554903e-05
1.043000e+03 3.041191e-05
1.044000e+03 6.853556e-05
1.045000e+03 1.286870e-09
1.046000e+03 4.377009e-05
1.047000e+03 2.357156e-05
1.048000e+03 1.075059e-07
1.049000e+03 2.534283e-05
1.050000e+03 2.858884e-06
1.051000e+03 7.359704e-07
1.052000e+03 9.832588e-05
1.053000e+03 1.117146e-04
1.054000e+03 2.379238e-09
1.055000e+03 8.651983e-05
1.056000e+03 1.221754e-04
1.057000e+03 5.228465e-05
1.058000e+03 1.132362e-06
1.059000e+03 3.504392e-07
1.060000e+03 1.087028e-07
1.061000e+03 1.229054e-04
1.062000e+03 4.655801e-07
1.063000e+03 5.776768e-08
1.064000e+03 1.906301e-09
1.065000e+03 4.045432e-09
1.066000e+03 9.361123e-06
1.067000e+03 8.204421e-07
1.068000e+03 2.219319e-04
1.069000e+03 1.133595e-07
1.070000e+03 2.764858e-05
1.071000e+03 2.225167e-04
1.072000e+03 2.574089e-04
1.073000e+03 1.408625e-08
1.074000e+03 1.157932e-04
1.075000e+03 7.693784e-05
1.076000e+03 9.305184e-05
1.077000e+03 1.152512e-07
1.078000e+03 1.556182e-06
1.079000e+03 1.885255e-05
1.080000e+03 7.617605e-05
1.081000e+03 3.387941e-04
1.082000e+03 2.610867e-04
1.083000e+03 1.813915e-04
1.084000e+03 3.742749e-04
1.085000e+03 2.437824e-05
1.086000e+03 4.744494e-04
1.087000e+03 2.166082e-06
1.088000e+03 5.139923e-04
1.089000e+03 5.281342e-04
1.090000e+03 2.063336e-05
1.091000e+03 4.559747e-05
1.092000e+03 4.360123e-04
1.093000e+03 5.720281e-04
1.094000e+03 3.215468e-04
1.095000e+03 6.807995e-04
1.096000e+03 1.033451e-05
1.097000e+03 6.836798e-04
1.098000e+03 6.641381e-04
1.099000e+03 7.288787e-05
1.100000e+03 2.743391e-07
1.101000e+03 9.904716e-07
1.102000e+03 7.001994e-05
1.103000e+03 9.225389e-04
1.104000e+03 9.710329e-04
1.105000e+03 1.004840e-03
1.106000e+03 3.538003e-04
1.107000e+03 8.455245e-07
1.108000e+03 1.049895e-03
1.109000e+03 2.628064e-05
1.110000e+03 1.119973e-03
1.111000e+03 1.126195e-03
1.112000e+03 9.738302e-04
1.113000e+03 9.704590e-04
1.114000e+03 4.807226e-04
1.115000e+03 2.056826e-05
1.116000e+03 4.080496e-06
1.117000e+03 1.555926e-03
1.118000e+03 4.909211e-05
1.119000e+03 1.102451e-03
1.120000e+03 1.002382e-05
1.121000e+03 1.728442e-03
1.122000e+03 1.739508e-03
1.123000e+03 2.524060e-03
1.124000e+03 3.024737e-03
1.125000e+03 2.571071e-03
1.126000e+03 2.562777e-03
1.127000e+03 2.390117e-03
1.128000e+03 1.985579e-03
1.129000e+03 1.861610e-03
1.130000e+03 2.140804e-03
1.131000e+03 1.748551e-03
1.132000e+03 1.530570e-05
1.133000e+03 4.452385e-04
1.134000e+03 1.754608e-03
1.135000e+03 6.316844e-04
1.136000e+03 6.345554e-04
1.137000e+03 1.459284e-03
1.138000e+03 1.532920e-03
1.139000e+03 1.795877e-03
1.140000e+03 1.747699e-03
1.141000e+03 1.579267e-03
1.142000e+03 1.758296e-03
1.143000e+03 1.352466e-03
1.144000e+03 1.663098e-03
1.145000e+03 7.841620e-06
1.146000e+03 1.825439e-03
1.147000e+03 1.837984e-03
1.148000e+03 1.553590e-04
1.149000e+03 1.787823e-03
1.150000e+03 1.766567e-03
1.151000e+03 1.783175e-03
1.152000e+03 1.740770e-03
1.153000e+03 1.711205e-03
1.154000e+03 1.649401e-03
1.155000e+03 1.627740e-03
1.156000e+03 1.177683e-03
1.157000e+03 1.560233e-03
1.158000e+03 1.427288e-03
1.159000e+03 1.587592e-03
1.160000e+03 1.475810e-03
1.161000e+03 1.454462e-03
1.162000e+03 4.505410e-04
1.163000e+03 9.761458e-04
1.164000e+03 2.313638e-06
1.165000e+03 7.920223e-04
1.166000e+03 3.884710e-04
1.167000e+03 2.420310e-04
1.168000e+03 1.644164e-03
1.169000e+03 1.666585e-03
1.170000e+03 2.555703e-04
1.171000e+03 7.036850e-04
1.172000e+03 5.538041e-04
1.173000e+03 4.611834e-04
1.174000e+03 6.044225e-05
1.175000e+03 2.455548e-06
1.176000e+03 6.940099e-07
1.177000e+03 2.154181e-03
1.178000e+03 2.021851e-03
1.179000e+03 1.913299e-03
1.180000e+03 1.729487e-03
1.181000e+03 1.709321e-03
1.182000e+03 1.647007e-03
1.183000e+03 1.541209e-03
1.184000e+03 1.483722e-03
1.185000e+03 1.424603e-03
1.186000e+03 3.284688e-04
1.187000e+03 1.336277e-03
1.188000e+03 1.262079e-03
1.189000e+03 1.266075e-03
1.190000e+03 1.224435e-03
1.191000e+03 1.149585e-03
1.192000e+03 1.025191e-03
1.193000e+03 1.010720e-03
1.194000e+03 9.752495e-04
1.195000e+03 9.262577e-04
1.196000e+03 1.851934e-02
1.197000e+03 1.753575e-02
1.198000e+03 2.711723e-03
1.199000e+03 1.500098e-02
1.200000e+03 6.820441e-03
1.201000e+03 1.190844e-02
1.202000e+03 9.879450e-03
1.203000e+03 8.717440e-03
1.204000e+03 4.705158e-03
1.205000e+03 5.614164e-03
1.206000e+03 4.245203e-03
1.207000e+03 4.081822e-04
1.208000e+03 1.829658e-03
1.209000e+03 1.301853e-03
1.210000e+03 4.476169e-06
1.211000e+03 4.129744e-04
1.212000e+03 1.908127e-04
1.213000e+03 7.383206e-05
1.214000e+03 1.944395e-05
1.215000e+03 3.135747e-06
1.216000e+03 2.766208e-06
1.217000e+03 1.189002e-05
1.218000e+03 6.004341e-05
1.219000e+03 1.844831e-04
1.220000e+03 4.394801e-04
1.221000e+03 9.194964e-04
1.222000e+03 1.766710e-03
1.223000e+03 2.933148e-03
1.224000e+03 4.355498e-03
1.225000e+03 2.471217e-03
1.226000e+03 9.823529e-03
1.227000e+03 1.351453e-02
1.228000e+03 1.520867e-02
1.229000e+03 2.240212e-02
1.230000e+03 8.495554e-03
1.231000e+03 1.583948e-02
1.232000e+03 3.795920e-02
1.233000e+03 4.405909e-02
1.234000e+03 3.893543e-02
1.235000e+03 5.596258e-02
1.236000e+03 5.038816e-02
1.237000e+03 6.798428e-02
1.238000e+03 7.409491e-02
1.239000e+03 7.719046e-02
1.240000e+03 8.554913e-03
1.241000e+03 8.271540e-02
1.242000e+03 9.759916e-02
1.243000e+03 1.038912e-01
1.244000e+03 1.103036e-01
1.245000e+03 1.133747e-01
1.246000e+03 1.194277e-01
1.247000e+03 1.247555e-01
1.248000e+03 6.488123e-02
1.249000e+03 1.358788e-01
1.250000e+03 1.272223e-01
1.251000e+03 1.516431e-01
1.252000e+03 1.473442e-01
1.253000e+03 1.603612e-01
1.254000e+03 1.592623e-01
1.255000e+03 2.913146e-02
1.256000e+03 1.511198e-01
1.257000e+03 1.128981e-01
1.258000e+03 1.579176e-01
1.259000e+03 1.743643e-01
1.260000e+03 1.890332e-01
1.261000e+03 4.277274e-03
1.262000e+03 1.967981e-01
1.263000e+03 1.585665e-01
1.264000e+03 1.907009e-01
1.265000e+03 9.676135e-02
1.266000e+03 2.348603e-01
1.267000e+03 2.487621e-01
