# wavelength_A flux
5.000000e+02 1.485574e-36
5.010000e+02 1.919282e-36
5.020000e+02 2.477030e-36
5.030000e+02 3.193556e-36
5.040000e+02 4.113121e-36
5.050000e+02 5.293174e-36
5.060000e+02 6.803376e-36
5.070000e+02 8.735600e-36
5.080000e+02 1.120540e-35
5.090000e+02 1.435913e-35
5.100000e+02 1.837913e-35
5.110000e+02 2.350931e-35
5.120000e+02 3.003689e-35
5.130000e+02 3.833979e-35
5.140000e+02 4.889030e-35
5.150000e+02 6.228415e-35
5.160000e+02 7.927143e-35
5.170000e+02 1.007959e-34
5.180000e+02 1.280437e-34
5.190000e+02 1.625044e-34
5.200000e+02 2.060468e-34
5.210000e+02 2.610135e-34
5.220000e+02 3.303377e-34
5.230000e+02 4.176913e-34
5.240000e+02 5.276616e-34
5.250000e+02 6.659796e-34
5.260000e+02 8.397969e-34
5.270000e+02 1.058029e-33
5.280000e+02 1.331782e-33
5.290000e+02 1.674878e-33
5.300000e+02 2.104505e-33
5.310000e+02 2.642016e-33
5.320000e+02 3.313920e-33
5.330000e+02 4.153093e-33
5.340000e+02 5.200279e-33
5.350000e+02 6.505924e-33
5.360000e+02 8.132439e-33
5.370000e+02 1.015660e-32
5.380000e+02 1.267480e-32
5.390000e+02 1.580353e-32
5.400000e+02 1.968813e-32
5.410000e+02 2.450725e-32
5.420000e+02 3.048082e-32
5.430000e+02 3.787932e-32
5.440000e+02 4.703526e-32
5.450000e+02 5.835696e-32
5.460000e+02 7.234546e-32
5.470000e+02 8.961518e-32
5.480000e+02 1.109188e-31
5.490000e+02 1.371780e-31
5.500000e+02 1.695199e-31
5.510000e+02 2.093227e-31
5.520000e+02 2.582693e-31
5.530000e+02 3.184140e-31
5.540000e+02 3.922620e-31
5.550000e+02 4.828663e-31
5.560000e+02 5.939444e-31
5.570000e+02 7.300203e-31
5.580000e+02 8.965942e-31
5.590000e+02 1.100350e-30
5.600000e+02 1.349400e-30
5.610000e+02 1.653591e-30
5.620000e+02 2.024858e-30
5.630000e+02 2.477659e-30
5.640000e+02 3.029499e-30
5.650000e+02 3.701555e-30
5.660000e+02 4.519427e-30
5.670000e+02 5.514040e-30
5.680000e+02 6.722729e-30
5.690000e+02 8.190531e-30
5.700000e+02 9.971738e-30
5.710000e+02 1.213175e-29
5.720000e+02 1.474932e-29
5.730000e+02 1.791916e-29
5.740000e+02 2.175515e-29
5.750000e+02 2.639411e-29
5.760000e+02 3.200029e-29
5.770000e+02 3.877076e-29
5.780000e+02 4.694180e-29
5.790000e+02 5.679653e-29
5.800000e+02 6.867396e-29
5.810000e+02 8.297972e-29
5.820000e+02 1.001989e-28
5.830000e+02 1.209113e-28
5.840000e+02 1.458091e-28
5.850000e+02 1.757188e-28
5.860000e+02 2.116260e-28
5.870000e+02 2.547054e-28
5.880000e+02 3.063568e-28
5.890000e+02 3.682461e-28
5.900000e+02 4.423558e-28
5.910000e+02 5.310428e-28
5.920000e+02 6.371080e-28
5.930000e+02 7.638775e-28
5.940000e+02 9.152987e-28
5.950000e+02 1.096054e-27
5.960000e+02 1.311692e-27
5.970000e+02 1.568790e-27
5.980000e+02 1.875131e-27
5.990000e+02 2.239925e-27
6.000000e+02 2.674066e-27
6.010000e+02 3.190427e-27
6.020000e+02 3.804211e-27
6.030000e+02 4.533369e-27
6.040000e+02 5.399075e-27
6.050000e+02 6.426297e-27
6.060000e+02 7.644457e-27
6.070000e+02 9.088208e-27
6.080000e+02 1.079833e-26
6.090000e+02 1.282282e-26
6.100000e+02 1.521808e-26
6.110000e+02 1.805040e-26
6.120000e+02 2.139763e-26
6.130000e+02 2.535116e-26
6.140000e+02 3.001818e-26
6.150000e+02 3.552438e-26
6.160000e+02 4.201703e-26
6.170000e+02 4.966863e-26
6.180000e+02 5.868109e-26
6.190000e+02 6.929065e-26
6.200000e+02 8.177349e-26
6.210000e+02 9.645241e-26
6.220000e+02 1.137045e-25
6.230000e+02 1.339698e-25
6.240000e+02 1.577620e-25
6.250000e+02 1.856800e-25
6.260000e+02 2.184219e-25
6.270000e+02 2.568011e-25
6.280000e+02 3.017644e-25
6.290000e+02 3.544141e-25
6.300000e+02 4.160319e-25
6.310000e+02 4.881083e-25
6.320000e+02 5.723752e-25
6.330000e+02 6.708438e-25
6.340000e+02 7.858490e-25
6.350000e+02 9.200998e-25
6.360000e+02 1.076738e-24
6.370000e+02 1.259405e-24
6.380000e+02 1.472320e-24
6.390000e+02 1.720368e-24
6.400000e+02 2.009202e-24
6.410000e+02 2.345365e-24
6.420000e+02 2.736420e-24
6.430000e+02 3.191108e-24
6.440000e+02 3.719526e-24
6.450000e+02 4.333333e-24
6.460000e+02 5.045986e-24
6.470000e+02 5.873006e-24
6.480000e+02 6.832288e-24
6.490000e+02 7.944458e-24
6.500000e+02 9.233274e-24
6.510000e+02 1.072609e-23
6.520000e+02 1.245439e-23
6.530000e+02 1.445438e-23
6.540000e+02 1.676771e-23
6.550000e+02 1.944223e-23
6.560000e+02 2.253291e-23
6.570000e+02 2.610289e-23
6.580000e+02 3.022460e-23
6.590000e+02 3.498118e-23
6.600000e+02 4.046792e-23
6.610000e+02 4.679408e-23
6.620000e+02 5.408483e-23
6.630000e+02 6.248350e-23
6.640000e+02 7.215417e-23
6.650000e+02 8.328459e-23
6.660000e+02 9.608949e-23
6.670000e+02 1.108143e-22
6.680000e+02 1.277397e-22
6.690000e+02 1.471859e-22
6.700000e+02 1.695189e-22
6.710000e+02 1.951562e-22
6.720000e+02 2.245741e-22
6.730000e+02 2.583158e-22
6.740000e+02 2.970005e-22
6.750000e+02 3.413335e-22
6.760000e+02 3.921184e-22
6.770000e+02 4.502698e-22
6.780000e+02 5.168285e-22
6.790000e+02 5.929787e-22
6.800000e+02 6.800667e-22
6.810000e+02 7.796225e-22
6.820000e+02 8.933848e-22
6.830000e+02 1.023328e-21
6.840000e+02 1.171694e-21
6.850000e+02 1.341026e-21
6.860000e+02 1.534209e-21
6.870000e+02 1.754515e-21
6.880000e+02 2.005653e-21
6.890000e+02 2.291823e-21
6.900000e+02 2.617786e-21
6.910000e+02 2.988927e-21
6.920000e+02 3.411345e-21
6.930000e+02 3.891936e-21
6.940000e+02 4.438500e-21
6.950000e+02 5.059855e-21
6.960000e+02 5.765964e-21
6.970000e+02 6.568081e-21
6.980000e+02 7.478914e-21
6.990000e+02 8.512806e-21
7.000000e+02 9.685942e-21
7.010000e+02 1.101657e-20
7.020000e+02 1.252528e-20
7.030000e+02 1.423527e-20
7.040000e+02 1.617266e-20
7.050000e+02 1.836689e-20
7.060000e+02 2.085110e-20
7.070000e+02 2.366257e-20
7.080000e+02 2.684328e-20
7.090000e+02 3.044040e-20
7.100000e+02 3.450697e-20
7.110000e+02 3.910263e-20
7.120000e+02 4.429434e-20
7.130000e+02 5.015732e-20
7.140000e+02 5.677603e-20
7.150000e+02 6.424522e-20
7.160000e+02 7.267122e-20
7.170000e+02 8.217327e-20
7.180000e+02 9.288505e-20
7.190000e+02 1.049564e-19
7.200000e+02 1.185551e-19
7.210000e+02 1.338692e-19
7.220000e+02 1.511092e-19
7.230000e+02 1.705106e-19
7.240000e+02 1.923369e-19
7.250000e+02 2.168831e-19
7.260000e+02 2.444786e-19
7.270000e+02 2.754918e-19
7.280000e+02 3.103344e-19
7.290000e+02 3.494663e-19
7.300000e+02 3.934008e-19
7.310000e+02 4.427110e-19
7.320000e+02 4.980367e-19
7.330000e+02 5.600912e-19
7.340000e+02 6.296702e-19
7.350000e+02 7.076608e-19
7.360000e+02 7.950515e-19
7.370000e+02 8.929440e-19
7.380000e+02 1.002565e-18
7.390000e+02 1.125280e-18
7.400000e+02 1.262610e-18
7.410000e+02 1.416247e-18
7.420000e+02 1.588073e-18
7.430000e+02 1.780181e-18
7.440000e+02 1.994897e-18
7.450000e+02 2.234808e-18
7.460000e+02 2.502785e-18
7.470000e+02 2.802022e-18
7.480000e+02 3.136061e-18
7.490000e+02 3.508835e-18
7.500000e+02 3.924709e-18
7.510000e+02 4.388524e-18
7.520000e+02 4.905652e-18
7.530000e+02 5.482045e-18
7.540000e+02 6.124303e-18
7.550000e+02 6.839739e-18
7.560000e+02 7.636451e-18
7.570000e+02 8.523411e-18
7.580000e+02 9.510550e-18
7.590000e+02 1.060886e-17
7.600000e+02 1.183049e-17
7.610000e+02 1.318891e-17
7.620000e+02 1.469899e-17
7.630000e+02 1.637717e-17
7.640000e+02 1.824163e-17
7.650000e+02 2.031245e-17
7.660000e+02 2.261181e-17
7.670000e+02 2.516420e-17
7.680000e+02 2.799666e-17
7.690000e+02 3.113905e-17
7.700000e+02 3.462427e-17
7.710000e+02 3.848867e-17
7.720000e+02 4.277228e-17
7.730000e+02 4.751926e-17
7.740000e+02 5.277828e-17
7.750000e+02 5.860295e-17
7.760000e+02 6.505235e-17
7.770000e+02 7.219152e-17
7.780000e+02 8.009207e-17
7.790000e+02 8.883283e-17
7.800000e+02 9.850052e-17
7.810000e+02 1.091906e-16
7.820000e+02 1.210079e-16
7.830000e+02 1.340679e-16
7.840000e+02 1.484973e-16
7.850000e+02 1.644357e-16
7.860000e+02 1.820359e-16
7.870000e+02 2.014664e-16
7.880000e+02 2.229116e-16
7.890000e+02 2.465744e-16
7.900000e+02 2.726772e-16
7.910000e+02 3.014642e-16
7.920000e+02 3.332031e-16
7.930000e+02 3.681877e-16
7.940000e+02 4.067400e-16
7.950000e+02 4.492129e-16
7.960000e+02 4.959932e-16
7.970000e+02 5.475047e-16
7.980000e+02 6.042116e-16
7.990000e+02 6.666221e-16
8.000000e+02 7.352926e-16
8.010000e+02 8.108322e-16
8.020000e+02 8.939074e-16
8.030000e+02 9.852471e-16
8.040000e+02 1.085649e-15
8.050000e+02 1.195984e-15
8.060000e+02 1.317207e-15
8.070000e+02 1.450358e-15
8.080000e+02 1.596575e-15
8.090000e+02 1.757104e-15
8.100000e+02 1.933300e-15
8.110000e+02 2.126647e-15
8.120000e+02 2.338764e-15
8.130000e+02 2.571416e-15
8.140000e+02 2.826533e-15
8.150000e+02 3.106215e-15
8.160000e+02 3.412757e-15
8.170000e+02 3.748658e-15
8.180000e+02 4.116645e-15
8.190000e+02 4.519688e-15
8.200000e+02 4.961024e-15
8.210000e+02 5.444178e-15
8.220000e+02 5.972993e-15
8.230000e+02 6.551648e-15
8.240000e+02 7.184697e-15
8.250000e+02 7.877095e-15
8.260000e+02 8.634232e-15
8.270000e+02 9.461976e-15
8.280000e+02 1.036670e-14
8.290000e+02 1.135536e-14
8.300000e+02 1.243547e-14
8.310000e+02 1.361526e-14
8.320000e+02 1.490361e-14
8.330000e+02 1.631022e-14
8.340000e+02 1.784559e-14
8.350000e+02 1.952115e-14
8.360000e+02 2.134930e-14
8.370000e+02 2.334349e-14
8.380000e+02 2.551833e-14
8.390000e+02 2.788968e-14
8.400000e+02 3.047472e-14
8.410000e+02 3.329211e-14
8.420000e+02 3.636208e-14
8.430000e+02 3.970654e-14
8.440000e+02 4.334928e-14
8.450000e+02 4.731604e-14
8.460000e+02 5.163474e-14
8.470000e+02 5.633560e-14
8.480000e+02 6.145138e-14
8.490000e+02 6.701753e-14
8.500000e+02 7.307243e-14
8.510000e+02 7.965763e-14
8.520000e+02 8.681811e-14
8.530000e+02 9.460249e-14
8.540000e+02 1.030634e-13
8.550000e+02 1.122578e-13
8.560000e+02 1.222472e-13
8.570000e+02 1.330980e-13
8.580000e+02 1.448824e-13
8.590000e+02 1.576779e-13
8.600000e+02 1.715684e-13
8.610000e+02 1.866449e-13
8.620000e+02 2.030051e-13
8.630000e+02 2.207548e-13
8.640000e+02 2.400084e-13
8.650000e+02 2.608889e-13
8.660000e+02 2.835296e-13
8.670000e+02 3.080739e-13
8.680000e+02 3.346766e-13
8.690000e+02 3.635048e-13
8.700000e+02 3.947386e-13
8.710000e+02 4.285722e-13
8.720000e+02 4.652149e-13
8.730000e+02 5.048923e-13
8.740000e+02 5.478475e-13
8.750000e+02 5.943424e-13
8.760000e+02 6.446592e-13
8.770000e+02 6.991016e-13
8.780000e+02 7.579970e-13
8.790000e+02 8.216973e-13
8.800000e+02 8.905817e-13
8.810000e+02 9.650582e-13
8.820000e+02 1.045566e-12
8.830000e+02 1.132577e-12
8.840000e+02 1.226599e-12
8.850000e+02 1.328179e-12
8.860000e+02 1.437903e-12
8.870000e+02 1.556404e-12
8.880000e+02 1.684359e-12
8.890000e+02 1.822498e-12
8.900000e+02 1.971605e-12
8.910000e+02 2.132521e-12
8.920000e+02 2.306150e-12
8.930000e+02 2.493463e-12
8.940000e+02 2.695503e-12
8.950000e+02 2.913387e-12
8.960000e+02 3.148319e-12
8.970000e+02 3.401585e-12
8.980000e+02 3.674569e-12
8.990000e+02 3.968754e-12
9.000000e+02 4.285732e-12
9.010000e+02 4.627208e-12
9.020000e+02 4.995013e-12
9.030000e+02 5.391107e-12
9.040000e+02 5.817592e-12
9.050000e+02 6.276722e-12
9.060000e+02 6.770910e-12
9.070000e+02 7.302742e-12
9.080000e+02 7.874988e-12
9.090000e+02 8.490614e-12
9.100000e+02 9.152798e-12
9.110000e+02 9.864940e-12
9.120000e+02 1.063068e-11
9.130000e+02 1.145391e-11
9.140000e+02 1.248424e-11
9.150000e+02 3.129964e-09
9.160000e+02 2.231015e-08
9.170000e+02 1.504287e-09
9.180000e+02 4.083636e-09
9.190000e+02 6.524223e-08
9.200000e+02 1.923586e-07
9.210000e+02 2.067623e-11
9.220000e+02 1.780100e-07
9.230000e+02 9.893415e-10
9.240000e+02 2.626791e-09
9.250000e+02 3.982686e-08
9.260000e+02 6.159764e-09
9.270000e+02 2.510757e-09
9.280000e+02 1.277686e-06
9.290000e+02 1.220754e-06
9.300000e+02 2.480901e-07
9.310000e+02 2.171715e-09
9.320000e+02 9.632195e-07
9.330000e+02 3.799058e-07
9.340000e+02 8.861161e-08
9.350000e+02 2.261661e-09
9.360000e+02 1.008881e-08
9.370000e+02 6.167027e-10
9.380000e+02 1.392267e-09
9.390000e+02 3.217121e-08
9.400000e+02 2.098758e-06
9.410000e+02 1.090952e-07
9.420000e+02 4.442285e-06
9.430000e+02 5.947959e-08
9.440000e+02 5.076612e-06
9.450000e+02 4.920959e-06
9.460000e+02 1.182416e-06
9.470000e+02 7.987921e-10
9.480000e+02 1.417300e-06
9.490000e+02 1.268120e-07
9.500000e+02 1.664840e-09
9.510000e+02 4.966602e-07
9.520000e+02 1.722876e-06
9.530000e+02 1.125019e-08
9.540000e+02 8.847811e-10
9.550000e+02 1.396411e-07
9.560000e+02 7.368206e-06
9.570000e+02 5.328889e-08
9.580000e+02 3.824994e-10
9.590000e+02 6.142556e-06
9.600000e+02 4.896719e-09
9.610000e+02 2.251692e-06
9.620000e+02 7.253226e-07
9.630000e+02 6.533082e-08
9.640000e+02 1.396148e-08
9.650000e+02 3.047717e-09
9.660000e+02 1.602821e-07
9.670000e+02 2.113620e-08
9.680000e+02 1.427179e-08
9.690000e+02 1.001315e-06
9.700000e+02 1.445619e-06
9.710000e+02 3.308142e-08
9.720000e+02 7.999603e-09
9.730000e+02 2.592991e-08
9.740000e+02 7.215897e-07
9.750000e+02 3.493401e-07
9.760000e+02 1.005119e-05
9.770000e+02 7.591058e-06
9.780000e+02 3.448562e-06
9.790000e+02 3.108935e-05
9.800000e+02 3.252689e-05
9.810000e+02 2.031589e-06
9.820000e+02 2.825145e-07
9.830000e+02 3.608715e-05
9.840000e+02 8.370000e-07
9.850000e+02 7.704479e-07
9.860000e+02 1.145620e-06
9.870000e+02 4.119985e-05
9.880000e+02 1.081935e-08
9.890000e+02 1.312145e-05
9.900000e+02 2.471904e-05
9.910000e+02 3.054995e-07
9.920000e+02 3.101084e-09
9.930000e+02 6.149332e-05
9.940000e+02 4.360800e-09
9.950000e+02 2.386478e-06
9.960000e+02 5.403490e-08
9.970000e+02 7.741002e-07
9.980000e+02 4.158150e-05
9.990000e+02 4.895887e-07
1.000000e+03 1.119991e-04
1.001000e+03 9.772659e-05
1.002000e+03 1.074500e-04
1.003000e+03 4.980284e-07
1.004000e+03 1.736043e-08
1.005000e+03 2.446614e-06
1.006000e+03 1.052266e-04
1.007000e+03 1.380209e-04
1.008000e+03 7.536196e-05
1.009000e+03 6.819521e-07
1.010000e+03 7.415666e-05
1.011000e+03 8.560303e-05
1.012000e+03 9.861824e-05
1.013000e+03 9.708662e-05
1.014000e+03 1.193257e-08
1.015000e+03 3.659807e-08
1.016000e+03 2.862063e-06
1.017000e+03 1.223088e-08
1.018000e+03 7.448107e-07
1.019000e+03 3.243622e-08
1.020000e+03 9.346191e-05
1.021000e+03 1.517401e-06
1.022000e+03 2.399385e-06
1.023000e+03 1.046992e-07
1.024000e+03 5.828012e-06
1.025000e+03 1.891661e-08
1.026000e+03 2.812943e-08
1.027000e+03 2.305127e-06
1.028000e+03 1.747467e-07
1.029000e+03 2.566594e-08
1.030000e+03 1.166610e-05
1.031000e+03 3.499967e-05
1.032000e+03 2.686755e-04
1.033000e+03 2.200977e-06
1.034000e+03 4.150817e-05
1.035000e+03 1.022418e-07
1.036000e+03 4.601316e-08
1.037000e+03 4.706733e-04
1.038000e+03 1.543142e-03
1.039000e+03 5.785010e-04
1.040000e+03 4.558623e-04
1.041000e+03 1.806768e-03
1.042000e+03 1.578348e-03
1.043000e+03 1.210893e-03
1.044000e+03 3.038016e-03
1.045000e+03 1.228103e-07
1.046000e+03 4.549839e-04
1.047000e+03 1.579544e-04
1.048000e+03 1.555309e-06
1.049000e+03 1.462374e-04
1.050000e+03 2.453907e-05
1.051000e+03 1.116213e-05
1.052000e+03 2.312619e-03
1.053000e+03 3.380629e-03
1.054000e+03 1.087319e-07
1.055000e+03 3.533882e-03
1.056000e+03 4.083657e-03
1.057000e+03 5.143270e-04
1.058000e+03 1.152921e-05
1.059000e+03 8.255709e-06
1.060000e+03 2.202345e-06
1.061000e+03 1.269567e-03
1.062000e+03 5.810351e-06
1.063000e+03 8.993853e-05
1.064000e+03 2.742745e-07
1.065000e+03 1.944136e-07
1.066000e+03 1.530891e-03
1.067000e+03 9.538620e-06
1.068000e+03 8.129555e-03
1.069000e+03 1.855153e-06
1.070000e+03 1.624301e-04
1.071000e+03 4.301438e-03
1.072000e+03 9.415971e-03
1.073000e+03 3.962778e-07
1.074000e+03 6.601306e-04
1.075000e+03 3.377255e-04
1.076000e+03 8.465202e-03
1.077000e+03 5.018897e-06
1.078000e+03 1.718290e-05
1.079000e+03 1.079384e-04
1.080000e+03 5.975181e-04
1.081000e+03 4.842452e-03
1.082000e+03 2.406607e-03
1.083000e+03 1.118490e-03
1.084000e+03 1.767875e-02
1.085000e+03 1.679342e-04
1.086000e+03 1.624063e-02
1.087000e+03 2.557226e-05
1.088000e+03 2.066852e-02
1.089000e+03 2.171489e-02
1.090000e+03 1.306435e-04
1.091000e+03 2.298225e-04
1.092000e+03 2.233334e-02
1.093000e+03 2.497819e-02
1.094000e+03 2.419776e-03
1.095000e+03 2.843415e-02
1.096000e+03 7.312926e-04
1.097000e+03 1.675940e-02
1.098000e+03 2.849657e-02
1.099000e+03 5.235933e-04
1.100000e+03 5.043432e-06
1.101000e+03 1.711495e-05
1.102000e+03 3.852687e-04
1.103000e+03 3.636892e-02
1.104000e+03 3.825252e-02
1.105000e+03 3.957124e-02
1.106000e+03 2.599908e-03
1.107000e+03 1.176260e-05
1.108000e+03 2.185398e-02
1.109000e+03 1.948662e-04
1.110000e+03 4.862471e-02
1.111000e+03 3.886369e-02
1.112000e+03 1.016094e-02
1.113000e+03 3.472746e-02
1.114000e+03 4.686754e-03
1.115000e+03 2.077594e-04
1.116000e+03 5.882712e-05
1.117000e+03 5.113029e-02
1.118000e+03 3.475100e-04
1.119000e+03 1.038308e-02
1.120000e+03 1.065433e-04
1.121000e+03 4.446997e-02
1.122000e+03 8.400413e-02
1.123000e+03 8.110431e-02
1.124000e+03 9.761658e-02
1.125000e+03 5.947474e-02
1.126000e+03 1.125398e-01
1.127000e+03 6.234922e-02
1.128000e+03 6.764620e-02
1.129000e+03 2.951494e-02
1.130000e+03 8.070186e-02
1.131000e+03 6.725946e-02
1.132000e+03 1.913728e-04
1.133000e+03 2.650619e-03
1.134000e+03 3.850222e-02
1.135000e+03 5.729263e-02
1.136000e+03 5.287699e-03
1.137000e+03 5.733616e-02
1.138000e+03 2.829474e-02
1.139000e+03 7.218543e-02
1.140000e+03 6.785269e-02
1.141000e+03 6.977791e-02
1.142000e+03 7.157528e-02
1.143000e+03 2.988354e-02
1.144000e+03 7.026044e-02
1.145000e+03 1.078844e-04
1.146000e+03 7.515523e-02
1.147000e+03 7.456957e-02
1.148000e+03 1.147866e-03
1.149000e+03 6.447279e-02
1.150000e+03 5.872853e-02
1.151000e+03 7.303051e-02
1.152000e+03 6.368433e-02
1.153000e+03 7.057976e-02
1.154000e+03 7.108980e-02
1.155000e+03 6.041868e-02
1.156000e+03 5.402460e-02
1.157000e+03 6.529370e-02
1.158000e+03 3.312973e-02
1.159000e+03 6.735792e-02
1.160000e+03 4.137640e-02
1.161000e+03 6.216362e-02
1.162000e+03 5.175240e-03
1.163000e+03 1.943005e-02
1.164000e+03 1.600906e-04
1.165000e+03 3.521234e-02
1.166000e+03 1.915890e-02
1.167000e+03 1.314924e-02
1.168000e+03 7.098871e-02
1.169000e+03 7.279709e-02
1.170000e+03 1.283434e-02
1.171000e+03 3.419461e-02
1.172000e+03 2.554571e-02
1.173000e+03 2.407971e-02
1.174000e+03 7.391870e-04
1.175000e+03 1.304019e-04
1.176000e+03 4.975498e-05
1.177000e+03 9.273361e-02
1.178000e+03 8.798993e-02
1.179000e+03 8.327928e-02
1.180000e+03 6.878785e-02
1.181000e+03 7.634852e-02
1.182000e+03 7.378812e-02
1.183000e+03 6.282853e-02
1.184000e+03 5.884922e-02
1.185000e+03 5.945353e-02
1.186000e+03 4.137239e-03
1.187000e+03 6.144663e-02
1.188000e+03 4.941413e-02
1.189000e+03 6.005576e-02
1.190000e+03 5.848689e-02
1.191000e+03 5.451294e-02
1.192000e+03 5.024005e-02
1.193000e+03 4.869606e-02
1.194000e+03 4.834192e-02
1.195000e+03 4.623052e-02
1.196000e+03 6.417860e-01
1.197000e+03 6.471590e-01
1.198000e+03 1.727524e-02
1.199000e+03 5.568194e-01
1.200000e+03 6.881708e-02
1.201000e+03 4.468220e-01
1.202000e+03 2.982658e-01
1.203000e+03 3.325757e-01
1.204000e+03 6.770444e-02
1.205000e+03 2.237164e-01
1.206000e+03 1.773069e-01
1.207000e+03 2.497976e-02
1.208000e+03 8.625700e-02
1.209000e+03 6.441879e-02
1.210000e+03 2.626665e-04
1.211000e+03 2.363431e-02
1.212000e+03 1.153883e-02
1.213000e+03 4.922337e-03
1.214000e+03 1.398373e-03
1.215000e+03 2.463279e-04
1.216000e+03 2.182119e-04
1.217000e+03 8.725947e-04
1.218000e+03 4.040699e-03
1.219000e+03 1.138777e-02
1.220000e+03 2.067754e-02
1.221000e+03 4.929047e-02
1.222000e+03 8.481885e-02
1.223000e+03 1.243655e-01
1.224000e+03 1.836320e-01
1.225000e+03 2.755174e-02
1.226000e+03 3.866658e-01
1.227000e+03 5.191967e-01
1.228000e+03 2.638989e-01
1.229000e+03 7.921368e-01
1.230000e+03 7.215772e-01
1.231000e+03 1.570196e-01
1.232000e+03 1.331915e+00
1.233000e+03 1.537778e+00
1.234000e+03 1.423917e+00
1.235000e+03 1.891516e+00
1.236000e+03 6.117755e-01
1.237000e+03 2.317061e+00
1.238000e+03 2.500917e+00
1.239000e+03 2.178154e+00
1.240000e+03 5.365493e-01
1.241000e+03 2.413722e+00
1.242000e+03 3.193084e+00
1.243000e+03 3.488588e+00
1.244000e+03 3.704198e+00
1.245000e+03 3.852583e+00
1.246000e+03 3.677620e+00
1.247000e+03 4.052620e+00
1.248000e+03 3.349075e+00
1.249000e+03 4.643134e+00
1.250000e+03 3.712703e+00
1.251000e+03 5.017914e+00
1.252000e+03 4.862820e+00
1.253000e+03 5.299908e+00
1.254000e+03 5.180294e+00
1.255000e+03 1.430999e+00
1.256000e+03 4.562164e+00
1.257000e+03 3.460419e+00
1.258000e+03 4.582299e+00
1.259000e+03 5.185029e+00
1.260000e+03 6.133145e+00
1.261000e+03 1.425033e-01
1.262000e+03 6.384402e+00
1.263000e+03 6.077487e+00
1.264000e+03 5.253724e+00
1.265000e+03 3.585241e+00
1.266000e+03 7.529464e+00
1.267000e+03 7.270004e+00
