# wavelength_A flux
5.000000e+02 6.157598e-32
5.010000e+02 7.788223e-32
5.020000e+02 9.841251e-32
5.030000e+02 1.242366e-31
5.040000e+02 1.566891e-31
5.050000e+02 1.974999e-31
5.060000e+02 2.486209e-31
5.070000e+02 3.126825e-31
5.080000e+02 3.928912e-31
5.090000e+02 4.932208e-31
5.100000e+02 6.184350e-31
5.110000e+02 7.751674e-31
5.120000e+02 9.704721e-31
5.130000e+02 1.213909e-30
5.140000e+02 1.517054e-30
5.150000e+02 1.894227e-30
5.160000e+02 2.363094e-30
5.170000e+02 2.945444e-30
5.180000e+02 3.668116e-30
5.190000e+02 4.564158e-30
5.200000e+02 5.674202e-30
5.210000e+02 7.048199e-30
5.220000e+02 8.747459e-30
5.230000e+02 1.084729e-29
5.240000e+02 1.343986e-29
5.250000e+02 1.663820e-29
5.260000e+02 2.058058e-29
5.270000e+02 2.543610e-29
5.280000e+02 3.141140e-29
5.290000e+02 3.875877e-29
5.300000e+02 4.778602e-29
5.310000e+02 5.886828e-29
5.320000e+02 7.246257e-29
5.330000e+02 8.912508e-29
5.340000e+02 1.095322e-28
5.350000e+02 1.345060e-28
5.360000e+02 1.650445e-28
5.370000e+02 2.023450e-28
5.380000e+02 2.479172e-28
5.390000e+02 3.034985e-28
5.400000e+02 3.712561e-28
5.410000e+02 4.537950e-28
5.420000e+02 5.542643e-28
5.430000e+02 6.764673e-28
5.440000e+02 8.249949e-28
5.450000e+02 1.005384e-27
5.460000e+02 1.224309e-27
5.470000e+02 1.489807e-27
5.480000e+02 1.811552e-27
5.490000e+02 2.201177e-27
5.500000e+02 2.672663e-27
5.510000e+02 3.242802e-27
5.520000e+02 3.931745e-27
5.530000e+02 4.763658e-27
5.540000e+02 5.767503e-27
5.550000e+02 6.977965e-27
5.560000e+02 8.436554e-27
5.570000e+02 1.019292e-26
5.580000e+02 1.230638e-26
5.590000e+02 1.484782e-26
5.600000e+02 1.790181e-26
5.610000e+02 2.156923e-26
5.620000e+02 2.597032e-26
5.630000e+02 3.124833e-26
5.640000e+02 3.757375e-26
5.650000e+02 4.514941e-26
5.660000e+02 5.421644e-26
5.670000e+02 6.506131e-26
5.680000e+02 7.802415e-26
5.690000e+02 9.350853e-26
5.700000e+02 1.119930e-25
5.710000e+02 1.340447e-25
5.720000e+02 1.603351e-25
5.730000e+02 1.916591e-25
5.740000e+02 2.289569e-25
5.750000e+02 2.733398e-25
5.760000e+02 3.261206e-25
5.770000e+02 3.888494e-25
5.780000e+02 4.633548e-25
5.790000e+02 5.517934e-25
5.800000e+02 6.567063e-25
5.810000e+02 7.810867e-25
5.820000e+02 9.284575e-25
5.830000e+02 1.102963e-24
5.840000e+02 1.309475e-24
5.850000e+02 1.553719e-24
5.860000e+02 1.842417e-24
5.870000e+02 2.183458e-24
5.880000e+02 2.586095e-24
5.890000e+02 3.061177e-24
5.900000e+02 3.621411e-24
5.910000e+02 4.281677e-24
5.920000e+02 5.059390e-24
5.930000e+02 5.974915e-24
5.940000e+02 7.052059e-24
5.950000e+02 8.318634e-24
5.960000e+02 9.807115e-24
5.970000e+02 1.155540e-23
5.980000e+02 1.360768e-23
5.990000e+02 1.601550e-23
6.000000e+02 1.883886e-23
6.010000e+02 2.214768e-23
6.020000e+02 2.602331e-23
6.030000e+02 3.056035e-23
6.040000e+02 3.586883e-23
6.050000e+02 4.207655e-23
6.060000e+02 4.933195e-23
6.070000e+02 5.780734e-23
6.080000e+02 6.770259e-23
6.090000e+02 7.924947e-23
6.100000e+02 9.271658e-23
6.110000e+02 1.084150e-22
6.120000e+02 1.267050e-22
6.130000e+02 1.480033e-22
6.140000e+02 1.727919e-22
6.150000e+02 2.016280e-22
6.160000e+02 2.351555e-22
6.170000e+02 2.741177e-22
6.180000e+02 3.193727e-22
6.190000e+02 3.719106e-22
6.200000e+02 4.328727e-22
6.210000e+02 5.035748e-22
6.220000e+02 5.855322e-22
6.230000e+02 6.804901e-22
6.240000e+02 7.904567e-22
6.250000e+02 9.177418e-22
6.260000e+02 1.065002e-21
6.270000e+02 1.235289e-21
6.280000e+02 1.432108e-21
6.290000e+02 1.659486e-21
6.300000e+02 1.922041e-21
6.310000e+02 2.225072e-21
6.320000e+02 2.574655e-21
6.330000e+02 2.977749e-21
6.340000e+02 3.442331e-21
6.350000e+02 3.977529e-21
6.360000e+02 4.593793e-21
6.370000e+02 5.303073e-21
6.380000e+02 6.119037e-21
6.390000e+02 7.057301e-21
6.400000e+02 8.135707e-21
6.410000e+02 9.374627e-21
6.420000e+02 1.079731e-20
6.430000e+02 1.243029e-20
6.440000e+02 1.430380e-20
6.450000e+02 1.645233e-20
6.460000e+02 1.891516e-20
6.470000e+02 2.173703e-20
6.480000e+02 2.496887e-20
6.490000e+02 2.866862e-20
6.500000e+02 3.290220e-20
6.510000e+02 3.774455e-20
6.520000e+02 4.328082e-20
6.530000e+02 4.960775e-20
6.540000e+02 5.683519e-20
6.550000e+02 6.508781e-20
6.560000e+02 7.450706e-20
6.570000e+02 8.525335e-20
6.580000e+02 9.750854e-20
6.590000e+02 1.114787e-19
6.600000e+02 1.273971e-19
6.610000e+02 1.455282e-19
6.620000e+02 1.661710e-19
6.630000e+02 1.896639e-19
6.640000e+02 2.163894e-19
6.650000e+02 2.467802e-19
6.660000e+02 2.813249e-19
6.670000e+02 3.205758e-19
6.680000e+02 3.651560e-19
6.690000e+02 4.157692e-19
6.700000e+02 4.732091e-19
6.710000e+02 5.383708e-19
6.720000e+02 6.122634e-19
6.730000e+02 6.960242e-19
6.740000e+02 7.909342e-19
6.750000e+02 8.984359e-19
6.760000e+02 1.020153e-18
6.770000e+02 1.157913e-18
6.780000e+02 1.313770e-18
6.790000e+02 1.490035e-18
6.800000e+02 1.689306e-18
6.810000e+02 1.914499e-18
6.820000e+02 2.168893e-18
6.830000e+02 2.456165e-18
6.840000e+02 2.780446e-18
6.850000e+02 3.146369e-18
6.860000e+02 3.559127e-18
6.870000e+02 4.024546e-18
6.880000e+02 4.549154e-18
6.890000e+02 5.140262e-18
6.900000e+02 5.806061e-18
6.910000e+02 6.555717e-18
6.920000e+02 7.399492e-18
6.930000e+02 8.348863e-18
6.940000e+02 9.416665e-18
6.950000e+02 1.061725e-17
6.960000e+02 1.196665e-17
6.970000e+02 1.348279e-17
6.980000e+02 1.518567e-17
6.990000e+02 1.709762e-17
7.000000e+02 1.924359e-17
7.010000e+02 2.165138e-17
7.020000e+02 2.435200e-17
7.030000e+02 2.738004e-17
7.040000e+02 3.077405e-17
7.050000e+02 3.457696e-17
7.060000e+02 3.883660e-17
7.070000e+02 4.360623e-17
7.080000e+02 4.894513e-17
7.090000e+02 5.491924e-17
7.100000e+02 6.160195e-17
7.110000e+02 6.907482e-17
7.120000e+02 7.742854e-17
7.130000e+02 8.676389e-17
7.140000e+02 9.719284e-17
7.150000e+02 1.088397e-16
7.160000e+02 1.218425e-16
7.170000e+02 1.363545e-16
7.180000e+02 1.525456e-16
7.190000e+02 1.706044e-16
7.200000e+02 1.907399e-16
7.210000e+02 2.131839e-16
7.220000e+02 2.381931e-16
7.230000e+02 2.660519e-16
7.240000e+02 2.970756e-16
7.250000e+02 3.316127e-16
7.260000e+02 3.700493e-16
7.270000e+02 4.128126e-16
7.280000e+02 4.603750e-16
7.290000e+02 5.132589e-16
7.300000e+02 5.720418e-16
7.310000e+02 6.373620e-16
7.320000e+02 7.099245e-16
7.330000e+02 7.905082e-16
7.340000e+02 8.799729e-16
7.350000e+02 9.792679e-16
7.360000e+02 1.089441e-15
7.370000e+02 1.211646e-15
7.380000e+02 1.347160e-15
7.390000e+02 1.497386e-15
7.400000e+02 1.663874e-15
7.410000e+02 1.848330e-15
7.420000e+02 2.052634e-15
7.430000e+02 2.278857e-15
7.440000e+02 2.529278e-15
7.450000e+02 2.806407e-15
7.460000e+02 3.113005e-15
7.470000e+02 3.452108e-15
7.480000e+02 3.827059e-15
7.490000e+02 4.241528e-15
7.500000e+02 4.699554e-15
7.510000e+02 5.205573e-15
7.520000e+02 5.764457e-15
7.530000e+02 6.381559e-15
7.540000e+02 7.062756e-15
7.550000e+02 7.814500e-15
7.560000e+02 8.643867e-15
7.570000e+02 9.558626e-15
7.580000e+02 1.056729e-14
7.590000e+02 1.167921e-14
7.600000e+02 1.290462e-14
7.610000e+02 1.425474e-14
7.620000e+02 1.574186e-14
7.630000e+02 1.737946e-14
7.640000e+02 1.918227e-14
7.650000e+02 2.116646e-14
7.660000e+02 2.334969e-14
7.670000e+02 2.575129e-14
7.680000e+02 2.839243e-14
7.690000e+02 3.129623e-14
7.700000e+02 3.448801e-14
7.710000e+02 3.799541e-14
7.720000e+02 4.184866e-14
7.730000e+02 4.608077e-14
7.740000e+02 5.072782e-14
7.750000e+02 5.582920e-14
7.760000e+02 6.142790e-14
7.770000e+02 6.757087e-14
7.780000e+02 7.430933e-14
7.790000e+02 8.169917e-14
7.800000e+02 8.980134e-14
7.810000e+02 9.868229e-14
7.820000e+02 1.084145e-13
7.830000e+02 1.190769e-13
7.840000e+02 1.307556e-13
7.850000e+02 1.435443e-13
7.860000e+02 1.575452e-13
7.870000e+02 1.728693e-13
7.880000e+02 1.896378e-13
7.890000e+02 2.079824e-13
7.900000e+02 2.280464e-13
7.910000e+02 2.499857e-13
7.920000e+02 2.739699e-13
7.930000e+02 3.001836e-13
7.940000e+02 3.288270e-13
7.950000e+02 3.601182e-13
7.960000e+02 3.942939e-13
7.970000e+02 4.316112e-13
7.980000e+02 4.723497e-13
7.990000e+02 5.168126e-13
8.000000e+02 5.653291e-13
8.010000e+02 6.182570e-13
8.020000e+02 6.759840e-13
8.030000e+02 7.389309e-13
8.040000e+02 8.075542e-13
8.050000e+02 8.823490e-13
8.060000e+02 9.638518e-13
8.070000e+02 1.052645e-12
8.080000e+02 1.149358e-12
8.090000e+02 1.254674e-12
8.100000e+02 1.369334e-12
8.110000e+02 1.494138e-12
8.120000e+02 1.629955e-12
8.130000e+02 1.777723e-12
8.140000e+02 1.938460e-12
8.150000e+02 2.113265e-12
8.160000e+02 2.303329e-12
8.170000e+02 2.509939e-12
8.180000e+02 2.734487e-12
8.190000e+02 2.978478e-12
8.200000e+02 3.243540e-12
8.210000e+02 3.531431e-12
8.220000e+02 3.844050e-12
8.230000e+02 4.183450e-12
8.240000e+02 4.551849e-12
8.250000e+02 4.951639e-12
8.260000e+02 5.385406e-12
8.270000e+02 5.855939e-12
8.280000e+02 6.366248e-12
8.290000e+02 6.919583e-12
8.300000e+02 7.519446e-12
8.310000e+02 8.169619e-12
8.320000e+02 8.874175e-12
8.330000e+02 9.637508e-12
8.340000e+02 1.046436e-11
8.350000e+02 1.135982e-11
8.360000e+02 1.232940e-11
8.370000e+02 1.337903e-11
8.380000e+02 1.451507e-11
8.390000e+02 1.574441e-11
8.400000e+02 1.707444e-11
8.410000e+02 1.851313e-11
8.420000e+02 2.006904e-11
8.430000e+02 2.175139e-11
8.440000e+02 2.357012e-11
8.450000e+02 2.553588e-11
8.460000e+02 2.766015e-11
8.470000e+02 2.995527e-11
8.480000e+02 3.243452e-11
8.490000e+02 3.511213e-11
8.500000e+02 3.800344e-11
8.510000e+02 4.112490e-11
8.520000e+02 4.449418e-11
8.530000e+02 4.813029e-11
8.540000e+02 5.205361e-11
8.550000e+02 5.628604e-11
8.560000e+02 6.085107e-11
8.570000e+02 6.577393e-11
8.580000e+02 7.108167e-11
8.590000e+02 7.680332e-11
8.600000e+02 8.297003e-11
8.610000e+02 8.961520e-11
8.620000e+02 9.677464e-11
8.630000e+02 1.044867e-10
8.640000e+02 1.127926e-10
8.650000e+02 1.217365e-10
8.660000e+02 1.313654e-10
8.670000e+02 1.417302e-10
8.680000e+02 1.528850e-10
8.690000e+02 1.648878e-10
8.700000e+02 1.778010e-10
8.710000e+02 1.916909e-10
8.720000e+02 2.066289e-10
8.730000e+02 2.226913e-10
8.740000e+02 2.399596e-10
8.750000e+02 2.585211e-10
8.760000e+02 2.784692e-10
8.770000e+02 2.999038e-10
8.780000e+02 3.229316e-10
8.790000e+02 3.476668e-10
8.800000e+02 3.742314e-10
8.810000e+02 4.027558e-10
8.820000e+02 4.333794e-10
8.830000e+02 4.662511e-10
8.840000e+02 5.015300e-10
8.850000e+02 5.393858e-10
8.860000e+02 5.800000e-10
8.870000e+02 6.235664e-10
8.880000e+02 6.702915e-10
8.890000e+02 7.203963e-10
8.900000e+02 7.741160e-10
8.910000e+02 8.317022e-10
8.920000e+02 8.934227e-10
8.930000e+02 9.595637e-10
8.940000e+02 1.030430e-09
8.950000e+02 1.106347e-09
8.960000e+02 1.187661e-09
8.970000e+02 1.274742e-09
8.980000e+02 1.367984e-09
8.990000e+02 1.467807e-09
9.000000e+02 1.574657e-09
9.010000e+02 1.689012e-09
9.020000e+02 1.811379e-09
9.030000e+02 1.942298e-09
9.040000e+02 2.082345e-09
9.050000e+02 2.232134e-09
9.060000e+02 2.392315e-09
9.070000e+02 2.563584e-09
9.080000e+02 2.746679e-09
9.090000e+02 2.942386e-09
9.100000e+02 3.151543e-09
9.110000e+02 3.375038e-09
9.120000e+02 3.613817e-09
9.130000e+02 3.868887e-09
9.140000e+02 4.157187e-09
9.150000e+02 9.988116e-07
9.160000e+02 7.886236e-06
9.170000e+02 9.697644e-07
9.180000e+02 1.292650e-06
9.190000e+02 2.392554e-05
9.200000e+02 7.444797e-05
9.210000e+02 6.639524e-09
9.220000e+02 7.721357e-05
9.230000e+02 4.081152e-07
9.240000e+02 2.546629e-06
9.250000e+02 2.529545e-05
9.260000e+02 1.854738e-06
9.270000e+02 1.978092e-06
9.280000e+02 4.785138e-04
9.290000e+02 4.527973e-04
9.300000e+02 8.711769e-05
9.310000e+02 8.644811e-07
9.320000e+02 3.474471e-04
9.330000e+02 2.142203e-04
9.340000e+02 6.145140e-05
9.350000e+02 6.231735e-07
9.360000e+02 6.388292e-06
9.370000e+02 2.035263e-07
9.380000e+02 3.794286e-07
9.390000e+02 1.647555e-05
9.400000e+02 7.630151e-04
9.410000e+02 3.548551e-05
9.420000e+02 1.451079e-03
9.430000e+02 3.251119e-05
9.440000e+02 1.607393e-03
9.450000e+02 1.587470e-03
9.460000e+02 5.974708e-04
9.470000e+02 6.539194e-07
9.480000e+02 4.605744e-04
9.490000e+02 3.538767e-05
9.500000e+02 4.046530e-07
9.510000e+02 1.660790e-04
9.520000e+02 6.312622e-04
9.530000e+02 5.387737e-06
9.540000e+02 7.136236e-07
9.550000e+02 8.936645e-05
9.560000e+02 2.317121e-03
9.570000e+02 2.367166e-05
9.580000e+02 2.319139e-07
9.590000e+02 2.808097e-03
9.600000e+02 1.100503e-06
9.610000e+02 1.006103e-03
9.620000e+02 3.365484e-04
9.630000e+02 4.875334e-05
9.640000e+02 1.982291e-06
9.650000e+02 2.138549e-06
9.660000e+02 9.035110e-05
9.670000e+02 1.238426e-05
9.680000e+02 7.752329e-06
9.690000e+02 5.540589e-04
9.700000e+02 4.751587e-04
9.710000e+02 1.527133e-05
9.720000e+02 3.488853e-06
9.730000e+02 5.728545e-06
9.740000e+02 2.184866e-04
9.750000e+02 1.531689e-04
9.760000e+02 2.793619e-03
9.770000e+02 2.599558e-03
9.780000e+02 1.222827e-03
9.790000e+02 7.496906e-03
9.800000e+02 8.186307e-03
9.810000e+02 9.239623e-04
9.820000e+02 1.199236e-04
9.830000e+02 9.198936e-03
9.840000e+02 1.767653e-04
9.850000e+02 3.642048e-04
9.860000e+02 5.269087e-04
9.870000e+02 1.131404e-02
9.880000e+02 5.985610e-06
9.890000e+02 4.470267e-03
9.900000e+02 1.406778e-03
9.910000e+02 1.002360e-04
9.920000e+02 1.315997e-06
9.930000e+02 1.350085e-02
9.940000e+02 8.890638e-07
9.950000e+02 5.713785e-04
9.960000e+02 2.483279e-05
9.970000e+02 1.557364e-04
9.980000e+02 1.074160e-02
9.990000e+02 1.664029e-04
1.000000e+03 2.171403e-02
1.001000e+03 1.989828e-02
1.002000e+03 2.331264e-02
1.003000e+03 2.063434e-04
1.004000e+03 9.682029e-06
1.005000e+03 8.574091e-04
1.006000e+03 2.348822e-02
1.007000e+03 2.759281e-02
1.008000e+03 1.872220e-02
1.009000e+03 2.951294e-04
1.010000e+03 1.952825e-02
1.011000e+03 2.418670e-02
1.012000e+03 2.289182e-02
1.013000e+03 2.146457e-02
1.014000e+03 4.160218e-06
1.015000e+03 1.649559e-05
1.016000e+03 8.574016e-04
1.017000e+03 3.483146e-06
1.018000e+03 2.991110e-04
1.019000e+03 1.487695e-05
1.020000e+03 1.954346e-02
1.021000e+03 3.831582e-04
1.022000e+03 6.616032e-04
1.023000e+03 3.841892e-05
1.024000e+03 1.024465e-03
1.025000e+03 4.081572e-06
1.026000e+03 4.971108e-06
1.027000e+03 4.123499e-04
1.028000e+03 2.860068e-05
1.029000e+03 7.411465e-06
1.030000e+03 4.117958e-03
1.031000e+03 7.793678e-03
1.032000e+03 4.680234e-02
1.033000e+03 3.577322e-04
1.034000e+03 1.274429e-02
1.035000e+03 1.654774e-05
1.036000e+03 1.502037e-05
1.037000e+03 9.994698e-02
1.038000e+03 2.123737e-01
1.039000e+03 1.154191e-01
1.040000e+03 1.271130e-01
1.041000e+03 2.647831e-01
1.042000e+03 2.409005e-01
1.043000e+03 1.763083e-01
1.044000e+03 3.463449e-01
1.045000e+03 1.967147e-05
1.046000e+03 1.403736e-01
1.047000e+03 3.573471e-02
1.048000e+03 4.360378e-04
1.049000e+03 4.184194e-02
1.050000e+03 8.735687e-03
1.051000e+03 3.845006e-03
1.052000e+03 3.335594e-01
1.053000e+03 4.413256e-01
1.054000e+03 2.750754e-05
1.055000e+03 4.452393e-01
1.056000e+03 4.940428e-01
1.057000e+03 1.046282e-01
1.058000e+03 4.226652e-03
1.059000e+03 1.376450e-03
1.060000e+03 6.304979e-04
1.061000e+03 2.009993e-01
1.062000e+03 1.966319e-03
1.063000e+03 1.350905e-02
1.064000e+03 3.916025e-05
1.065000e+03 4.702806e-05
1.066000e+03 2.232607e-01
1.067000e+03 2.173575e-03
1.068000e+03 8.187433e-01
1.069000e+03 4.724001e-04
1.070000e+03 5.606127e-02
1.071000e+03 6.767305e-01
1.072000e+03 8.858453e-01
1.073000e+03 1.127124e-04
1.074000e+03 1.171339e-01
1.075000e+03 6.030095e-02
1.076000e+03 8.586002e-01
1.077000e+03 9.252131e-04
1.078000e+03 5.174160e-03
1.079000e+03 3.257979e-02
1.080000e+03 1.336065e-01
1.081000e+03 6.213511e-01
1.082000e+03 3.953397e-01
1.083000e+03 2.053455e-01
1.084000e+03 1.423333e+00
1.085000e+03 3.700852e-02
1.086000e+03 1.475561e+00
1.087000e+03 5.527377e-03
1.088000e+03 1.641894e+00
1.089000e+03 1.696637e+00
1.090000e+03 2.738988e-02
1.091000e+03 4.193068e-02
1.092000e+03 1.748545e+00
1.093000e+03 1.872393e+00
1.094000e+03 5.239609e-01
1.095000e+03 2.067416e+00
1.096000e+03 8.628970e-02
1.097000e+03 1.468967e+00
1.098000e+03 2.128079e+00
1.099000e+03 1.246946e-01
1.100000e+03 1.379848e-03
1.101000e+03 4.232441e-03
1.102000e+03 6.883595e-02
1.103000e+03 2.541434e+00
1.104000e+03 2.758065e+00
1.105000e+03 2.770219e+00
1.106000e+03 4.416530e-01
1.107000e+03 2.401352e-03
1.108000e+03 2.036425e+00
1.109000e+03 3.366709e-02
1.110000e+03 3.143714e+00
1.111000e+03 2.835481e+00
1.112000e+03 1.283787e+00
1.113000e+03 2.552911e+00
1.114000e+03 7.401084e-01
1.115000e+03 4.098648e-02
1.116000e+03 1.629701e-02
1.117000e+03 3.487113e+00
1.118000e+03 5.706930e-02
1.119000e+03 1.567260e+00
1.120000e+03 2.265263e-02
1.121000e+03 3.468572e+00
1.122000e+03 3.767255e+00
1.123000e+03 5.051337e+00
1.124000e+03 5.746352e+00
1.125000e+03 4.253668e+00
1.126000e+03 6.074551e+00
1.127000e+03 4.686692e+00
1.128000e+03 3.853890e+00
1.129000e+03 2.958782e+00
1.130000e+03 5.001599e+00
1.131000e+03 4.387540e+00
1.132000e+03 4.028368e-02
1.133000e+03 3.256617e-01
1.134000e+03 3.126925e+00
1.135000e+03 2.117182e+00
1.136000e+03 7.211580e-01
1.137000e+03 4.102869e+00
1.138000e+03 2.650859e+00
1.139000e+03 4.777061e+00
1.140000e+03 4.605005e+00
1.141000e+03 4.642181e+00
1.142000e+03 4.769729e+00
1.143000e+03 3.075846e+00
1.144000e+03 4.721064e+00
1.145000e+03 1.929188e-02
1.146000e+03 5.013882e+00
1.147000e+03 4.984664e+00
1.148000e+03 1.680264e-01
1.149000e+03 4.616321e+00
1.150000e+03 4.341939e+00
1.151000e+03 4.998872e+00
1.152000e+03 4.722338e+00
1.153000e+03 4.832892e+00
1.154000e+03 4.883774e+00
1.155000e+03 4.357243e+00
1.156000e+03 3.943729e+00
1.157000e+03 4.566440e+00
1.158000e+03 3.161400e+00
1.159000e+03 4.749215e+00
1.160000e+03 3.383607e+00
1.161000e+03 4.455786e+00
1.162000e+03 6.718550e-01
1.163000e+03 1.897260e+00
1.164000e+03 1.386619e-02
1.165000e+03 2.816296e+00
1.166000e+03 1.614911e+00
1.167000e+03 1.122825e+00
1.168000e+03 5.027809e+00
1.169000e+03 5.104528e+00
1.170000e+03 1.127558e+00
1.171000e+03 2.670349e+00
1.172000e+03 2.042951e+00
1.173000e+03 1.941752e+00
1.174000e+03 1.188607e-01
1.175000e+03 1.096916e-02
1.176000e+03 4.506469e-03
1.177000e+03 6.284275e+00
1.178000e+03 6.025197e+00
1.179000e+03 5.761838e+00
1.180000e+03 4.900888e+00
1.181000e+03 5.364410e+00
1.182000e+03 5.200005e+00
1.183000e+03 4.642775e+00
1.184000e+03 4.390305e+00
1.185000e+03 4.447024e+00
1.186000e+03 5.921597e-01
1.187000e+03 4.443940e+00
1.188000e+03 3.686180e+00
1.189000e+03 4.339472e+00
1.190000e+03 4.244225e+00
1.191000e+03 3.974579e+00
1.192000e+03 3.691664e+00
1.193000e+03 3.483173e+00
1.194000e+03 3.549489e+00
1.195000e+03 3.407326e+00
1.196000e+03 2.857545e+01
1.197000e+03 2.865102e+01
1.198000e+03 2.394232e+00
1.199000e+03 2.608469e+01
1.200000e+03 6.880610e+00
1.201000e+03 2.246383e+01
1.202000e+03 1.714224e+01
1.203000e+03 1.817123e+01
1.204000e+03 5.731307e+00
1.205000e+03 1.335882e+01
1.206000e+03 1.106536e+01
1.207000e+03 1.848493e+00
1.208000e+03 5.901512e+00
1.209000e+03 4.497042e+00
1.210000e+03 2.056956e-02
1.211000e+03 1.725716e+00
1.212000e+03 8.550014e-01
1.213000e+03 3.653198e-01
1.214000e+03 1.042593e-01
1.215000e+03 1.956579e-02
1.216000e+03 1.727653e-02
1.217000e+03 6.500251e-02
1.218000e+03 2.951764e-01
1.219000e+03 8.218153e-01
1.220000e+03 1.541110e+00
1.221000e+03 3.416651e+00
1.222000e+03 5.709466e+00
1.223000e+03 8.315110e+00
1.224000e+03 1.142707e+01
1.225000e+03 2.899990e+00
1.226000e+03 2.153556e+01
1.227000e+03 2.732846e+01
1.228000e+03 1.835221e+01
1.229000e+03 3.802266e+01
1.230000e+03 3.547995e+01
1.231000e+03 1.384000e+01
1.232000e+03 5.605353e+01
1.233000e+03 6.236259e+01
1.234000e+03 5.311266e+01
1.235000e+03 7.272079e+01
1.236000e+03 3.768766e+01
1.237000e+03 8.398162e+01
1.238000e+03 8.870127e+01
1.239000e+03 8.592623e+01
1.240000e+03 2.962876e+01
1.241000e+03 8.994614e+01
1.242000e+03 1.066863e+02
1.243000e+03 1.132168e+02
1.244000e+03 1.184030e+02
1.245000e+03 1.222263e+02
1.246000e+03 1.216176e+02
1.247000e+03 1.296411e+02
1.248000e+03 1.089207e+02
1.249000e+03 1.412366e+02
1.250000e+03 1.157381e+02
1.251000e+03 1.501825e+02
1.252000e+03 1.475676e+02
1.253000e+03 1.574509e+02
1.254000e+03 1.565090e+02
1.255000e+03 6.618220e+01
1.256000e+03 1.456251e+02
1.257000e+03 1.235108e+02
1.258000e+03 1.527046e+02
1.259000e+03 1.588588e+02
1.260000e+03 1.809118e+02
1.261000e+03 8.360779e+00
1.262000e+03 1.882520e+02
1.263000e+03 1.842736e+02
1.264000e+03 1.730402e+02
1.265000e+03 1.664056e+01
1.266000e+03 2.140639e+02
1.267000e+03 2.127483e+02
