# wavelength_A flux
5.000000e+02 5.101189e-36
5.010000e+02 6.574243e-36
5.020000e+02 8.463940e-36
5.030000e+02 1.088565e-35
5.040000e+02 1.398602e-35
5.050000e+02 1.795564e-35
5.060000e+02 2.302288e-35
5.070000e+02 2.949052e-35
5.080000e+02 3.773777e-35
5.090000e+02 4.824359e-35
5.100000e+02 6.160140e-35
5.110000e+02 7.861211e-35
5.120000e+02 1.002027e-34
5.130000e+02 1.276008e-34
5.140000e+02 1.623340e-34
5.150000e+02 2.063249e-34
5.160000e+02 2.619882e-34
5.170000e+02 3.323554e-34
5.180000e+02 4.212276e-34
5.190000e+02 5.333672e-34
5.200000e+02 6.747356e-34
5.210000e+02 8.527879e-34
5.220000e+02 1.076838e-33
5.230000e+02 1.358518e-33
5.240000e+02 1.712329e-33
5.250000e+02 2.156344e-33
5.260000e+02 2.713068e-33
5.270000e+02 3.410490e-33
5.280000e+02 4.283403e-33
5.290000e+02 5.375008e-33
5.300000e+02 6.738909e-33
5.310000e+02 8.441556e-33
5.320000e+02 1.056526e-32
5.330000e+02 1.321187e-32
5.340000e+02 1.650735e-32
5.350000e+02 2.060731e-32
5.360000e+02 2.570385e-32
5.370000e+02 3.203249e-32
5.380000e+02 3.988958e-32
5.390000e+02 4.963039e-32
5.400000e+02 6.169885e-32
5.410000e+02 7.663896e-32
5.420000e+02 9.511902e-32
5.430000e+02 1.179593e-31
5.440000e+02 1.461659e-31
5.450000e+02 1.809718e-31
5.460000e+02 2.238870e-31
5.470000e+02 2.767588e-31
5.480000e+02 3.418463e-31
5.490000e+02 4.219092e-31
5.500000e+02 5.203165e-31
5.510000e+02 6.411780e-31
5.520000e+02 7.895031e-31
5.530000e+02 9.713933e-31
5.540000e+02 1.194275e-30
5.550000e+02 1.467179e-30
5.560000e+02 1.801082e-30
5.570000e+02 2.209312e-30
5.580000e+02 2.708043e-30
5.590000e+02 3.316889e-30
5.600000e+02 4.059615e-30
5.610000e+02 4.964997e-30
5.620000e+02 6.067854e-30
5.630000e+02 7.410286e-30
5.640000e+02 9.043158e-30
5.650000e+02 1.102789e-29
5.660000e+02 1.343858e-29
5.670000e+02 1.636458e-29
5.680000e+02 1.991352e-29
5.690000e+02 2.421504e-29
5.700000e+02 2.942507e-29
5.710000e+02 3.573113e-29
5.720000e+02 4.335853e-29
5.730000e+02 5.257780e-29
5.740000e+02 6.371357e-29
5.750000e+02 7.715511e-29
5.760000e+02 9.336891e-29
5.770000e+02 1.129136e-28
5.780000e+02 1.364577e-28
5.790000e+02 1.648007e-28
5.800000e+02 1.988984e-28
5.810000e+02 2.398920e-28
5.820000e+02 2.891440e-28
5.830000e+02 3.482796e-28
5.840000e+02 4.192360e-28
5.850000e+02 5.043218e-28
5.860000e+02 6.062846e-28
5.870000e+02 7.283944e-28
5.880000e+02 8.745392e-28
5.890000e+02 1.049340e-27
5.900000e+02 1.258283e-27
5.910000e+02 1.507882e-27
5.920000e+02 1.805863e-27
5.930000e+02 2.161385e-27
5.940000e+02 2.585296e-27
5.950000e+02 3.090444e-27
5.960000e+02 3.692030e-27
5.970000e+02 4.408032e-27
5.980000e+02 5.259697e-27
5.990000e+02 6.272122e-27
6.000000e+02 7.474934e-27
6.010000e+02 8.903088e-27
6.020000e+02 1.059780e-26
6.030000e+02 1.260764e-26
6.040000e+02 1.498981e-26
6.050000e+02 1.781165e-26
6.060000e+02 2.115237e-26
6.070000e+02 2.510509e-26
6.080000e+02 2.977928e-26
6.090000e+02 3.530345e-26
6.100000e+02 4.182846e-26
6.110000e+02 4.953130e-26
6.120000e+02 5.861947e-26
6.130000e+02 6.933612e-26
6.140000e+02 8.196604e-26
6.150000e+02 9.684255e-26
6.160000e+02 1.143556e-25
6.170000e+02 1.349613e-25
6.180000e+02 1.591924e-25
6.190000e+02 1.876714e-25
6.200000e+02 2.211249e-25
6.210000e+02 2.604007e-25
6.220000e+02 3.064874e-25
6.230000e+02 3.605374e-25
6.240000e+02 4.238931e-25
6.250000e+02 4.981176e-25
6.260000e+02 5.850297e-25
6.270000e+02 6.867453e-25
6.280000e+02 8.057238e-25
6.290000e+02 9.448232e-25
6.300000e+02 1.107363e-24
6.310000e+02 1.297195e-24
6.320000e+02 1.518790e-24
6.330000e+02 1.777331e-24
6.340000e+02 2.078826e-24
6.350000e+02 2.430236e-24
6.360000e+02 2.839617e-24
6.370000e+02 3.316299e-24
6.380000e+02 3.871068e-24
6.390000e+02 4.516400e-24
6.400000e+02 5.266711e-24
6.410000e+02 6.138652e-24
6.420000e+02 7.151448e-24
6.430000e+02 8.327284e-24
6.440000e+02 9.691750e-24
6.450000e+02 1.127435e-23
6.460000e+02 1.310908e-23
6.470000e+02 1.523510e-23
6.480000e+02 1.769749e-23
6.490000e+02 2.054814e-23
6.500000e+02 2.384672e-23
6.510000e+02 2.766183e-23
6.520000e+02 3.207232e-23
6.530000e+02 3.716875e-23
6.540000e+02 4.305510e-23
6.550000e+02 4.985070e-23
6.560000e+02 5.769243e-23
6.570000e+02 6.673722e-23
6.580000e+02 7.716497e-23
6.590000e+02 8.918174e-23
6.600000e+02 1.030235e-22
6.610000e+02 1.189602e-22
6.620000e+02 1.373011e-22
6.630000e+02 1.583992e-22
6.640000e+02 1.826587e-22
6.650000e+02 2.105409e-22
6.660000e+02 2.425731e-22
6.670000e+02 2.793569e-22
6.680000e+02 3.215790e-22
6.690000e+02 3.700227e-22
6.700000e+02 4.255810e-22
6.710000e+02 4.892719e-22
6.720000e+02 5.622549e-22
6.730000e+02 6.458503e-22
6.740000e+02 7.415615e-22
6.750000e+02 8.510986e-22
6.760000e+02 9.764066e-22
6.770000e+02 1.119697e-21
6.780000e+02 1.283484e-21
6.790000e+02 1.470621e-21
6.800000e+02 1.684351e-21
6.810000e+02 1.928354e-21
6.820000e+02 2.206805e-21
6.830000e+02 2.524439e-21
6.840000e+02 2.886625e-21
6.850000e+02 3.299448e-21
6.860000e+02 3.769800e-21
6.870000e+02 4.305486e-21
6.880000e+02 4.915342e-21
6.890000e+02 5.609366e-21
6.900000e+02 6.398865e-21
6.910000e+02 7.296625e-21
6.920000e+02 8.317097e-21
6.930000e+02 9.476608e-21
6.940000e+02 1.079360e-20
6.950000e+02 1.228888e-20
6.960000e+02 1.398596e-20
6.970000e+02 1.591132e-20
6.980000e+02 1.809487e-20
6.990000e+02 2.057028e-20
7.000000e+02 2.337554e-20
7.010000e+02 2.655340e-20
7.020000e+02 3.015202e-20
7.030000e+02 3.422563e-20
7.040000e+02 3.883521e-20
7.050000e+02 4.404937e-20
7.060000e+02 4.994529e-20
7.070000e+02 5.660968e-20
7.080000e+02 6.413998e-20
7.090000e+02 7.264564e-20
7.100000e+02 8.224959e-20
7.110000e+02 9.308976e-20
7.120000e+02 1.053209e-19
7.130000e+02 1.191168e-19
7.140000e+02 1.346719e-19
7.150000e+02 1.522046e-19
7.160000e+02 1.719594e-19
7.170000e+02 1.942102e-19
7.180000e+02 2.192636e-19
7.190000e+02 2.474631e-19
7.200000e+02 2.791927e-19
7.210000e+02 3.148823e-19
7.220000e+02 3.550124e-19
7.230000e+02 4.001202e-19
7.240000e+02 4.508062e-19
7.250000e+02 5.077409e-19
7.260000e+02 5.716735e-19
7.270000e+02 6.434402e-19
7.280000e+02 7.239742e-19
7.290000e+02 8.143167e-19
7.300000e+02 9.156293e-19
7.310000e+02 1.029207e-18
7.320000e+02 1.156492e-18
7.330000e+02 1.299094e-18
7.340000e+02 1.458803e-18
7.350000e+02 1.637615e-18
7.360000e+02 1.837751e-18
7.370000e+02 2.061681e-18
7.380000e+02 2.312155e-18
7.390000e+02 2.592231e-18
7.400000e+02 2.905309e-18
7.410000e+02 3.255167e-18
7.420000e+02 3.646004e-18
7.430000e+02 4.082485e-18
7.440000e+02 4.569788e-18
7.450000e+02 5.113663e-18
7.460000e+02 5.720492e-18
7.470000e+02 6.397354e-18
7.480000e+02 7.152101e-18
7.490000e+02 7.993438e-18
7.500000e+02 8.931019e-18
7.510000e+02 9.975535e-18
7.520000e+02 1.113884e-17
7.530000e+02 1.243404e-17
7.540000e+02 1.387569e-17
7.550000e+02 1.547984e-17
7.560000e+02 1.726430e-17
7.570000e+02 1.924875e-17
7.580000e+02 2.145495e-17
7.590000e+02 2.390698e-17
7.600000e+02 2.663142e-17
7.610000e+02 2.965767e-17
7.620000e+02 3.301820e-17
7.630000e+02 3.674885e-17
7.640000e+02 4.088921e-17
7.650000e+02 4.548296e-17
7.660000e+02 5.057831e-17
7.670000e+02 5.622843e-17
7.680000e+02 6.249195e-17
7.690000e+02 6.943354e-17
7.700000e+02 7.712445e-17
7.710000e+02 8.564318e-17
7.720000e+02 9.507623e-17
7.730000e+02 1.055189e-16
7.740000e+02 1.170760e-16
7.750000e+02 1.298629e-16
7.760000e+02 1.440068e-16
7.770000e+02 1.596473e-16
7.780000e+02 1.769382e-16
7.790000e+02 1.960484e-16
7.800000e+02 2.171637e-16
7.810000e+02 2.404883e-16
7.820000e+02 2.662463e-16
7.830000e+02 2.946842e-16
7.840000e+02 3.260726e-16
7.850000e+02 3.607083e-16
7.860000e+02 3.989173e-16
7.870000e+02 4.410573e-16
7.880000e+02 4.875205e-16
7.890000e+02 5.387373e-16
7.900000e+02 5.951795e-16
7.910000e+02 6.573640e-16
7.920000e+02 7.258576e-16
7.930000e+02 8.012811e-16
7.940000e+02 8.843146e-16
7.950000e+02 9.757028e-16
7.960000e+02 1.076261e-15
7.970000e+02 1.186881e-15
7.980000e+02 1.308540e-15
7.990000e+02 1.442305e-15
8.000000e+02 1.589346e-15
8.010000e+02 1.750939e-15
8.020000e+02 1.928481e-15
8.030000e+02 2.123497e-15
8.040000e+02 2.337657e-15
8.050000e+02 2.572781e-15
8.060000e+02 2.830858e-15
8.070000e+02 3.114062e-15
8.080000e+02 3.424763e-15
8.090000e+02 3.765550e-15
8.100000e+02 4.139246e-15
8.110000e+02 4.548932e-15
8.120000e+02 4.997967e-15
8.130000e+02 5.490014e-15
8.140000e+02 6.029067e-15
8.150000e+02 6.619476e-15
8.160000e+02 7.265983e-15
8.170000e+02 7.973755e-15
8.180000e+02 8.748415e-15
8.190000e+02 9.596090e-15
8.200000e+02 1.052345e-14
8.210000e+02 1.153775e-14
8.220000e+02 1.264688e-14
8.230000e+02 1.385945e-14
8.240000e+02 1.518478e-14
8.250000e+02 1.663305e-14
8.260000e+02 1.821530e-14
8.270000e+02 1.994353e-14
8.280000e+02 2.183079e-14
8.290000e+02 2.389126e-14
8.300000e+02 2.614033e-14
8.310000e+02 2.859472e-14
8.320000e+02 3.127260e-14
8.330000e+02 3.419365e-14
8.340000e+02 3.737928e-14
8.350000e+02 4.085268e-14
8.360000e+02 4.463903e-14
8.370000e+02 4.876563e-14
8.380000e+02 5.326210e-14
8.390000e+02 5.816051e-14
8.400000e+02 6.349568e-14
8.410000e+02 6.930529e-14
8.420000e+02 7.563020e-14
8.430000e+02 8.251464e-14
8.440000e+02 9.000654e-14
8.450000e+02 9.815779e-14
8.460000e+02 1.070246e-13
8.470000e+02 1.166676e-13
8.480000e+02 1.271528e-13
8.490000e+02 1.385512e-13
8.500000e+02 1.509399e-13
8.510000e+02 1.644021e-13
8.520000e+02 1.790279e-13
8.530000e+02 1.949145e-13
8.540000e+02 2.121672e-13
8.550000e+02 2.308996e-13
8.560000e+02 2.512344e-13
8.570000e+02 2.733045e-13
8.580000e+02 2.972529e-13
8.590000e+02 3.232344e-13
8.600000e+02 3.514159e-13
8.610000e+02 3.819778e-13
8.620000e+02 4.151144e-13
8.630000e+02 4.510356e-13
8.640000e+02 4.899678e-13
8.650000e+02 5.321551e-13
8.660000e+02 5.778607e-13
8.670000e+02 6.273684e-13
8.680000e+02 6.809841e-13
8.690000e+02 7.390374e-13
8.700000e+02 8.018837e-13
8.710000e+02 8.699055e-13
8.720000e+02 9.435149e-13
8.730000e+02 1.023156e-12
8.740000e+02 1.109306e-12
8.750000e+02 1.202481e-12
8.760000e+02 1.303232e-12
8.770000e+02 1.412158e-12
8.780000e+02 1.529897e-12
8.790000e+02 1.657140e-12
8.800000e+02 1.794629e-12
8.810000e+02 1.943161e-12
8.820000e+02 2.103593e-12
8.830000e+02 2.276847e-12
8.840000e+02 2.463913e-12
8.850000e+02 2.665856e-12
8.860000e+02 2.883819e-12
8.870000e+02 3.119030e-12
8.880000e+02 3.372808e-12
8.890000e+02 3.646570e-12
8.900000e+02 3.941837e-12
8.910000e+02 4.260240e-12
8.920000e+02 4.603532e-12
8.930000e+02 4.973591e-12
8.940000e+02 5.372434e-12
8.950000e+02 5.802226e-12
8.960000e+02 6.265285e-12
8.970000e+02 6.764099e-12
8.980000e+02 7.301336e-12
8.990000e+02 7.879853e-12
9.000000e+02 8.502716e-12
9.010000e+02 9.173207e-12
9.020000e+02 9.894844e-12
9.030000e+02 1.067140e-11
9.040000e+02 1.150690e-11
9.050000e+02 1.240567e-11
9.060000e+02 1.337234e-11
9.070000e+02 1.441187e-11
9.080000e+02 1.552954e-11
9.090000e+02 1.673105e-11
9.100000e+02 1.802246e-11
9.110000e+02 1.941025e-11
9.120000e+02 2.090139e-11
9.130000e+02 2.250329e-11
9.140000e+02 2.458456e-11
9.150000e+02 5.390299e-09
9.160000e+02 3.516614e-08
9.170000e+02 9.506426e-10
9.180000e+02 7.002602e-09
9.190000e+02 1.001897e-07
9.200000e+02 2.819326e-07
9.210000e+02 4.038440e-11
9.220000e+02 1.660842e-07
9.230000e+02 9.625575e-10
9.240000e+02 1.448143e-09
9.250000e+02 2.366152e-08
9.260000e+02 1.044587e-08
9.270000e+02 1.455816e-09
9.280000e+02 1.732090e-06
9.290000e+02 1.693494e-06
9.300000e+02 3.686693e-07
9.310000e+02 1.908925e-09
9.320000e+02 1.360596e-06
9.330000e+02 1.973585e-07
9.340000e+02 4.220328e-08
9.350000e+02 2.939750e-09
9.360000e+02 5.548301e-09
9.370000e+02 7.289227e-10
9.380000e+02 2.364378e-09
9.390000e+02 2.006378e-08
9.400000e+02 1.756380e-06
9.410000e+02 2.146847e-07
9.420000e+02 6.071728e-06
9.430000e+02 3.250761e-08
9.440000e+02 6.916818e-06
9.450000e+02 6.460111e-06
9.460000e+02 6.748873e-07
9.470000e+02 5.362892e-10
9.480000e+02 1.889190e-06
9.490000e+02 1.996137e-07
9.500000e+02 4.092178e-09
9.510000e+02 4.566547e-07
9.520000e+02 1.328571e-06
9.530000e+02 6.534236e-09
9.540000e+02 6.376641e-10
9.550000e+02 7.789822e-08
9.560000e+02 8.824766e-06
9.570000e+02 3.473724e-08
9.580000e+02 5.414904e-10
9.590000e+02 3.840801e-06
9.600000e+02 8.688147e-09
9.610000e+02 1.118147e-06
9.620000e+02 3.502759e-07
9.630000e+02 3.682544e-08
9.640000e+02 9.562285e-09
9.650000e+02 2.024535e-09
9.660000e+02 8.244479e-08
9.670000e+02 1.184389e-08
9.680000e+02 8.136340e-09
9.690000e+02 5.417278e-07
9.700000e+02 9.715310e-07
9.710000e+02 2.043250e-08
9.720000e+02 6.409749e-09
9.730000e+02 4.508252e-08
9.740000e+02 6.832562e-07
9.750000e+02 1.952136e-07
9.760000e+02 9.502613e-06
9.770000e+02 4.845343e-06
9.780000e+02 1.902451e-06
9.790000e+02 4.083563e-05
9.800000e+02 3.752835e-05
9.810000e+02 9.900104e-07
9.820000e+02 1.495437e-07
9.830000e+02 3.467714e-05
9.840000e+02 1.139489e-06
9.850000e+02 3.874432e-07
9.860000e+02 6.884665e-07
9.870000e+02 3.505912e-05
9.880000e+02 7.705239e-09
9.890000e+02 6.975886e-06
9.900000e+02 2.379264e-05
9.910000e+02 1.752068e-07
9.920000e+02 4.780762e-09
9.930000e+02 8.550570e-05
9.940000e+02 8.177722e-09
9.950000e+02 3.012159e-06
9.960000e+02 3.574314e-08
9.970000e+02 5.260016e-06
9.980000e+02 2.861264e-05
9.990000e+02 2.821811e-07
1.000000e+03 1.533044e-04
1.001000e+03 1.249266e-04
1.002000e+03 1.108767e-04
1.003000e+03 2.769884e-07
1.004000e+03 1.399894e-08
1.005000e+03 1.292501e-06
1.006000e+03 8.899312e-05
1.007000e+03 1.432546e-04
1.008000e+03 5.016534e-05
1.009000e+03 4.317615e-07
1.010000e+03 4.797560e-05
1.011000e+03 5.629366e-05
1.012000e+03 7.299400e-05
1.013000e+03 7.038368e-05
1.014000e+03 1.816989e-08
1.015000e+03 2.928209e-08
1.016000e+03 1.804539e-06
1.017000e+03 2.144225e-08
1.018000e+03 4.171234e-07
1.019000e+03 2.943852e-08
1.020000e+03 9.471648e-05
1.021000e+03 1.091634e-06
1.022000e+03 1.543805e-06
1.023000e+03 7.027847e-08
1.024000e+03 9.122886e-06
1.025000e+03 3.420558e-08
1.026000e+03 5.062818e-08
1.027000e+03 3.011620e-06
1.028000e+03 2.819506e-07
1.029000e+03 4.319008e-08
1.030000e+03 6.362054e-06
1.031000e+03 1.980486e-05
1.032000e+03 2.668628e-04
1.033000e+03 2.697532e-06
1.034000e+03 2.334344e-05
1.035000e+03 2.001470e-07
1.036000e+03 6.543996e-08
1.037000e+03 2.599200e-04
1.038000e+03 1.554998e-03
1.039000e+03 3.004286e-04
1.040000e+03 2.074983e-04
1.041000e+03 1.568825e-03
1.042000e+03 1.104117e-03
1.043000e+03 1.138738e-03
1.044000e+03 4.034957e-03
1.045000e+03 1.743994e-07
1.046000e+03 2.080172e-04
1.047000e+03 8.371426e-05
1.048000e+03 9.337527e-07
1.049000e+03 6.998866e-05
1.050000e+03 1.358447e-05
1.051000e+03 6.901682e-06
1.052000e+03 1.625190e-03
1.053000e+03 2.684779e-03
1.054000e+03 1.757871e-07
1.055000e+03 3.080604e-03
1.056000e+03 3.655716e-03
1.057000e+03 2.885517e-04
1.058000e+03 6.280290e-06
1.059000e+03 6.120186e-06
1.060000e+03 1.453795e-06
1.061000e+03 6.189989e-04
1.062000e+03 3.272582e-06
1.063000e+03 3.004588e-04
1.064000e+03 4.377216e-07
1.065000e+03 3.185123e-07
1.066000e+03 9.253395e-04
1.067000e+03 5.668720e-06
1.068000e+03 8.604742e-03
1.069000e+03 1.195936e-06
1.070000e+03 7.955544e-05
1.071000e+03 2.350088e-03
1.072000e+03 9.914083e-03
1.073000e+03 5.043112e-07
1.074000e+03 3.249148e-04
1.075000e+03 1.675636e-04
1.076000e+03 1.086698e-02
1.077000e+03 4.429487e-06
1.078000e+03 9.688549e-06
1.079000e+03 5.486566e-05
1.080000e+03 3.367024e-04
1.081000e+03 2.638038e-03
1.082000e+03 1.201733e-03
1.083000e+03 5.345065e-04
1.084000e+03 2.503257e-02
1.085000e+03 9.333715e-05
1.086000e+03 1.625891e-02
1.087000e+03 1.575798e-05
1.088000e+03 2.788783e-02
1.089000e+03 3.034573e-02
1.090000e+03 7.133230e-05
1.091000e+03 1.228601e-04
1.092000e+03 2.652504e-02
1.093000e+03 3.441172e-02
1.094000e+03 1.289245e-03
1.095000e+03 4.263793e-02
1.096000e+03 1.523230e-03
1.097000e+03 1.202261e-02
1.098000e+03 3.822888e-02
1.099000e+03 2.945736e-04
1.100000e+03 3.582740e-06
1.101000e+03 1.114045e-05
1.102000e+03 2.112294e-04
1.103000e+03 4.845650e-02
1.104000e+03 5.316915e-02
1.105000e+03 5.454934e-02
1.106000e+03 1.334714e-03
1.107000e+03 7.644296e-06
1.108000e+03 1.414295e-02
1.109000e+03 1.145676e-04
1.110000e+03 6.187813e-02
1.111000e+03 4.137434e-02
1.112000e+03 5.226717e-03
1.113000e+03 4.510339e-02
1.114000e+03 2.551626e-03
1.115000e+03 1.259859e-04
1.116000e+03 3.548517e-05
1.117000e+03 5.381439e-02
1.118000e+03 2.038772e-04
1.119000e+03 5.179205e-03
1.120000e+03 6.360561e-05
1.121000e+03 3.424933e-02
1.122000e+03 1.350003e-01
1.123000e+03 8.350416e-02
1.124000e+03 1.036511e-01
1.125000e+03 4.372729e-02
1.126000e+03 1.986426e-01
1.127000e+03 4.817656e-02
1.128000e+03 9.575772e-02
1.129000e+03 1.953217e-02
1.130000e+03 1.073899e-01
1.131000e+03 9.946924e-02
1.132000e+03 1.192009e-04
1.133000e+03 1.530848e-03
1.134000e+03 2.749438e-02
1.135000e+03 9.900883e-02
1.136000e+03 3.197245e-03
1.137000e+03 7.056453e-02
1.138000e+03 1.972656e-02
1.139000e+03 1.043812e-01
1.140000e+03 9.191670e-02
1.141000e+03 1.017978e-01
1.142000e+03 1.068871e-01
1.143000e+03 2.078079e-02
1.144000e+03 1.064457e-01
1.145000e+03 7.054210e-05
1.146000e+03 1.117969e-01
1.147000e+03 1.054928e-01
1.148000e+03 6.747767e-04
1.149000e+03 7.335791e-02
1.150000e+03 6.053527e-02
1.151000e+03 1.053480e-01
1.152000e+03 7.519821e-02
1.153000e+03 1.009808e-01
1.154000e+03 1.073899e-01
1.155000e+03 6.960098e-02
1.156000e+03 7.958162e-02
1.157000e+03 9.509316e-02
1.158000e+03 2.443321e-02
1.159000e+03 9.727753e-02
1.160000e+03 3.527703e-02
1.161000e+03 8.794499e-02
1.162000e+03 3.355317e-03
1.163000e+03 1.467737e-02
1.164000e+03 2.630539e-04
1.165000e+03 4.537320e-02
1.166000e+03 2.485078e-02
1.167000e+03 1.808574e-02
1.168000e+03 1.024563e-01
1.169000e+03 1.071115e-01
1.170000e+03 1.564993e-02
1.171000e+03 4.881314e-02
1.172000e+03 3.142066e-02
1.173000e+03 3.496723e-02
1.174000e+03 4.738588e-04
1.175000e+03 1.753774e-04
1.176000e+03 7.812679e-05
1.177000e+03 1.361902e-01
1.178000e+03 1.292669e-01
1.179000e+03 1.202163e-01
1.180000e+03 8.333533e-02
1.181000e+03 1.113408e-01
1.182000e+03 1.053023e-01
1.183000e+03 7.615470e-02
1.184000e+03 6.751125e-02
1.185000e+03 7.292105e-02
1.186000e+03 2.663677e-03
1.187000e+03 8.604914e-02
1.188000e+03 5.446253e-02
1.189000e+03 8.726660e-02
1.190000e+03 8.469932e-02
1.191000e+03 7.634788e-02
1.192000e+03 7.254425e-02
1.193000e+03 6.728358e-02
1.194000e+03 6.989112e-02
1.195000e+03 6.661233e-02
1.196000e+03 9.397230e-01
1.197000e+03 1.087803e+00
1.198000e+03 9.851038e-03
1.199000e+03 9.070580e-01
1.200000e+03 4.243073e-02
1.201000e+03 6.860612e-01
1.202000e+03 3.104577e-01
1.203000e+03 4.871961e-01
1.204000e+03 4.720052e-02
1.205000e+03 3.169549e-01
1.206000e+03 2.532615e-01
1.207000e+03 3.792316e-02
1.208000e+03 1.270694e-01
1.209000e+03 9.439524e-02
1.210000e+03 3.928430e-04
1.211000e+03 3.533631e-02
1.212000e+03 1.685599e-02
1.213000e+03 7.669100e-03
1.214000e+03 2.245811e-03
1.215000e+03 4.102840e-04
1.216000e+03 3.622842e-04
1.217000e+03 1.419434e-03
1.218000e+03 6.343274e-03
1.219000e+03 1.735029e-02
1.220000e+03 2.385766e-02
1.221000e+03 7.353529e-02
1.222000e+03 1.198405e-01
1.223000e+03 1.565559e-01
1.224000e+03 2.607088e-01
1.225000e+03 1.808652e-02
1.226000e+03 5.690252e-01
1.227000e+03 7.707592e-01
1.228000e+03 1.924096e-01
1.229000e+03 1.127075e+00
1.230000e+03 9.529108e-01
1.231000e+03 9.656131e-02
1.232000e+03 2.131844e+00
1.233000e+03 2.515246e+00
1.234000e+03 2.501232e+00
1.235000e+03 2.989871e+00
1.236000e+03 3.884766e-01
1.237000e+03 3.939330e+00
1.238000e+03 4.148256e+00
1.239000e+03 2.445234e+00
1.240000e+03 1.451100e+00
1.241000e+03 2.986404e+00
1.242000e+03 5.021247e+00
1.243000e+03 6.221593e+00
1.244000e+03 6.705801e+00
1.245000e+03 6.874772e+00
1.246000e+03 5.370879e+00
1.247000e+03 6.732557e+00
1.248000e+03 6.340750e+00
1.249000e+03 8.734812e+00
1.250000e+03 5.949757e+00
1.251000e+03 9.276250e+00
1.252000e+03 8.307592e+00
1.253000e+03 9.882831e+00
1.254000e+03 8.933888e+00
1.255000e+03 2.277026e+00
1.256000e+03 6.991363e+00
1.257000e+03 5.689754e+00
1.258000e+03 5.255678e+00
1.259000e+03 7.225863e+00
1.260000e+03 1.112628e+01
1.261000e+03 1.996546e-01
1.262000e+03 1.162077e+01
1.263000e+03 1.079558e+01
1.264000e+03 6.374733e+00
1.265000e+03 7.491917e+00
1.266000e+03 1.371729e+01
1.267000e+03 1.042977e+01
