# wavelength_A flux
5.000000e+02 1.512420e-37
5.010000e+02 1.930902e-37
5.020000e+02 2.462793e-37
5.030000e+02 3.138182e-37
5.040000e+02 3.995055e-37
5.050000e+02 1.506837e-36
5.060000e+02 1.904994e-36
5.070000e+02 2.406207e-36
5.080000e+02 3.036592e-36
5.090000e+02 3.828818e-36
5.100000e+02 4.823367e-36
5.110000e+02 6.071026e-36
5.120000e+02 7.634775e-36
5.130000e+02 9.592982e-36
5.140000e+02 1.204430e-35
5.150000e+02 1.510706e-35
5.160000e+02 1.893376e-35
5.170000e+02 2.370716e-35
5.180000e+02 2.966371e-35
5.190000e+02 3.708287e-35
5.200000e+02 4.631853e-35
5.210000e+02 5.780201e-35
5.220000e+02 7.174266e-35
5.230000e+02 8.979609e-35
5.240000e+02 1.118404e-34
5.250000e+02 1.391379e-34
5.260000e+02 1.729507e-34
5.270000e+02 2.148079e-34
5.280000e+02 2.665835e-34
5.290000e+02 3.303880e-34
5.300000e+02 4.095449e-34
5.310000e+02 5.071134e-34
5.320000e+02 6.274151e-34
5.330000e+02 7.756495e-34
5.340000e+02 9.581024e-34
5.350000e+02 1.182522e-33
5.360000e+02 1.457992e-33
5.370000e+02 1.030536e-33
5.380000e+02 2.212782e-33
5.390000e+02 2.724099e-33
5.400000e+02 3.350309e-33
5.410000e+02 4.113482e-33
5.420000e+02 5.055238e-33
5.430000e+02 6.202822e-33
5.440000e+02 7.605389e-33
5.450000e+02 9.318372e-33
5.460000e+02 1.140409e-32
5.470000e+02 1.395869e-32
5.480000e+02 1.706608e-32
5.490000e+02 2.085053e-32
5.500000e+02 2.545633e-32
5.510000e+02 3.105787e-32
5.520000e+02 3.786572e-32
5.530000e+02 4.613523e-32
5.540000e+02 5.617061e-32
5.550000e+02 6.834225e-32
5.560000e+02 8.309497e-32
5.570000e+02 1.009641e-31
5.580000e+02 1.225944e-31
5.590000e+02 1.487583e-31
5.600000e+02 1.803862e-31
5.610000e+02 2.185942e-31
5.620000e+02 2.647211e-31
5.630000e+02 3.203720e-31
5.640000e+02 3.874702e-31
5.650000e+02 4.683155e-31
5.660000e+02 5.656886e-31
5.670000e+02 6.828441e-31
5.680000e+02 8.237422e-31
5.690000e+02 9.930822e-31
5.700000e+02 1.196482e-30
5.710000e+02 1.440637e-30
5.720000e+02 1.733533e-30
5.730000e+02 2.084686e-30
5.740000e+02 2.505423e-30
5.750000e+02 3.011405e-30
5.760000e+02 3.591593e-30
5.770000e+02 4.336261e-30
5.780000e+02 5.198714e-30
5.790000e+02 6.229068e-30
5.800000e+02 7.458844e-30
5.810000e+02 8.925839e-30
5.820000e+02 1.067409e-29
5.830000e+02 1.275150e-29
5.840000e+02 1.503328e-29
5.850000e+02 1.813996e-29
5.860000e+02 2.171007e-29
5.870000e+02 2.589720e-29
5.880000e+02 3.087258e-29
5.890000e+02 3.677612e-29
5.900000e+02 4.378547e-29
5.910000e+02 5.210039e-29
5.920000e+02 6.195854e-29
5.930000e+02 7.363985e-29
5.940000e+02 8.747474e-29
5.950000e+02 1.038513e-28
5.960000e+02 1.232260e-28
5.970000e+02 1.461353e-28
5.980000e+02 1.732108e-28
5.990000e+02 2.051899e-28
6.000000e+02 2.429422e-28
6.010000e+02 2.872700e-28
6.020000e+02 3.400173e-28
6.030000e+02 4.019462e-28
6.040000e+02 4.748875e-28
6.050000e+02 5.607706e-28
6.060000e+02 6.618398e-28
6.070000e+02 7.807192e-28
6.080000e+02 9.204754e-28
6.090000e+02 1.084691e-27
6.100000e+02 1.277543e-27
6.110000e+02 1.503931e-27
6.120000e+02 1.769531e-27
6.130000e+02 2.080988e-27
6.140000e+02 2.446124e-27
6.150000e+02 2.873785e-27
6.160000e+02 3.374564e-27
6.170000e+02 3.960619e-27
6.180000e+02 4.646165e-27
6.190000e+02 5.447681e-27
6.200000e+02 6.384416e-27
6.210000e+02 7.478564e-27
6.220000e+02 8.756002e-27
6.230000e+02 1.024671e-26
6.240000e+02 1.198552e-26
6.250000e+02 1.401298e-26
6.260000e+02 1.637533e-26
6.270000e+02 1.912689e-26
6.280000e+02 2.233044e-26
6.290000e+02 2.605834e-26
6.300000e+02 3.039262e-26
6.310000e+02 3.476590e-26
6.320000e+02 4.129387e-26
6.330000e+02 4.802060e-26
6.340000e+02 5.600132e-26
6.350000e+02 6.514161e-26
6.360000e+02 7.580034e-26
6.370000e+02 8.814119e-26
6.380000e+02 1.024355e-25
6.390000e+02 1.189951e-25
6.400000e+02 1.381706e-25
6.410000e+02 1.603656e-25
6.420000e+02 1.860445e-25
6.430000e+02 2.157413e-25
6.440000e+02 2.500698e-25
6.450000e+02 2.897329e-25
6.460000e+02 3.355490e-25
6.470000e+02 3.884404e-25
6.480000e+02 4.494776e-25
6.490000e+02 5.198907e-25
6.500000e+02 6.009872e-25
6.510000e+02 6.946405e-25
6.520000e+02 8.024461e-25
6.530000e+02 9.265914e-25
6.540000e+02 1.069501e-24
6.550000e+02 1.233943e-24
6.560000e+02 1.423090e-24
6.570000e+02 1.640474e-24
6.580000e+02 1.890486e-24
6.590000e+02 2.177613e-24
6.600000e+02 2.507309e-24
6.610000e+02 2.885831e-24
6.620000e+02 3.320136e-24
6.630000e+02 3.818287e-24
6.640000e+02 4.389445e-24
6.650000e+02 5.044089e-24
6.660000e+02 5.794078e-24
6.670000e+02 6.652971e-24
6.680000e+02 7.636232e-24
6.690000e+02 8.761424e-24
6.700000e+02 1.004855e-23
6.710000e+02 1.152036e-23
6.720000e+02 1.320271e-23
6.730000e+02 1.512499e-23
6.740000e+02 1.732061e-23
6.750000e+02 1.982750e-23
6.760000e+02 2.268873e-23
6.770000e+02 2.595318e-23
6.780000e+02 2.967631e-23
6.790000e+02 3.392101e-23
6.800000e+02 3.875910e-23
6.810000e+02 4.427041e-23
6.820000e+02 5.054695e-23
6.830000e+02 5.769242e-23
6.840000e+02 6.582419e-23
6.850000e+02 7.507451e-23
6.860000e+02 8.559552e-23
6.870000e+02 9.755535e-23
6.880000e+02 1.111468e-22
6.890000e+02 1.265870e-22
6.900000e+02 1.441215e-22
6.910000e+02 1.640272e-22
6.920000e+02 1.866172e-22
6.930000e+02 2.122445e-22
6.940000e+02 2.413075e-22
6.950000e+02 2.742585e-22
6.960000e+02 3.115987e-22
6.970000e+02 3.538958e-22
6.980000e+02 4.018115e-22
6.990000e+02 4.560523e-22
7.000000e+02 5.174407e-22
7.010000e+02 5.868951e-22
7.020000e+02 6.654496e-22
7.030000e+02 7.542554e-22
7.040000e+02 8.546578e-22
7.050000e+02 9.680876e-22
7.060000e+02 1.096206e-21
7.070000e+02 1.240885e-21
7.080000e+02 1.404195e-21
7.090000e+02 1.588479e-21
7.100000e+02 1.796387e-21
7.110000e+02 2.030830e-21
7.120000e+02 2.295133e-21
7.130000e+02 2.593005e-21
7.140000e+02 2.928604e-21
7.150000e+02 3.306581e-21
7.160000e+02 3.732181e-21
7.170000e+02 4.211208e-21
7.180000e+02 4.750202e-21
7.190000e+02 5.356658e-21
7.200000e+02 6.038581e-21
7.210000e+02 6.805209e-21
7.220000e+02 7.666882e-21
7.230000e+02 8.634912e-21
7.240000e+02 9.722221e-21
7.250000e+02 1.094308e-20
7.260000e+02 1.231340e-20
7.270000e+02 1.385136e-20
7.280000e+02 1.557660e-20
7.290000e+02 1.751147e-20
7.300000e+02 1.968080e-20
7.310000e+02 2.211229e-20
7.320000e+02 2.483682e-20
7.330000e+02 2.788881e-20
7.340000e+02 3.130663e-20
7.350000e+02 3.513300e-20
7.360000e+02 3.941445e-20
7.370000e+02 4.420749e-20
7.380000e+02 4.956742e-20
7.390000e+02 5.556116e-20
7.400000e+02 6.226141e-20
7.410000e+02 6.975051e-20
7.420000e+02 7.811728e-20
7.430000e+02 8.746379e-20
7.440000e+02 9.790028e-20
7.450000e+02 1.095516e-19
7.460000e+02 1.225546e-19
7.470000e+02 1.370627e-19
7.480000e+02 1.532456e-19
7.490000e+02 1.712915e-19
7.500000e+02 1.914095e-19
7.510000e+02 2.138314e-19
7.520000e+02 2.388143e-19
7.530000e+02 2.666431e-19
7.540000e+02 2.976334e-19
7.550000e+02 3.321354e-19
7.560000e+02 3.705366e-19
7.570000e+02 4.132467e-19
7.580000e+02 4.607994e-19
7.590000e+02 5.136593e-19
7.600000e+02 5.724375e-19
7.610000e+02 6.377672e-19
7.620000e+02 7.103663e-19
7.630000e+02 7.910199e-19
7.640000e+02 8.806018e-19
7.650000e+02 9.800669e-19
7.660000e+02 1.090485e-18
7.670000e+02 1.213025e-18
7.680000e+02 1.348971e-18
7.690000e+02 1.474251e-18
7.700000e+02 1.667046e-18
7.710000e+02 1.852465e-18
7.720000e+02 2.057983e-18
7.730000e+02 2.285720e-18
7.740000e+02 2.538014e-18
7.750000e+02 2.817442e-18
7.760000e+02 3.125836e-18
7.770000e+02 3.469361e-18
7.780000e+02 3.848431e-18
7.790000e+02 4.267854e-18
7.800000e+02 4.731812e-18
7.810000e+02 5.244910e-18
7.820000e+02 5.812212e-18
7.830000e+02 6.439310e-18
7.840000e+02 7.132299e-18
7.850000e+02 7.897939e-18
7.860000e+02 8.743617e-18
7.870000e+02 9.678395e-18
7.880000e+02 1.070956e-17
7.890000e+02 1.184773e-17
7.900000e+02 1.310372e-17
7.910000e+02 1.448940e-17
7.920000e+02 1.601779e-17
7.930000e+02 1.770318e-17
7.940000e+02 1.956128e-17
7.950000e+02 2.160929e-17
7.960000e+02 2.386612e-17
7.970000e+02 2.635248e-17
7.980000e+02 2.909106e-17
7.990000e+02 3.210676e-17
8.000000e+02 3.542688e-17
8.010000e+02 3.908128e-17
8.020000e+02 4.310286e-17
8.030000e+02 4.752718e-17
8.040000e+02 5.239366e-17
8.050000e+02 5.774526e-17
8.060000e+02 6.362902e-17
8.070000e+02 7.009639e-17
8.080000e+02 7.720368e-17
8.090000e+02 8.501246e-17
8.100000e+02 9.359005e-17
8.110000e+02 1.030101e-16
8.120000e+02 1.133529e-16
8.130000e+02 1.247066e-16
8.140000e+02 1.371670e-16
8.150000e+02 1.508392e-16
8.160000e+02 1.658377e-16
8.170000e+02 1.822871e-16
8.180000e+02 2.003252e-16
8.190000e+02 2.201004e-16
8.200000e+02 2.417745e-16
8.210000e+02 2.655255e-16
8.220000e+02 2.915467e-16
8.230000e+02 3.200491e-16
8.240000e+02 3.512627e-16
8.250000e+02 3.854382e-16
8.260000e+02 4.228485e-16
8.270000e+02 4.637914e-16
8.280000e+02 5.085909e-16
8.290000e+02 5.576005e-16
8.300000e+02 6.112037e-16
8.310000e+02 6.698195e-16
8.320000e+02 7.339032e-16
8.330000e+02 8.039506e-16
8.340000e+02 8.805006e-16
8.350000e+02 9.622191e-16
8.360000e+02 1.055503e-15
8.370000e+02 1.155296e-15
8.380000e+02 1.264210e-15
8.390000e+02 1.383213e-15
8.400000e+02 1.513053e-15
8.410000e+02 1.654745e-15
8.420000e+02 1.809309e-15
8.430000e+02 1.977975e-15
8.440000e+02 2.161894e-15
8.450000e+02 2.362441e-15
8.460000e+02 2.581076e-15
8.470000e+02 2.819381e-15
8.480000e+02 3.079077e-15
8.490000e+02 3.362027e-15
8.500000e+02 3.670253e-15
8.510000e+02 4.005949e-15
8.520000e+02 4.371491e-15
8.530000e+02 4.769463e-15
8.540000e+02 5.202674e-15
8.550000e+02 5.674096e-15
8.560000e+02 6.187028e-15
8.570000e+02 6.745028e-15
8.580000e+02 7.300741e-15
8.590000e+02 8.011908e-15
8.600000e+02 8.729455e-15
8.610000e+02 9.496974e-15
8.620000e+02 1.035716e-14
8.630000e+02 1.127828e-14
8.640000e+02 1.227902e-14
8.650000e+02 1.336492e-14
8.660000e+02 1.454658e-14
8.670000e+02 1.582839e-14
8.680000e+02 1.721995e-14
8.690000e+02 1.873034e-14
8.700000e+02 2.036941e-14
8.710000e+02 2.214782e-14
8.720000e+02 2.407705e-14
8.730000e+02 2.616951e-14
8.740000e+02 2.843859e-14
8.750000e+02 3.089877e-14
8.760000e+02 3.356565e-14
8.770000e+02 3.645590e-14
8.780000e+02 3.958798e-14
8.790000e+02 4.298168e-14
8.800000e+02 4.665761e-14
8.810000e+02 5.063881e-14
8.820000e+02 5.494987e-14
8.830000e+02 5.961714e-14
8.840000e+02 6.466963e-14
8.850000e+02 7.013768e-14
8.860000e+02 7.605458e-14
8.870000e+02 8.245609e-14
8.880000e+02 8.938068e-14
8.890000e+02 9.686965e-14
8.900000e+02 1.049680e-13
8.910000e+02 1.137234e-13
8.920000e+02 1.231705e-13
8.930000e+02 1.334164e-13
8.940000e+02 1.444693e-13
8.950000e+02 1.564112e-13
8.960000e+02 1.693110e-13
8.970000e+02 1.832432e-13
8.980000e+02 1.982880e-13
8.990000e+02 2.145315e-13
9.000000e+02 2.320661e-13
9.010000e+02 2.509914e-13
9.020000e+02 2.714137e-13
9.030000e+02 2.934382e-13
9.040000e+02 3.172195e-13
9.050000e+02 3.427290e-13
9.060000e+02 3.705088e-13
9.070000e+02 4.003167e-13
9.080000e+02 4.324607e-13
9.090000e+02 4.671031e-13
9.100000e+02 5.044374e-13
9.110000e+02 5.446837e-13
9.120000e+02 5.882440e-13
9.130000e+02 5.382082e-13
9.140000e+02 6.366463e-12
9.150000e+02 2.973816e-05
9.160000e+02 4.342309e-05
9.170000e+02 4.604795e-05
9.180000e+02 4.777702e-05
9.190000e+02 5.067851e-05
9.200000e+02 5.310622e-05
9.210000e+02 1.049827e-12
9.220000e+02 5.398146e-05
9.230000e+02 5.901558e-05
9.240000e+02 5.794095e-05
9.250000e+02 4.152811e-05
9.260000e+02 6.766244e-05
9.270000e+02 8.569048e-06
9.280000e+02 7.600217e-05
9.290000e+02 5.301303e-05
9.300000e+02 8.003318e-05
9.310000e+02 1.867632e-05
9.320000e+02 9.101946e-05
9.330000e+02 9.509386e-05
9.340000e+02 9.838603e-05
9.350000e+02 1.974058e-08
9.360000e+02 1.440159e-05
9.370000e+02 5.300137e-09
9.380000e+02 1.264665e-06
9.390000e+02 3.996516e-05
9.400000e+02 1.260091e-04
9.410000e+02 1.266748e-07
9.420000e+02 1.373086e-04
9.430000e+02 8.080938e-05
9.440000e+02 1.177009e-04
9.450000e+02 1.545875e-04
9.460000e+02 1.505775e-04
9.470000e+02 4.474205e-07
9.480000e+02 4.318149e-06
9.490000e+02 1.674212e-04
9.500000e+02 7.359631e-09
9.510000e+02 1.805899e-04
9.520000e+02 1.976767e-04
9.530000e+02 1.149941e-05
9.540000e+02 8.920933e-07
9.550000e+02 1.149882e-04
9.560000e+02 1.901513e-06
9.570000e+02 3.908717e-06
9.580000e+02 2.074958e-07
9.590000e+02 2.980447e-04
9.600000e+02 2.383604e-08
9.610000e+02 2.974849e-04
9.620000e+02 2.697789e-04
9.630000e+02 1.002804e-04
9.640000e+02 7.974450e-09
9.650000e+02 2.080516e-06
9.660000e+02 2.019727e-04
9.670000e+02 3.175324e-05
9.680000e+02 1.501152e-05
9.690000e+02 3.595317e-04
9.700000e+02 3.834337e-04
9.710000e+02 4.308471e-05
9.720000e+02 1.540006e-05
9.730000e+02 1.853446e-04
9.740000e+02 3.787801e-04
9.750000e+02 2.887594e-04
9.760000e+02 6.181921e-04
9.770000e+02 6.366461e-04
9.780000e+02 5.757172e-04
9.790000e+02 7.382797e-04
9.800000e+02 7.690854e-04
9.810000e+02 6.579165e-04
9.820000e+02 3.195970e-04
9.830000e+02 8.848829e-04
9.840000e+02 7.419293e-06
9.850000e+02 2.688650e-04
9.860000e+02 4.480881e-04
9.870000e+02 1.073575e-03
9.880000e+02 4.518428e-06
9.890000e+02 9.402452e-04
9.900000e+02 6.682453e-06
9.910000e+02 1.421987e-04
9.920000e+02 7.978269e-07
9.930000e+02 6.974942e-04
9.940000e+02 1.577428e-08
9.950000e+02 1.598572e-05
9.960000e+02 1.986988e-05
9.970000e+02 1.491280e-07
9.980000e+02 1.562227e-03
9.990000e+02 1.026619e-04
1.000000e+03 1.527487e-03
1.001000e+03 2.200948e-03
1.002000e+03 2.302352e-03
1.003000e+03 5.270359e-04
1.004000e+03 9.091978e-06
1.005000e+03 1.366834e-03
1.006000e+03 2.793478e-03
1.007000e+03 2.930179e-03
1.008000e+03 2.938616e-03
1.009000e+03 4.273882e-04
1.010000e+03 3.324554e-03
1.011000e+03 3.535024e-03
1.012000e+03 3.659650e-03
1.013000e+03 3.827292e-03
1.014000e+03 2.466375e-06
1.015000e+03 1.200382e-05
1.016000e+03 1.189206e-03
1.017000e+03 2.295244e-06
1.018000e+03 9.602029e-04
1.019000e+03 1.516985e-05
1.020000e+03 5.064156e-03
1.021000e+03 1.348928e-05
1.022000e+03 5.485858e-04
1.023000e+03 4.622783e-05
1.024000e+03 3.729240e-04
1.025000e+03 1.889694e-06
1.026000e+03 7.864601e-06
1.027000e+03 6.374651e-04
1.028000e+03 9.499490e-07
1.029000e+03 4.509930e-06
1.030000e+03 4.194427e-03
1.031000e+03 6.204804e-03
1.032000e+03 3.803158e-03
1.033000e+03 1.556426e-05
1.034000e+03 6.883755e-03
1.035000e+03 3.799796e-07
1.036000e+03 1.104828e-05
1.037000e+03 1.106903e-02
1.038000e+03 1.191859e-02
1.039000e+03 1.135435e-02
1.040000e+03 1.303659e-02
1.041000e+03 1.029291e-02
1.042000e+03 1.437311e-02
1.043000e+03 7.498987e-03
1.044000e+03 1.580362e-02
1.045000e+03 1.579997e-02
1.046000e+03 1.635569e-02
1.047000e+03 1.394952e-02
1.048000e+03 6.038919e-04
1.049000e+03 1.422274e-02
1.050000e+03 9.162924e-03
1.051000e+03 4.933415e-03
1.052000e+03 2.171715e-02
1.053000e+03 2.307618e-02
1.054000e+03 1.824647e-05
1.055000e+03 6.894426e-03
1.056000e+03 2.593622e-02
1.057000e+03 2.333293e-02
1.058000e+03 1.005098e-02
1.059000e+03 6.087527e-03
1.060000e+03 5.693845e-04
1.061000e+03 3.094044e-02
1.062000e+03 5.396541e-03
1.063000e+03 7.390023e-06
1.064000e+03 5.587935e-07
1.065000e+03 3.302470e-05
1.066000e+03 3.360473e-04
1.067000e+03 1.694386e-03
1.068000e+03 4.336562e-02
1.069000e+03 4.998307e-04
1.070000e+03 3.549707e-02
1.071000e+03 4.843421e-02
1.072000e+03 5.072332e-02
1.073000e+03 9.347871e-05
1.074000e+03 4.676004e-02
1.075000e+03 4.419555e-02
1.076000e+03 4.174081e-02
1.077000e+03 4.386902e-05
1.078000e+03 1.359706e-02
1.079000e+03 4.281240e-02
1.080000e+03 4.394669e-02
1.081000e+03 7.041553e-02
1.082000e+03 6.937566e-02
1.083000e+03 6.587060e-02
1.084000e+03 6.500556e-02
1.085000e+03 1.680566e-02
1.086000e+03 8.684332e-02
1.087000e+03 8.856572e-03
1.088000e+03 9.158808e-02
1.089000e+03 9.460886e-02
1.090000e+03 4.671484e-02
1.091000e+03 5.422461e-02
1.092000e+03 3.672746e-02
1.093000e+03 1.049094e-01
1.094000e+03 9.776185e-02
1.095000e+03 1.173751e-01
1.096000e+03 2.053745e-03
1.097000e+03 1.021451e-01
1.098000e+03 6.773492e-02
1.099000e+03 8.485962e-02
1.100000e+03 1.423421e-03
1.101000e+03 4.595101e-03
1.102000e+03 8.276018e-02
1.103000e+03 1.576106e-01
1.104000e+03 1.618255e-01
1.105000e+03 1.620294e-01
1.106000e+03 1.489237e-01
1.107000e+03 2.753749e-03
1.108000e+03 1.788253e-01
1.109000e+03 5.221458e-02
1.110000e+03 1.633074e-01
1.111000e+03 1.931440e-01
1.112000e+03 1.916247e-01
1.113000e+03 1.596190e-01
1.114000e+03 1.426731e-01
1.115000e+03 5.768222e-02
1.116000e+03 2.611859e-02
1.117000e+03 2.089126e-01
1.118000e+03 7.615182e-02
1.119000e+03 2.185914e-01
1.120000e+03 3.988872e-02
1.121000e+03 2.383392e-01
1.122000e+03 8.629207e-02
1.123000e+03 2.426782e-01
1.124000e+03 2.549931e-01
1.125000e+03 2.395565e-01
1.126000e+03 2.673891e-01
1.127000e+03 2.690279e-01
1.128000e+03 2.125633e-01
1.129000e+03 2.703106e-01
1.130000e+03 2.692430e-01
1.131000e+03 2.575320e-01
1.132000e+03 2.070126e-02
1.133000e+03 2.033664e-01
1.134000e+03 2.967811e-01
1.135000e+03 2.215430e-03
1.136000e+03 2.472946e-01
1.137000e+03 3.325672e-01
1.138000e+03 3.256822e-01
1.139000e+03 3.473788e-01
1.140000e+03 2.821617e-01
1.141000e+03 3.616162e-01
1.142000e+03 3.632816e-01
1.143000e+03 3.257982e-01
1.144000e+03 3.532628e-01
1.145000e+03 2.016011e-02
1.146000e+03 3.986438e-01
1.147000e+03 4.072908e-01
1.148000e+03 2.005570e-01
1.149000e+03 4.100952e-01
1.150000e+03 4.201623e-01
1.151000e+03 4.425362e-01
1.152000e+03 4.507652e-01
1.153000e+03 4.187967e-01
1.154000e+03 4.481419e-01
1.155000e+03 4.699655e-01
1.156000e+03 2.245713e-01
1.157000e+03 4.756310e-01
1.158000e+03 4.163980e-01
1.159000e+03 5.144572e-01
1.160000e+03 5.149722e-01
1.161000e+03 5.352465e-01
1.162000e+03 2.854140e-01
1.163000e+03 4.984390e-01
1.164000e+03 5.863309e-04
1.165000e+03 5.772421e-01
1.166000e+03 5.905663e-01
1.167000e+03 6.047943e-01
1.168000e+03 6.232520e-01
1.169000e+03 6.081573e-01
1.170000e+03 6.395373e-01
1.171000e+03 6.648400e-01
1.172000e+03 6.764973e-01
1.173000e+03 6.993175e-01
1.174000e+03 1.314722e-01
1.175000e+03 6.783605e-04
1.176000e+03 1.729727e-04
1.177000e+03 7.690699e-01
1.178000e+03 7.814832e-01
1.179000e+03 8.016332e-01
1.180000e+03 7.681645e-01
1.181000e+03 8.241664e-01
1.182000e+03 8.512467e-01
1.183000e+03 8.671979e-01
1.184000e+03 8.761182e-01
1.185000e+03 9.119268e-01
1.186000e+03 5.251661e-01
1.187000e+03 9.318203e-01
1.188000e+03 9.193056e-01
1.189000e+03 8.507549e-01
1.190000e+03 9.956506e-01
1.191000e+03 1.018319e+00
1.192000e+03 1.023678e+00
1.193000e+03 4.744346e-01
1.194000e+03 9.514000e-01
1.195000e+03 1.062126e+00
1.196000e+03 1.072955e+00
1.197000e+03 1.910437e+00
1.198000e+03 1.388095e+00
1.199000e+03 1.840569e+00
1.200000e+03 1.532356e+00
1.201000e+03 1.744539e+00
1.202000e+03 1.678920e+00
1.203000e+03 2.236686e+00
1.204000e+03 1.773677e+00
1.205000e+03 1.867580e+00
1.206000e+03 1.795404e+00
1.207000e+03 5.801523e-02
1.208000e+03 1.194481e+00
1.209000e+03 8.408170e-01
1.210000e+03 1.044393e-03
1.211000e+03 3.530667e-01
1.212000e+03 1.675005e-01
1.213000e+03 6.943899e-02
1.214000e+03 1.861659e-02
1.215000e+03 1.812774e-03
1.216000e+03 3.539748e-04
1.217000e+03 1.096974e-02
1.218000e+03 5.528110e-02
1.219000e+03 1.591358e-01
1.220000e+03 3.627937e-01
1.221000e+03 6.288738e-01
1.222000e+03 1.097640e+00
1.223000e+03 1.504273e+00
1.224000e+03 1.814280e+00
1.225000e+03 1.856170e+00
1.226000e+03 3.072457e+00
1.227000e+03 3.605141e+00
1.228000e+03 4.051608e+00
1.229000e+03 4.674049e+00
1.230000e+03 1.346649e-01
1.231000e+03 3.725304e+00
1.232000e+03 5.870804e+00
1.233000e+03 6.356642e+00
1.234000e+03 4.359279e+00
1.235000e+03 7.103053e+00
1.236000e+03 7.071381e+00
1.237000e+03 7.774306e+00
1.238000e+03 8.096268e+00
1.239000e+03 8.159878e+00
1.240000e+03 7.777462e-01
1.241000e+03 8.103325e+00
1.242000e+03 9.264636e+00
1.243000e+03 9.570192e+00
1.244000e+03 9.829117e+00
1.245000e+03 8.624955e+00
1.246000e+03 1.034456e+01
1.247000e+03 1.053352e+01
1.248000e+03 2.910234e+00
1.249000e+03 1.126875e+01
1.250000e+03 9.668187e+00
1.251000e+03 1.203052e+01
1.252000e+03 1.147140e+01
1.253000e+03 1.266009e+01
1.254000e+03 1.258519e+01
1.255000e+03 5.413861e+00
1.256000e+03 1.343467e+01
1.257000e+03 9.589177e+00
1.258000e+03 1.238154e+01
1.259000e+03 1.480980e+01
1.260000e+03 1.523111e+01
1.261000e+03 4.729719e-01
1.262000e+03 1.607150e+01
1.263000e+03 1.119743e+01
1.264000e+03 1.636411e+01
1.265000e+03 1.807804e-01
1.266000e+03 1.780346e+01
1.267000e+03 1.813955e+01
