# wavelength_A flux
5.000000e+02 0.000000e+00
5.010000e+02 1.401298e-45
5.020000e+02 1.401298e-45
5.030000e+02 1.401298e-45
5.040000e+02 1.401298e-45
5.050000e+02 2.802597e-45
5.060000e+02 4.203895e-45
5.070000e+02 4.203895e-45
5.080000e+02 7.006492e-45
5.090000e+02 8.407791e-45
5.100000e+02 1.121039e-44
5.110000e+02 1.541428e-44
5.120000e+02 1.961818e-44
5.130000e+02 2.662467e-44
5.140000e+02 3.643376e-44
5.150000e+02 4.764415e-44
5.160000e+02 6.305843e-44
5.170000e+02 8.407791e-44
5.180000e+02 1.107026e-43
5.190000e+02 1.457350e-43
5.200000e+02 1.919779e-43
5.210000e+02 2.536350e-43
5.220000e+02 3.349103e-43
5.230000e+02 4.400077e-43
5.240000e+02 5.787363e-43
5.250000e+02 7.595038e-43
5.260000e+02 9.949219e-43
5.270000e+02 1.303208e-42
5.280000e+02 1.706782e-42
5.290000e+02 2.230867e-42
5.300000e+02 2.913300e-42
5.310000e+02 3.800321e-42
5.320000e+02 4.952189e-42
5.330000e+02 6.448776e-42
5.340000e+02 8.386771e-42
5.350000e+02 1.089790e-41
5.360000e+02 1.414611e-41
5.370000e+02 1.834440e-41
5.380000e+02 2.376462e-41
5.390000e+02 3.075710e-41
5.400000e+02 3.976885e-41
5.410000e+02 5.137020e-41
5.420000e+02 6.629263e-41
5.430000e+02 8.546800e-41
5.440000e+02 1.100846e-40
5.450000e+02 1.416587e-40
5.460000e+02 1.821170e-40
5.470000e+02 2.339103e-40
5.480000e+02 3.001539e-40
5.490000e+02 3.848022e-40
5.500000e+02 4.928703e-40
5.510000e+02 6.307104e-40
5.520000e+02 8.063646e-40
5.530000e+02 1.030009e-39
5.540000e+02 1.314495e-39
5.550000e+02 1.676055e-39
5.560000e+02 2.135163e-39
5.570000e+02 2.717624e-39
5.580000e+02 3.455931e-39
5.590000e+02 4.390970e-39
5.600000e+02 5.574135e-39
5.610000e+02 7.069981e-39
5.620000e+02 8.959520e-39
5.630000e+02 1.134433e-38
5.640000e+02 1.435168e-38
5.650000e+02 1.814088e-38
5.660000e+02 2.291119e-38
5.670000e+02 2.891162e-38
5.680000e+02 3.645313e-38
5.690000e+02 4.592369e-38
5.700000e+02 5.780694e-38
5.710000e+02 7.270537e-38
5.720000e+02 9.136885e-38
5.730000e+02 1.147300e-37
5.740000e+02 1.439476e-37
5.750000e+02 1.804607e-37
5.760000e+02 2.260547e-37
5.770000e+02 2.829429e-37
5.780000e+02 3.538670e-37
5.790000e+02 4.422211e-37
5.800000e+02 5.522027e-37
5.810000e+02 6.889998e-37
5.820000e+02 8.590195e-37
5.830000e+02 1.070168e-36
5.840000e+02 1.332194e-36
5.850000e+02 1.657111e-36
5.860000e+02 2.059709e-36
5.870000e+02 2.558185e-36
5.880000e+02 3.174912e-36
5.890000e+02 3.937374e-36
5.900000e+02 4.879310e-36
5.910000e+02 6.042112e-36
5.920000e+02 7.476517e-36
5.930000e+02 9.244675e-36
5.940000e+02 1.142266e-35
5.950000e+02 1.410354e-35
5.960000e+02 1.740106e-35
5.970000e+02 2.145415e-35
5.980000e+02 2.643241e-35
5.990000e+02 3.254269e-35
6.000000e+02 4.003715e-35
6.010000e+02 4.922290e-35
6.020000e+02 6.047381e-35
6.030000e+02 7.424461e-35
6.040000e+02 9.108807e-35
6.050000e+02 1.116757e-34
6.060000e+02 1.368226e-34
6.070000e+02 1.675176e-34
6.080000e+02 2.049595e-34
6.090000e+02 2.506005e-34
6.100000e+02 3.061991e-34
6.110000e+02 3.738825e-34
6.120000e+02 4.562229e-34
6.130000e+02 5.563284e-34
6.140000e+02 6.779521e-34
6.150000e+02 8.256230e-34
6.160000e+02 1.004803e-33
6.170000e+02 1.222075e-33
6.180000e+02 1.485368e-33
6.190000e+02 1.804225e-33
6.200000e+02 2.190127e-33
6.210000e+02 2.656875e-33
6.220000e+02 3.221050e-33
6.230000e+02 3.902562e-33
6.240000e+02 4.725301e-33
6.250000e+02 5.717914e-33
6.260000e+02 6.914738e-33
6.270000e+02 8.356896e-33
6.280000e+02 1.009361e-32
6.290000e+02 1.218379e-32
6.300000e+02 1.469782e-32
6.310000e+02 1.771983e-32
6.320000e+02 2.135030e-32
6.330000e+02 2.570913e-32
6.340000e+02 3.093931e-32
6.350000e+02 3.721134e-32
6.360000e+02 4.472831e-32
6.370000e+02 5.373205e-32
6.380000e+02 6.451033e-32
6.390000e+02 7.740541e-32
6.400000e+02 9.282410e-32
6.410000e+02 1.112497e-31
6.420000e+02 1.332559e-31
6.430000e+02 1.595237e-31
6.440000e+02 1.908604e-31
6.450000e+02 2.282233e-31
6.460000e+02 2.727460e-31
6.470000e+02 3.257709e-31
6.480000e+02 3.888865e-31
6.490000e+02 4.639716e-31
6.500000e+02 5.532467e-31
6.510000e+02 6.593353e-31
6.520000e+02 7.853350e-31
6.530000e+02 9.349017e-31
6.540000e+02 1.112347e-30
6.550000e+02 1.322754e-30
6.560000e+02 1.572112e-30
6.570000e+02 1.867474e-30
6.580000e+02 2.217140e-30
6.590000e+02 2.630878e-30
6.600000e+02 3.120168e-30
6.610000e+02 3.698505e-30
6.620000e+02 4.381737e-30
6.630000e+02 5.188472e-30
6.640000e+02 6.140541e-30
6.650000e+02 7.263547e-30
6.660000e+02 8.587504e-30
6.670000e+02 1.014757e-29
6.680000e+02 1.198493e-29
6.690000e+02 1.414777e-29
6.700000e+02 1.669247e-29
6.710000e+02 1.968494e-29
6.720000e+02 2.320223e-29
6.730000e+02 2.733432e-29
6.740000e+02 3.218629e-29
6.750000e+02 3.788074e-29
6.760000e+02 4.456070e-29
6.770000e+02 5.239290e-29
6.780000e+02 6.157164e-29
6.790000e+02 7.232321e-29
6.800000e+02 8.491110e-29
6.810000e+02 9.964187e-29
6.820000e+02 1.168721e-28
6.830000e+02 1.370163e-28
6.840000e+02 1.605562e-28
6.850000e+02 1.880513e-28
6.860000e+02 2.201511e-28
6.870000e+02 2.576093e-28
6.880000e+02 3.013000e-28
6.890000e+02 3.522367e-28
6.900000e+02 4.115940e-28
6.910000e+02 4.807320e-28
6.920000e+02 5.612259e-28
6.930000e+02 6.548980e-28
6.940000e+02 7.638569e-28
6.950000e+02 8.905402e-28
6.960000e+02 1.037765e-27
6.970000e+02 1.208786e-27
6.980000e+02 1.407361e-27
6.990000e+02 1.637827e-27
7.000000e+02 1.905189e-27
7.010000e+02 2.215217e-27
7.020000e+02 2.574563e-27
7.030000e+02 2.990892e-27
7.040000e+02 3.473030e-27
7.050000e+02 4.031139e-27
7.060000e+02 4.676914e-27
7.070000e+02 5.423805e-27
7.080000e+02 6.287278e-27
7.090000e+02 7.285107e-27
7.100000e+02 8.437712e-27
7.110000e+02 9.768541e-27
7.120000e+02 1.130451e-26
7.130000e+02 1.307650e-26
7.140000e+02 1.511994e-26
7.150000e+02 1.747543e-26
7.160000e+02 2.018952e-26
7.170000e+02 2.331550e-26
7.180000e+02 2.691443e-26
7.190000e+02 3.105618e-26
7.200000e+02 3.582070e-26
7.210000e+02 4.129941e-26
7.220000e+02 4.759687e-26
7.230000e+02 5.483251e-26
7.240000e+02 6.314283e-26
7.250000e+02 7.268365e-26
7.260000e+02 8.363286e-26
7.270000e+02 9.619343e-26
7.280000e+02 1.105969e-25
7.290000e+02 1.271071e-25
7.300000e+02 1.460250e-25
7.310000e+02 1.676933e-25
7.320000e+02 1.925023e-25
7.330000e+02 2.208964e-25
7.340000e+02 2.533813e-25
7.350000e+02 2.905322e-25
7.360000e+02 3.330033e-25
7.370000e+02 3.815381e-25
7.380000e+02 4.369816e-25
7.390000e+02 5.002937e-25
7.400000e+02 5.725640e-25
7.410000e+02 6.550297e-25
7.420000e+02 7.490942e-25
7.430000e+02 8.563496e-25
7.440000e+02 9.786009e-25
7.450000e+02 1.117894e-24
7.460000e+02 1.276547e-24
7.470000e+02 1.457185e-24
7.480000e+02 1.662781e-24
7.490000e+02 1.896700e-24
7.500000e+02 2.162747e-24
7.510000e+02 2.465228e-24
7.520000e+02 2.809012e-24
7.530000e+02 3.199599e-24
7.540000e+02 3.643207e-24
7.550000e+02 4.146854e-24
7.560000e+02 4.718470e-24
7.570000e+02 5.367001e-24
7.580000e+02 6.102542e-24
7.590000e+02 6.936480e-24
7.600000e+02 7.881654e-24
7.610000e+02 8.952535e-24
7.620000e+02 1.016543e-23
7.630000e+02 1.153870e-23
7.640000e+02 1.309304e-23
7.650000e+02 1.485172e-23
7.660000e+02 1.684095e-23
7.670000e+02 1.909019e-23
7.680000e+02 2.163258e-23
7.690000e+02 2.450539e-23
7.700000e+02 2.775049e-23
7.710000e+02 3.141491e-23
7.720000e+02 3.555149e-23
7.730000e+02 4.021955e-23
7.740000e+02 4.548567e-23
7.750000e+02 5.142453e-23
7.760000e+02 5.811994e-23
7.770000e+02 6.566584e-23
7.780000e+02 7.416757e-23
7.790000e+02 8.374313e-23
7.800000e+02 9.452477e-23
7.810000e+02 1.066605e-22
7.820000e+02 1.203162e-22
7.830000e+02 1.356774e-22
7.840000e+02 1.529516e-22
7.850000e+02 1.723711e-22
7.860000e+02 1.941955e-22
7.870000e+02 2.187152e-22
7.880000e+02 2.462545e-22
7.890000e+02 2.771758e-22
7.900000e+02 3.118838e-22
7.910000e+02 3.508306e-22
7.920000e+02 3.945204e-22
7.930000e+02 4.435162e-22
7.940000e+02 4.984459e-22
7.950000e+02 5.600097e-22
7.960000e+02 6.289883e-22
7.970000e+02 7.062517e-22
7.980000e+02 7.927696e-22
7.990000e+02 8.896218e-22
8.000000e+02 9.980110e-22
8.010000e+02 1.119276e-21
8.020000e+02 1.254907e-21
8.030000e+02 1.406561e-21
8.040000e+02 1.576083e-21
8.050000e+02 1.765524e-21
8.060000e+02 1.977162e-21
8.070000e+02 2.213532e-21
8.080000e+02 2.477449e-21
8.090000e+02 2.772038e-21
8.100000e+02 3.100773e-21
8.110000e+02 3.467508e-21
8.120000e+02 3.876520e-21
8.130000e+02 4.332556e-21
8.140000e+02 4.840881e-21
8.150000e+02 5.407332e-21
8.160000e+02 6.038384e-21
8.170000e+02 6.741208e-21
8.180000e+02 7.523754e-21
8.190000e+02 8.394827e-21
8.200000e+02 9.364176e-21
8.210000e+02 1.044260e-20
8.220000e+02 1.164205e-20
8.230000e+02 1.297573e-20
8.240000e+02 1.445830e-20
8.250000e+02 1.610591e-20
8.260000e+02 1.793645e-20
8.270000e+02 1.996971e-20
8.280000e+02 2.222752e-20
8.290000e+02 2.473403e-20
8.300000e+02 2.751591e-20
8.310000e+02 3.060260e-20
8.320000e+02 3.402660e-20
8.330000e+02 3.782380e-20
8.340000e+02 4.203377e-20
8.350000e+02 4.670019e-20
8.360000e+02 5.187123e-20
8.370000e+02 5.759997e-20
8.380000e+02 6.394497e-20
8.390000e+02 7.097071e-20
8.400000e+02 7.874829e-20
8.410000e+02 8.735597e-20
8.420000e+02 9.687997e-20
8.430000e+02 1.074152e-19
8.440000e+02 1.190661e-19
8.450000e+02 1.319476e-19
8.460000e+02 1.461863e-19
8.470000e+02 1.619211e-19
8.480000e+02 1.793051e-19
8.490000e+02 1.985064e-19
8.500000e+02 2.197098e-19
8.510000e+02 2.431183e-19
8.520000e+02 2.689550e-19
8.530000e+02 2.974650e-19
8.540000e+02 3.289173e-19
8.550000e+02 3.636071e-19
8.560000e+02 4.018587e-19
8.570000e+02 4.440276e-19
8.580000e+02 4.905041e-19
8.590000e+02 5.417161e-19
8.600000e+02 5.981327e-19
8.610000e+02 6.602683e-19
8.620000e+02 7.286868e-19
8.630000e+02 8.040059e-19
8.640000e+02 8.869021e-19
8.650000e+02 9.781168e-19
8.660000e+02 1.078462e-18
8.670000e+02 1.188825e-18
8.680000e+02 1.310179e-18
8.690000e+02 1.443589e-18
8.700000e+02 1.590218e-18
8.710000e+02 1.751340e-18
8.720000e+02 1.928347e-18
8.730000e+02 2.122763e-18
8.740000e+02 2.336250e-18
8.750000e+02 2.570628e-18
8.760000e+02 2.827883e-18
8.770000e+02 3.110186e-18
8.780000e+02 3.419908e-18
8.790000e+02 3.759636e-18
8.800000e+02 4.132195e-18
8.810000e+02 4.540670e-18
8.820000e+02 4.988426e-18
8.830000e+02 5.479131e-18
8.840000e+02 6.016791e-18
8.850000e+02 6.605772e-18
8.860000e+02 7.250832e-18
8.870000e+02 7.957160e-18
8.880000e+02 8.730411e-18
8.890000e+02 9.576745e-18
8.900000e+02 1.050287e-17
8.910000e+02 1.151610e-17
8.920000e+02 1.262440e-17
8.930000e+02 1.383641e-17
8.940000e+02 1.516159e-17
8.950000e+02 1.661018e-17
8.960000e+02 1.819336e-17
8.970000e+02 1.992327e-17
8.980000e+02 2.181311e-17
8.990000e+02 2.387726e-17
9.000000e+02 2.613132e-17
9.010000e+02 2.859228e-17
9.020000e+02 3.127855e-17
9.030000e+02 3.421019e-17
9.040000e+02 3.740896e-17
9.050000e+02 4.089850e-17
9.060000e+02 4.470447e-17
9.070000e+02 4.885473e-17
9.080000e+02 5.337953e-17
9.090000e+02 5.831169e-17
9.100000e+02 6.368681e-17
9.110000e+02 6.954353e-17
9.120000e+02 7.592373e-17
9.130000e+02 8.287284e-17
9.140000e+02 9.875218e-17
9.150000e+02 2.002588e-14
9.160000e+02 1.699234e-13
9.170000e+02 2.094787e-14
9.180000e+02 2.682836e-14
9.190000e+02 5.602954e-13
9.200000e+02 1.876674e-12
9.210000e+02 1.658149e-16
9.220000e+02 2.752917e-12
9.230000e+02 9.307827e-15
9.240000e+02 3.376683e-14
9.250000e+02 1.180612e-12
9.260000e+02 4.456158e-14
9.270000e+02 4.574128e-14
9.280000e+02 1.688418e-11
9.290000e+02 1.582995e-11
9.300000e+02 2.643255e-12
9.310000e+02 2.765560e-14
9.320000e+02 1.223567e-11
9.330000e+02 1.453935e-11
9.340000e+02 4.028524e-12
9.350000e+02 1.744627e-14
9.360000e+02 3.071653e-13
9.370000e+02 7.207105e-15
9.380000e+02 1.221529e-14
9.390000e+02 1.284861e-12
9.400000e+02 3.690394e-11
9.410000e+02 1.660595e-12
9.420000e+02 7.457057e-11
9.430000e+02 3.451801e-12
9.440000e+02 8.773525e-11
9.450000e+02 8.629292e-11
9.460000e+02 4.410129e-11
9.470000e+02 1.628732e-14
9.480000e+02 2.119522e-11
9.490000e+02 1.391049e-12
9.500000e+02 1.788762e-14
9.510000e+02 9.773383e-12
9.520000e+02 4.773787e-11
9.530000e+02 5.001160e-13
9.540000e+02 1.841910e-14
9.550000e+02 6.711021e-12
9.560000e+02 1.549752e-10
9.570000e+02 1.540060e-12
9.580000e+02 7.105427e-15
9.590000e+02 1.599360e-10
9.600000e+02 6.051062e-14
9.610000e+02 1.506412e-10
9.620000e+02 6.149460e-11
9.630000e+02 1.820405e-12
9.640000e+02 6.951176e-13
9.650000e+02 7.921441e-14
9.660000e+02 7.858603e-12
9.670000e+02 6.671746e-13
9.680000e+02 4.707346e-13
9.690000e+02 3.384860e-11
9.700000e+02 6.882710e-11
9.710000e+02 1.182098e-12
9.720000e+02 1.552871e-13
9.730000e+02 3.236751e-13
9.740000e+02 1.779481e-11
9.750000e+02 1.836501e-11
9.760000e+02 2.928958e-10
9.770000e+02 3.535080e-10
9.780000e+02 2.882466e-10
9.790000e+02 8.327183e-10
9.800000e+02 9.203380e-10
9.810000e+02 1.760702e-10
9.820000e+02 2.007117e-11
9.830000e+02 1.210499e-09
9.840000e+02 1.544890e-11
9.850000e+02 5.655828e-11
9.860000e+02 8.311576e-11
9.870000e+02 1.454729e-09
9.880000e+02 4.128919e-13
9.890000e+02 9.963418e-10
9.900000e+02 1.542633e-09
9.910000e+02 2.845997e-11
9.920000e+02 8.280513e-14
9.930000e+02 1.969635e-09
9.940000e+02 8.293366e-14
9.950000e+02 4.950022e-11
9.960000e+02 2.508216e-12
9.970000e+02 1.532496e-11
9.980000e+02 2.376900e-09
9.990000e+02 3.607155e-11
1.000000e+03 4.149049e-09
1.001000e+03 3.481277e-09
1.002000e+03 4.305171e-09
1.003000e+03 3.187034e-11
1.004000e+03 6.354917e-13
1.005000e+03 2.679990e-10
1.006000e+03 4.981017e-09
1.007000e+03 5.760640e-09
1.008000e+03 4.828832e-09
1.009000e+03 3.942789e-11
1.010000e+03 4.482906e-09
1.011000e+03 4.063952e-09
1.012000e+03 5.813572e-09
1.013000e+03 6.015185e-09
1.014000e+03 4.498624e-13
1.015000e+03 1.905587e-12
1.016000e+03 3.529705e-10
1.017000e+03 3.397282e-13
1.018000e+03 4.471934e-11
1.019000e+03 1.524114e-12
1.020000e+03 3.785838e-09
1.021000e+03 1.190155e-10
1.022000e+03 2.030882e-10
1.023000e+03 6.905143e-12
1.024000e+03 1.414740e-10
1.025000e+03 5.219271e-13
1.026000e+03 7.348762e-13
1.027000e+03 6.086966e-11
1.028000e+03 4.318157e-12
1.029000e+03 8.684164e-13
1.030000e+03 1.000953e-09
1.031000e+03 6.077534e-09
1.032000e+03 1.636154e-08
1.033000e+03 5.185186e-11
1.034000e+03 7.607011e-09
1.035000e+03 2.827960e-12
1.036000e+03 2.252420e-12
1.037000e+03 6.842869e-08
1.038000e+03 1.371298e-07
1.039000e+03 1.065117e-07
1.040000e+03 5.518129e-08
1.041000e+03 1.683839e-07
1.042000e+03 2.035235e-07
1.043000e+03 1.193101e-07
1.044000e+03 3.057110e-07
1.045000e+03 3.595591e-12
1.046000e+03 8.104427e-08
1.047000e+03 5.967945e-08
1.048000e+03 1.586073e-10
1.049000e+03 4.061975e-08
1.050000e+03 2.982063e-09
1.051000e+03 1.122714e-09
1.052000e+03 4.086132e-07
1.053000e+03 4.559262e-07
1.054000e+03 5.314860e-12
1.055000e+03 4.402089e-07
1.056000e+03 5.439617e-07
1.057000e+03 1.731979e-07
1.058000e+03 1.006195e-09
1.059000e+03 7.362928e-10
1.060000e+03 2.234515e-10
1.061000e+03 4.844354e-07
1.062000e+03 4.800720e-10
1.063000e+03 4.963010e-09
1.064000e+03 1.068656e-11
1.065000e+03 9.492851e-12
1.066000e+03 4.037237e-07
1.067000e+03 1.567845e-09
1.068000e+03 1.215372e-06
1.069000e+03 2.267368e-10
1.070000e+03 2.803108e-08
1.071000e+03 8.261465e-07
1.072000e+03 1.655664e-06
1.073000e+03 2.944489e-11
1.074000e+03 3.337150e-07
1.075000e+03 1.777599e-07
1.076000e+03 1.202648e-06
1.077000e+03 3.223022e-10
1.078000e+03 1.782155e-09
1.079000e+03 1.796869e-08
1.080000e+03 2.023084e-07
1.081000e+03 1.709607e-06
1.082000e+03 1.045312e-06
1.083000e+03 5.100245e-07
1.084000e+03 3.074474e-06
1.085000e+03 4.899857e-08
1.086000e+03 3.115995e-06
1.087000e+03 4.554522e-09
1.088000e+03 3.762126e-06
1.089000e+03 3.985666e-06
1.090000e+03 3.573757e-08
1.091000e+03 9.327550e-08
1.092000e+03 4.176283e-06
1.093000e+03 4.815960e-06
1.094000e+03 7.322676e-07
1.095000e+03 5.521318e-06
1.096000e+03 4.864705e-08
1.097000e+03 5.044729e-06
1.098000e+03 5.526219e-06
1.099000e+03 1.581689e-07
1.100000e+03 5.928360e-10
1.101000e+03 2.213452e-09
1.102000e+03 1.535142e-07
1.103000e+03 8.188070e-06
1.104000e+03 8.020935e-06
1.105000e+03 8.857925e-06
1.106000e+03 1.363558e-06
1.107000e+03 2.080469e-09
1.108000e+03 7.796732e-06
1.109000e+03 6.360096e-08
1.110000e+03 1.007226e-05
1.111000e+03 9.622527e-06
1.112000e+03 5.319088e-06
1.113000e+03 6.077541e-06
1.114000e+03 2.508409e-06
1.115000e+03 4.412345e-08
1.116000e+03 6.004643e-09
1.117000e+03 1.496919e-05
1.118000e+03 1.272933e-07
1.119000e+03 4.709882e-06
1.120000e+03 1.876924e-08
1.121000e+03 1.537264e-05
1.122000e+03 2.376117e-05
1.123000e+03 3.164640e-05
1.124000e+03 4.497300e-05
1.125000e+03 2.816082e-05
1.126000e+03 3.462785e-05
1.127000e+03 2.331641e-05
1.128000e+03 1.906663e-05
1.129000e+03 1.273738e-05
1.130000e+03 2.010512e-05
1.131000e+03 1.305731e-05
1.132000e+03 3.355626e-08
1.133000e+03 1.871213e-06
1.134000e+03 1.340987e-05
1.135000e+03 1.437353e-05
1.136000e+03 2.856216e-06
1.137000e+03 1.133109e-05
1.138000e+03 1.032376e-05
1.139000e+03 1.349576e-05
1.140000e+03 1.241911e-05
1.141000e+03 1.276789e-05
1.142000e+03 1.268510e-05
1.143000e+03 7.638927e-06
1.144000e+03 1.222153e-05
1.145000e+03 2.293837e-08
1.146000e+03 1.307297e-05
1.147000e+03 1.316196e-05
1.148000e+03 4.244266e-07
1.149000e+03 1.228142e-05
1.150000e+03 1.213920e-05
1.151000e+03 1.224183e-05
1.152000e+03 1.112891e-05
1.153000e+03 1.164360e-05
1.154000e+03 1.131511e-05
1.155000e+03 1.084954e-05
1.156000e+03 7.741797e-06
1.157000e+03 1.013887e-05
1.158000e+03 8.206530e-06
1.159000e+03 1.039287e-05
1.160000e+03 9.256873e-06
1.161000e+03 9.372643e-06
1.162000e+03 1.947783e-06
1.163000e+03 5.794263e-06
1.164000e+03 1.465878e-08
1.165000e+03 4.764598e-06
1.166000e+03 2.278320e-06
1.167000e+03 1.421132e-06
1.168000e+03 1.074046e-05
1.169000e+03 1.099611e-05
1.170000e+03 1.508286e-06
1.171000e+03 4.307250e-06
1.172000e+03 3.369971e-06
1.173000e+03 2.807341e-06
1.174000e+03 1.777480e-07
1.175000e+03 1.330682e-08
1.176000e+03 5.082029e-09
1.177000e+03 1.470686e-05
1.178000e+03 1.371121e-05
1.179000e+03 1.287446e-05
1.180000e+03 1.174074e-05
1.181000e+03 1.138747e-05
1.182000e+03 1.099161e-05
1.183000e+03 1.023977e-05
1.184000e+03 9.811703e-06
1.185000e+03 9.393436e-06
1.186000e+03 1.093071e-06
1.187000e+03 8.880882e-06
1.188000e+03 8.353957e-06
1.189000e+03 8.436796e-06
1.190000e+03 8.181904e-06
1.191000e+03 7.682985e-06
1.192000e+03 6.858491e-06
1.193000e+03 6.839112e-06
1.194000e+03 6.562617e-06
1.195000e+03 6.250265e-06
1.196000e+03 2.402150e-04
1.197000e+03 2.155413e-04
1.198000e+03 7.827548e-06
1.199000e+03 1.638813e-04
1.200000e+03 4.194310e-05
1.201000e+03 1.151504e-04
1.202000e+03 9.047862e-05
1.203000e+03 7.540581e-05
1.204000e+03 3.371840e-05
1.205000e+03 4.418803e-05
1.206000e+03 3.219649e-05
1.207000e+03 3.140056e-06
1.208000e+03 1.335917e-05
1.209000e+03 9.325111e-06
1.210000e+03 3.465493e-08
1.211000e+03 2.989392e-06
1.212000e+03 1.404959e-06
1.213000e+03 5.729016e-07
1.214000e+03 1.734999e-07
1.215000e+03 3.338296e-08
1.216000e+03 3.022759e-08
1.217000e+03 1.144063e-07
1.218000e+03 4.916255e-07
1.219000e+03 1.406184e-06
1.220000e+03 3.266267e-06
1.221000e+03 7.032138e-06
1.222000e+03 1.343873e-05
1.223000e+03 2.264263e-05
1.224000e+03 3.291355e-05
1.225000e+03 1.193059e-05
1.226000e+03 8.281925e-05
1.227000e+03 1.224009e-04
1.228000e+03 1.257445e-04
1.229000e+03 2.255217e-04
1.230000e+03 2.108800e-04
1.231000e+03 1.022718e-04
1.232000e+03 4.543111e-04
1.233000e+03 5.615550e-04
1.234000e+03 5.967574e-04
1.235000e+03 7.936858e-04
1.236000e+03 5.511023e-04
1.237000e+03 1.064305e-03
1.238000e+03 1.214137e-03
1.239000e+03 1.260726e-03
1.240000e+03 1.264453e-04
1.241000e+03 1.381461e-03
1.242000e+03 1.849111e-03
1.243000e+03 2.043833e-03
1.244000e+03 2.235621e-03
1.245000e+03 2.381298e-03
1.246000e+03 2.482356e-03
1.247000e+03 2.691352e-03
1.248000e+03 2.090238e-03
1.249000e+03 3.120616e-03
1.250000e+03 2.554839e-03
1.251000e+03 3.517874e-03
1.252000e+03 3.456378e-03
1.253000e+03 3.732361e-03
1.254000e+03 3.619840e-03
1.255000e+03 4.222009e-04
1.256000e+03 2.831805e-03
1.257000e+03 1.589463e-03
1.258000e+03 3.704191e-03
1.259000e+03 4.064735e-03
1.260000e+03 4.302817e-03
1.261000e+03 2.873503e-05
1.262000e+03 4.431843e-03
1.263000e+03 4.029308e-03
1.264000e+03 3.867190e-03
1.265000e+03 4.523177e-03
1.266000e+03 5.724005e-03
1.267000e+03 6.238619e-03
