# wavelength_A flux
5.000000e+02 2.257412e-25
5.010000e+02 2.769564e-25
5.020000e+02 3.395094e-25
5.030000e+02 4.158475e-25
5.040000e+02 5.089329e-25
5.050000e+02 6.512350e-25
5.060000e+02 7.951059e-25
5.070000e+02 9.695550e-25
5.080000e+02 1.182052e-24
5.090000e+02 1.439539e-24
5.100000e+02 1.662394e-24
5.110000e+02 2.130075e-24
5.120000e+02 2.587006e-24
5.130000e+02 3.142205e-24
5.140000e+02 3.812084e-24
5.150000e+02 4.621220e-24
5.160000e+02 5.597847e-24
5.170000e+02 6.776304e-24
5.180000e+02 8.196481e-24
5.190000e+02 9.906979e-24
5.200000e+02 1.196567e-23
5.210000e+02 1.444160e-23
5.220000e+02 1.741289e-23
5.230000e+02 2.099091e-23
5.240000e+02 2.528025e-23
5.250000e+02 3.042403e-23
5.260000e+02 3.658845e-23
5.270000e+02 4.397090e-23
5.280000e+02 5.280591e-23
5.290000e+02 6.337148e-23
5.300000e+02 7.599953e-23
5.310000e+02 9.108049e-23
5.320000e+02 1.090792e-22
5.330000e+02 1.305457e-22
5.340000e+02 1.561307e-22
5.350000e+02 1.866036e-22
5.360000e+02 2.228718e-22
5.370000e+02 2.615742e-22
5.380000e+02 3.172998e-22
5.390000e+02 3.782284e-22
5.400000e+02 4.505540e-22
5.410000e+02 5.363323e-22
5.420000e+02 6.380876e-22
5.430000e+02 7.586214e-22
5.440000e+02 9.013434e-22
5.450000e+02 1.070231e-21
5.460000e+02 1.269952e-21
5.470000e+02 1.505999e-21
5.480000e+02 1.784790e-21
5.490000e+02 2.113866e-21
5.500000e+02 2.502057e-21
5.510000e+02 2.959700e-21
5.520000e+02 3.498890e-21
5.530000e+02 4.133772e-21
5.540000e+02 4.880875e-21
5.550000e+02 5.759505e-21
5.560000e+02 6.792198e-21
5.570000e+02 8.005245e-21
5.580000e+02 9.429295e-21
5.590000e+02 1.110007e-20
5.600000e+02 1.305916e-20
5.610000e+02 1.535497e-20
5.620000e+02 1.804383e-20
5.630000e+02 2.119120e-20
5.640000e+02 2.487314e-20
5.650000e+02 2.917799e-20
5.660000e+02 3.420826e-20
5.670000e+02 4.008288e-20
5.680000e+02 4.693970e-20
5.690000e+02 5.493845e-20
5.700000e+02 6.426411e-20
5.710000e+02 7.513079e-20
5.720000e+02 8.778611e-20
5.730000e+02 1.025164e-19
5.740000e+02 1.196525e-19
5.750000e+02 1.395766e-19
5.760000e+02 1.627283e-19
5.770000e+02 1.896244e-19
5.780000e+02 2.208404e-19
5.790000e+02 2.570571e-19
5.800000e+02 2.990533e-19
5.810000e+02 3.477256e-19
5.820000e+02 4.041052e-19
5.830000e+02 4.693751e-19
5.840000e+02 5.447689e-19
5.850000e+02 6.322358e-19
5.860000e+02 7.332573e-19
5.870000e+02 8.499391e-19
5.880000e+02 9.846787e-19
5.890000e+02 1.140195e-18
5.900000e+02 1.319603e-18
5.910000e+02 1.526468e-18
5.920000e+02 1.764874e-18
5.930000e+02 2.039495e-18
5.940000e+02 2.355676e-18
5.950000e+02 2.719526e-18
5.960000e+02 3.138028e-18
5.970000e+02 3.619158e-18
5.980000e+02 4.172020e-18
5.990000e+02 4.807003e-18
6.000000e+02 5.535955e-18
6.010000e+02 6.372385e-18
6.020000e+02 7.331682e-18
6.030000e+02 8.431378e-18
6.040000e+02 9.691428e-18
6.050000e+02 1.113454e-17
6.060000e+02 1.278654e-17
6.070000e+02 1.467679e-17
6.080000e+02 1.683866e-17
6.090000e+02 1.931004e-17
6.100000e+02 2.213395e-17
6.110000e+02 2.535923e-17
6.120000e+02 2.904124e-17
6.130000e+02 3.324279e-17
6.140000e+02 3.803505e-17
6.150000e+02 4.349861e-17
6.160000e+02 4.972476e-17
6.170000e+02 5.681683e-17
6.180000e+02 6.489169e-17
6.190000e+02 7.408153e-17
6.200000e+02 8.453576e-17
6.210000e+02 9.642321e-17
6.220000e+02 1.099345e-16
6.230000e+02 1.252850e-16
6.240000e+02 1.427175e-16
6.250000e+02 1.625061e-16
6.260000e+02 1.849598e-16
6.270000e+02 2.104266e-16
6.280000e+02 2.392990e-16
6.290000e+02 2.720188e-16
6.300000e+02 3.090830e-16
6.310000e+02 3.509569e-16
6.320000e+02 3.985541e-16
6.330000e+02 4.522975e-16
6.340000e+02 5.130782e-16
6.350000e+02 5.817848e-16
6.360000e+02 6.594335e-16
6.370000e+02 7.471382e-16
6.380000e+02 8.461671e-16
6.390000e+02 9.579380e-16
6.400000e+02 1.084041e-15
6.410000e+02 1.226257e-15
6.420000e+02 1.386583e-15
6.430000e+02 1.567254e-15
6.440000e+02 1.770774e-15
6.450000e+02 1.999944e-15
6.460000e+02 2.257897e-15
6.470000e+02 2.548137e-15
6.480000e+02 2.874582e-15
6.490000e+02 3.241608e-15
6.500000e+02 3.654106e-15
6.510000e+02 4.117536e-15
6.520000e+02 4.637990e-15
6.530000e+02 5.222269e-15
6.540000e+02 5.877958e-15
6.550000e+02 6.613513e-15
6.560000e+02 7.438359e-15
6.570000e+02 8.362999e-15
6.580000e+02 9.399131e-15
6.590000e+02 1.055978e-14
6.600000e+02 1.185943e-14
6.610000e+02 1.331423e-14
6.620000e+02 1.494210e-14
6.630000e+02 1.676300e-14
6.640000e+02 1.879908e-14
6.650000e+02 2.107498e-14
6.660000e+02 2.361810e-14
6.670000e+02 2.645873e-14
6.680000e+02 2.963063e-14
6.690000e+02 3.317119e-14
6.700000e+02 3.712193e-14
6.710000e+02 4.152883e-14
6.720000e+02 4.644291e-14
6.730000e+02 5.192067e-14
6.740000e+02 5.802470e-14
6.750000e+02 6.482433e-14
6.760000e+02 7.239629e-14
6.770000e+02 8.082548e-14
6.780000e+02 9.020586e-14
6.790000e+02 1.006413e-13
6.800000e+02 1.122467e-13
6.810000e+02 1.251489e-13
6.820000e+02 1.394883e-13
6.830000e+02 1.554196e-13
6.840000e+02 1.731141e-13
6.850000e+02 1.927603e-13
6.860000e+02 2.145668e-13
6.870000e+02 2.387632e-13
6.880000e+02 2.656030e-13
6.890000e+02 2.953656e-13
6.900000e+02 3.283589e-13
6.910000e+02 3.649221e-13
6.920000e+02 4.054289e-13
6.930000e+02 4.502907e-13
6.940000e+02 4.999603e-13
6.950000e+02 5.549361e-13
6.960000e+02 6.157664e-13
6.970000e+02 6.830540e-13
6.980000e+02 7.574618e-13
6.990000e+02 8.397183e-13
7.000000e+02 9.306243e-13
7.010000e+02 1.031059e-12
7.020000e+02 1.141988e-12
7.030000e+02 1.264471e-12
7.040000e+02 1.399673e-12
7.050000e+02 1.548869e-12
7.060000e+02 1.713448e-12
7.070000e+02 1.894982e-12
7.080000e+02 2.095118e-12
7.090000e+02 2.315712e-12
7.100000e+02 2.558786e-12
7.110000e+02 2.826555e-12
7.120000e+02 3.121441e-12
7.130000e+02 3.446100e-12
7.140000e+02 3.803435e-12
7.150000e+02 4.196626e-12
7.160000e+02 4.629147e-12
7.170000e+02 5.104800e-12
7.180000e+02 5.627741e-12
7.190000e+02 6.202511e-12
7.200000e+02 6.834072e-12
7.210000e+02 7.527846e-12
7.220000e+02 8.289749e-12
7.230000e+02 9.126248e-12
7.240000e+02 1.004439e-11
7.250000e+02 1.105188e-11
7.260000e+02 1.215711e-11
7.270000e+02 1.336924e-11
7.280000e+02 1.469825e-11
7.290000e+02 1.615502e-11
7.300000e+02 1.775141e-11
7.310000e+02 1.950035e-11
7.320000e+02 2.141591e-11
7.330000e+02 2.351341e-11
7.340000e+02 2.580953e-11
7.350000e+02 2.832243e-11
7.360000e+02 3.107187e-11
7.370000e+02 3.407933e-11
7.380000e+02 3.736820e-11
7.390000e+02 4.096387e-11
7.400000e+02 4.489398e-11
7.410000e+02 4.918854e-11
7.420000e+02 5.388017e-11
7.430000e+02 5.900429e-11
7.440000e+02 6.459937e-11
7.450000e+02 7.070717e-11
7.460000e+02 7.737304e-11
7.470000e+02 8.464615e-11
7.480000e+02 9.257988e-11
7.490000e+02 1.012321e-10
7.500000e+02 1.106656e-10
7.510000e+02 1.209484e-10
7.520000e+02 1.321543e-10
7.530000e+02 1.443632e-10
7.540000e+02 1.576617e-10
7.550000e+02 1.721435e-10
7.560000e+02 1.879101e-10
7.570000e+02 2.050716e-10
7.580000e+02 2.237470e-10
7.590000e+02 2.440648e-10
7.600000e+02 2.661645e-10
7.610000e+02 2.901967e-10
7.620000e+02 3.163243e-10
7.630000e+02 3.447234e-10
7.640000e+02 3.755845e-10
7.650000e+02 4.091130e-10
7.660000e+02 4.455316e-10
7.670000e+02 4.850801e-10
7.680000e+02 5.280178e-10
7.690000e+02 5.746238e-10
7.700000e+02 6.252026e-10
7.710000e+02 6.800780e-10
7.720000e+02 7.396025e-10
7.730000e+02 8.041557e-10
7.740000e+02 8.741468e-10
7.750000e+02 9.500173e-10
7.760000e+02 1.032243e-09
7.770000e+02 1.121336e-09
7.780000e+02 1.217850e-09
7.790000e+02 1.322380e-09
7.800000e+02 1.435567e-09
7.810000e+02 1.558102e-09
7.820000e+02 1.690727e-09
7.830000e+02 1.834244e-09
7.840000e+02 1.989514e-09
7.850000e+02 2.157463e-09
7.860000e+02 2.339089e-09
7.870000e+02 2.535464e-09
7.880000e+02 2.747741e-09
7.890000e+02 2.977160e-09
7.900000e+02 3.225054e-09
7.910000e+02 3.492853e-09
7.920000e+02 3.782097e-09
7.930000e+02 4.094442e-09
7.940000e+02 4.431661e-09
7.950000e+02 4.795659e-09
7.960000e+02 5.188485e-09
7.970000e+02 5.612335e-09
7.980000e+02 6.069568e-09
7.990000e+02 6.562713e-09
8.000000e+02 7.094485e-09
8.010000e+02 7.667794e-09
8.020000e+02 8.285762e-09
8.030000e+02 8.951737e-09
8.040000e+02 9.669306e-09
8.050000e+02 1.044203e-08
8.060000e+02 1.127488e-08
8.070000e+02 1.217142e-08
8.080000e+02 1.313666e-08
8.090000e+02 1.417567e-08
8.100000e+02 1.529386e-08
8.110000e+02 1.649705e-08
8.120000e+02 1.779143e-08
8.130000e+02 1.918367e-08
8.140000e+02 2.068086e-08
8.150000e+02 2.229063e-08
8.160000e+02 2.402111e-08
8.170000e+02 2.588099e-08
8.180000e+02 2.787959e-08
8.190000e+02 3.002685e-08
8.200000e+02 3.233340e-08
8.210000e+02 3.481059e-08
8.220000e+02 3.747056e-08
8.230000e+02 4.032628e-08
8.240000e+02 4.339157e-08
8.250000e+02 4.668124e-08
8.260000e+02 5.021105e-08
8.270000e+02 5.399786e-08
8.280000e+02 5.805964e-08
8.290000e+02 6.241557e-08
8.300000e+02 6.708613e-08
8.310000e+02 7.209314e-08
8.320000e+02 7.745989e-08
8.330000e+02 8.321121e-08
8.340000e+02 8.937356e-08
8.350000e+02 9.597510e-08
8.360000e+02 1.030461e-07
8.370000e+02 1.106184e-07
8.380000e+02 1.187262e-07
8.390000e+02 1.274059e-07
8.400000e+02 1.366961e-07
8.410000e+02 1.466383e-07
8.420000e+02 1.572762e-07
8.430000e+02 1.686566e-07
8.440000e+02 1.808293e-07
8.450000e+02 1.938472e-07
8.460000e+02 2.077667e-07
8.470000e+02 2.226477e-07
8.480000e+02 2.385539e-07
8.490000e+02 2.555532e-07
8.500000e+02 2.737175e-07
8.510000e+02 2.931237e-07
8.520000e+02 3.138531e-07
8.530000e+02 3.359924e-07
8.540000e+02 3.596334e-07
8.550000e+02 3.848741e-07
8.560000e+02 4.118181e-07
8.570000e+02 4.405758e-07
8.580000e+02 4.712641e-07
8.590000e+02 5.040082e-07
8.600000e+02 5.389392e-07
8.610000e+02 5.761975e-07
8.620000e+02 6.159319e-07
8.630000e+02 6.583002e-07
8.640000e+02 7.034698e-07
8.650000e+02 7.516186e-07
8.660000e+02 8.029347e-07
8.670000e+02 8.576179e-07
8.680000e+02 9.158802e-07
8.690000e+02 9.779461e-07
8.700000e+02 1.044053e-06
8.710000e+02 1.114455e-06
8.720000e+02 1.189418e-06
8.730000e+02 1.269226e-06
8.740000e+02 1.354178e-06
8.750000e+02 1.444594e-06
8.760000e+02 1.540808e-06
8.770000e+02 1.643179e-06
8.780000e+02 1.752082e-06
8.790000e+02 1.867919e-06
8.800000e+02 1.991112e-06
8.810000e+02 2.122107e-06
8.820000e+02 2.261380e-06
8.830000e+02 2.409431e-06
8.840000e+02 2.566790e-06
8.850000e+02 2.734018e-06
8.860000e+02 2.911707e-06
8.870000e+02 3.100484e-06
8.880000e+02 3.301013e-06
8.890000e+02 3.513993e-06
8.900000e+02 3.740166e-06
8.910000e+02 3.980313e-06
8.920000e+02 4.235263e-06
8.930000e+02 4.505887e-06
8.940000e+02 4.793109e-06
8.950000e+02 5.097905e-06
8.960000e+02 5.421302e-06
8.970000e+02 5.764389e-06
8.980000e+02 6.128312e-06
8.990000e+02 6.514284e-06
9.000000e+02 6.923581e-06
9.010000e+02 7.357555e-06
9.020000e+02 7.817627e-06
9.030000e+02 8.305295e-06
9.040000e+02 8.822163e-06
9.050000e+02 9.369885e-06
9.060000e+02 9.950227e-06
9.070000e+02 1.056505e-05
9.080000e+02 1.121631e-05
9.090000e+02 1.190608e-05
9.100000e+02 1.263653e-05
9.110000e+02 1.340996e-05
9.120000e+02 1.422880e-05
9.130000e+02 1.509555e-05
9.140000e+02 1.669454e-05
9.150000e+02 3.654991e-03
9.160000e+02 1.368583e-02
9.170000e+02 3.622941e-04
9.180000e+02 4.899938e-03
9.190000e+02 3.717602e-02
9.200000e+02 8.967702e-02
9.210000e+02 2.411022e-05
9.220000e+02 1.736737e-02
9.230000e+02 4.690986e-04
9.240000e+02 6.513745e-04
9.250000e+02 3.431642e-03
9.260000e+02 6.344369e-03
9.270000e+02 4.929060e-04
9.280000e+02 2.957303e-01
9.290000e+02 4.033518e-01
9.300000e+02 1.083869e-01
9.310000e+02 5.721825e-04
9.320000e+02 3.349904e-01
9.330000e+02 1.470533e-02
9.340000e+02 5.271137e-03
9.350000e+02 2.496294e-03
9.360000e+02 1.083625e-03
9.370000e+02 3.791237e-04
9.380000e+02 1.484213e-03
9.390000e+02 2.429563e-03
9.400000e+02 1.223343e-01
9.410000e+02 2.378529e-02
9.420000e+02 1.091013e+00
9.430000e+02 3.500178e-03
9.440000e+02 1.295249e+00
9.450000e+02 9.310700e-01
9.460000e+02 4.247196e-02
9.470000e+02 2.885759e-04
9.480000e+02 3.200082e-01
9.490000e+02 6.633515e-02
9.500000e+02 2.652169e-03
9.510000e+02 3.586948e-02
9.520000e+02 6.549430e-02
9.530000e+02 9.670132e-04
9.540000e+02 3.450668e-04
9.550000e+02 9.187102e-03
9.560000e+02 1.031819e+00
9.570000e+02 5.156726e-03
9.580000e+02 2.314663e-04
9.590000e+02 3.783353e-01
9.600000e+02 4.768273e-03
9.610000e+02 5.143413e-02
9.620000e+02 2.107853e-02
9.630000e+02 7.384866e-03
9.640000e+02 1.319151e-03
9.650000e+02 7.894039e-04
9.660000e+02 1.006007e-02
9.670000e+02 2.440289e-03
9.680000e+02 1.657218e-03
9.690000e+02 4.978848e-02
9.700000e+02 4.473476e-02
9.710000e+02 3.162161e-03
9.720000e+02 2.324563e-03
9.730000e+02 2.023030e-02
9.740000e+02 5.825574e-02
9.750000e+02 1.821407e-02
9.760000e+02 3.733301e-01
9.770000e+02 1.874405e-01
9.780000e+02 7.062010e-02
9.790000e+02 3.516572e+00
9.800000e+02 3.083818e+00
9.810000e+02 5.829167e-02
9.820000e+02 1.282400e-02
9.830000e+02 1.233794e+00
9.840000e+02 2.582169e-01
9.850000e+02 3.153633e-02
9.860000e+02 4.566136e-02
9.870000e+02 1.506466e+00
9.880000e+02 2.066493e-03
9.890000e+02 2.175661e-01
9.900000e+02 5.477424e-01
9.910000e+02 1.151046e-02
9.920000e+02 1.235247e-03
9.930000e+02 7.099404e+00
9.940000e+02 3.161065e-03
9.950000e+02 4.274078e-01
9.960000e+02 5.397558e-03
9.970000e+02 4.096503e-01
9.980000e+02 6.474108e-01
9.990000e+02 2.248247e-02
1.000000e+03 1.167934e+01
1.001000e+03 8.870539e+00
1.002000e+03 3.958481e+00
1.003000e+03 2.502108e-02
1.004000e+03 3.813744e-03
1.005000e+03 6.562805e-02
1.006000e+03 2.332380e+00
1.007000e+03 5.065866e+00
1.008000e+03 1.112820e+00
1.009000e+03 3.894509e-02
1.010000e+03 1.228212e+00
1.011000e+03 2.445031e+00
1.012000e+03 1.481941e+00
1.013000e+03 1.282462e+00
1.014000e+03 3.476262e-03
1.015000e+03 5.876541e-03
1.016000e+03 7.715046e-02
1.017000e+03 3.817558e-03
1.018000e+03 3.933525e-02
1.019000e+03 6.202698e-03
1.020000e+03 4.336365e+00
1.021000e+03 5.175734e-02
1.022000e+03 7.732582e-02
1.023000e+03 1.004577e-02
1.024000e+03 1.413833e+00
1.025000e+03 5.383179e-03
1.026000e+03 1.245158e-02
1.027000e+03 2.822331e-01
1.028000e+03 7.554436e-02
1.029000e+03 6.796837e-03
1.030000e+03 3.372698e-01
1.031000e+03 3.938580e-01
1.032000e+03 4.162697e+00
1.033000e+03 5.314761e-01
1.034000e+03 6.222093e-01
1.035000e+03 5.183506e-02
1.036000e+03 9.852886e-03
1.037000e+03 3.188621e+00
1.038000e+03 2.001543e+01
1.039000e+03 3.377319e+00
1.040000e+03 4.132854e+00
1.041000e+03 3.299862e+01
1.042000e+03 1.153936e+01
1.043000e+03 1.185656e+01
1.044000e+03 8.571437e+01
1.045000e+03 4.000421e-02
1.046000e+03 4.530346e+00
1.047000e+03 1.196896e+00
1.048000e+03 5.728722e-02
1.049000e+03 1.439762e+00
1.050000e+03 5.800800e-01
1.051000e+03 3.367062e-01
1.052000e+03 1.247138e+01
1.053000e+03 3.120115e+01
1.054000e+03 2.064514e-02
1.055000e+03 4.421862e+01
1.056000e+03 4.449548e+01
1.057000e+03 3.104619e+00
1.058000e+03 3.820664e-01
1.059000e+03 2.267513e-01
1.060000e+03 9.001255e-02
1.061000e+03 4.574677e+00
1.062000e+03 2.204589e-01
1.063000e+03 4.570089e+00
1.064000e+03 7.038879e-02
1.065000e+03 3.345490e-02
1.066000e+03 6.439361e+00
1.067000e+03 1.966930e-01
1.068000e+03 1.204938e+02
1.069000e+03 7.756609e-02
1.070000e+03 2.452576e+00
1.071000e+03 3.084602e+01
1.072000e+03 5.864809e+01
1.073000e+03 5.178070e-02
1.074000e+03 3.316072e+00
1.075000e+03 2.057129e+00
1.076000e+03 6.943892e+01
1.077000e+03 2.989664e-01
1.078000e+03 4.980469e-01
1.079000e+03 1.795935e+00
1.080000e+03 4.842597e+00
1.081000e+03 1.503882e+01
1.082000e+03 9.879135e+00
1.083000e+03 5.797409e+00
1.084000e+03 2.263441e+02
1.085000e+03 1.893555e+00
1.086000e+03 1.414042e+02
1.087000e+03 4.783478e-01
1.088000e+03 3.756683e+02
1.089000e+03 3.470965e+02
1.090000e+03 1.539993e+00
1.091000e+03 1.958618e+00
1.092000e+03 1.828618e+02
1.093000e+03 2.248110e+02
1.094000e+03 1.550388e+01
1.095000e+03 4.320309e+02
1.096000e+03 7.202955e+01
1.097000e+03 4.263595e+01
1.098000e+03 3.548350e+02
1.099000e+03 5.426941e+00
1.100000e+03 2.584305e-01
1.101000e+03 5.104667e-01
1.102000e+03 3.146191e+00
1.103000e+03 2.403011e+02
1.104000e+03 5.766970e+02
1.105000e+03 3.548017e+02
1.106000e+03 1.297530e+01
1.107000e+03 3.371277e-01
1.108000e+03 6.161947e+01
1.109000e+03 1.983322e+00
1.110000e+03 7.196642e+02
1.111000e+03 1.850237e+02
1.112000e+03 3.169824e+01
1.113000e+03 3.948450e+02
1.114000e+03 2.089727e+01
1.115000e+03 2.894052e+00
1.116000e+03 1.627426e+00
1.117000e+03 1.775742e+02
1.118000e+03 3.122570e+00
1.119000e+03 4.293354e+01
1.120000e+03 1.855774e+00
1.121000e+03 1.348501e+02
1.122000e+03 7.223694e+02
1.123000e+03 2.595979e+02
1.124000e+03 2.874496e+02
1.125000e+03 1.307018e+02
1.126000e+03 1.681897e+03
1.127000e+03 2.178985e+02
1.128000e+03 8.521796e+02
1.129000e+03 9.262036e+01
1.130000e+03 4.449847e+02
1.131000e+03 8.292388e+02
1.132000e+03 3.297295e+00
1.133000e+03 1.168573e+01
1.134000e+03 9.917761e+01
1.135000e+03 5.763635e+02
1.136000e+03 2.560474e+01
1.137000e+03 3.682834e+02
1.138000e+03 8.803354e+01
1.139000e+03 8.542062e+02
1.140000e+03 1.062018e+03
1.141000e+03 6.273597e+02
1.142000e+03 1.239060e+03
1.143000e+03 1.549244e+02
1.144000e+03 1.152100e+03
1.145000e+03 1.996582e+00
1.146000e+03 1.491402e+03
1.147000e+03 8.540250e+02
1.148000e+03 9.042908e+00
1.149000e+03 4.283656e+02
1.150000e+03 2.503235e+02
1.151000e+03 1.394128e+03
1.152000e+03 6.961078e+02
1.153000e+03 8.975994e+02
1.154000e+03 1.557212e+03
1.155000e+03 3.532315e+02
1.156000e+03 1.355080e+03
1.157000e+03 1.538732e+03
1.158000e+03 1.675015e+02
1.159000e+03 1.132520e+03
1.160000e+03 1.737726e+02
1.161000e+03 9.749413e+02
1.162000e+03 3.294098e+01
1.163000e+03 8.887976e+01
1.164000e+03 1.494815e+01
1.165000e+03 5.430101e+02
1.166000e+03 3.114156e+02
1.167000e+03 2.891206e+02
1.168000e+03 1.573212e+03
1.169000e+03 1.742270e+03
1.170000e+03 2.305569e+02
1.171000e+03 7.298829e+02
1.172000e+03 2.464523e+02
1.173000e+03 7.844578e+02
1.174000e+03 9.360626e+00
1.175000e+03 9.608322e+00
1.176000e+03 3.713318e+00
1.177000e+03 2.129964e+03
1.178000e+03 2.111589e+03
1.179000e+03 1.541954e+03
1.180000e+03 5.040253e+02
1.181000e+03 1.932074e+03
1.182000e+03 1.381849e+03
1.183000e+03 5.836249e+02
1.184000e+03 4.672682e+02
1.185000e+03 6.581328e+02
1.186000e+03 3.919502e+01
1.187000e+03 9.835159e+02
1.188000e+03 3.387161e+02
1.189000e+03 1.646484e+03
1.190000e+03 1.515537e+03
1.191000e+03 8.762286e+02
1.192000e+03 1.230192e+03
1.193000e+03 7.553832e+02
1.194000e+03 1.167124e+03
1.195000e+03 1.119945e+03
1.196000e+03 2.820563e+03
1.197000e+03 6.763056e+03
1.198000e+03 1.006225e+02
1.199000e+03 6.551630e+03
1.200000e+03 2.405508e+02
1.201000e+03 5.141761e+03
1.202000e+03 9.690661e+02
1.203000e+03 3.269554e+03
1.204000e+03 2.269239e+02
1.205000e+03 2.347107e+03
1.206000e+03 2.689064e+03
1.207000e+03 9.115079e+02
1.208000e+03 1.647844e+03
1.209000e+03 1.754506e+03
1.210000e+03 1.509552e+01
1.211000e+03 8.108491e+02
1.212000e+03 3.343087e+02
1.213000e+03 2.526463e+02
1.214000e+03 8.709505e+01
1.215000e+03 1.439740e+01
1.216000e+03 8.923488e+00
1.217000e+03 5.615754e+01
1.218000e+03 2.127903e+02
1.219000e+03 4.873984e+02
1.220000e+03 2.417934e+02
1.221000e+03 1.430758e+03
1.222000e+03 1.463145e+03
1.223000e+03 1.402688e+03
1.224000e+03 3.753654e+03
1.225000e+03 1.490698e+02
1.226000e+03 6.335249e+03
1.227000e+03 6.202651e+03
1.228000e+03 7.356426e+02
1.229000e+03 4.550370e+03
1.230000e+03 3.107866e+03
1.231000e+03 4.905234e+02
1.232000e+03 1.361189e+04
1.233000e+03 1.550957e+04
1.234000e+03 1.439365e+04
1.235000e+03 1.112611e+04
1.236000e+03 1.045630e+03
1.237000e+03 1.691589e+04
1.238000e+03 1.241806e+04
1.239000e+03 5.667829e+03
1.240000e+03 1.200881e+04
1.241000e+03 5.374523e+03
1.242000e+03 1.130806e+04
1.243000e+03 2.180117e+04
1.244000e+03 2.544346e+04
1.245000e+03 1.929771e+04
1.246000e+03 1.048631e+04
1.247000e+03 1.496997e+04
1.248000e+03 2.528854e+04
1.249000e+03 3.160883e+04
1.250000e+03 1.930905e+04
1.251000e+03 2.922848e+04
1.252000e+03 1.820442e+04
1.253000e+03 3.201387e+04
1.254000e+03 2.008764e+04
1.255000e+03 1.650656e+04
1.256000e+03 1.660513e+04
1.257000e+03 2.425104e+04
1.258000e+03 7.442344e+03
1.259000e+03 1.296561e+04
1.260000e+03 3.231374e+04
1.261000e+03 3.080793e+03
1.262000e+03 3.853332e+04
1.263000e+03 2.622001e+04
1.264000e+03 1.004615e+04
1.265000e+03 5.634963e+03
1.266000e+03 3.379964e+04
1.267000e+03 1.440578e+04
