# wavelength_A flux
5.000000e+02 1.102043e-12
5.010000e+02 1.274929e-12
5.020000e+02 1.474052e-12
5.030000e+02 1.703262e-12
5.040000e+02 1.966950e-12
5.050000e+02 2.418801e-12
5.060000e+02 2.788932e-12
5.070000e+02 3.213846e-12
5.080000e+02 3.701375e-12
5.090000e+02 4.260909e-12
5.100000e+02 4.901694e-12
5.110000e+02 5.635666e-12
5.120000e+02 6.475910e-12
5.130000e+02 7.437264e-12
5.140000e+02 8.536631e-12
5.150000e+02 9.792940e-12
5.160000e+02 1.122838e-11
5.170000e+02 1.286535e-11
5.180000e+02 1.473678e-11
5.190000e+02 1.686917e-11
5.200000e+02 1.929979e-11
5.210000e+02 2.206879e-11
5.220000e+02 2.521469e-11
5.230000e+02 2.880992e-11
5.240000e+02 3.289160e-11
5.250000e+02 3.753297e-11
5.260000e+02 4.280628e-11
5.270000e+02 4.879539e-11
5.280000e+02 5.559404e-11
5.290000e+02 6.326215e-11
5.300000e+02 7.205544e-11
5.310000e+02 8.197042e-11
5.320000e+02 9.320433e-11
5.330000e+02 1.059242e-10
5.340000e+02 1.203206e-10
5.350000e+02 1.366060e-10
5.360000e+02 1.550176e-10
5.370000e+02 1.702927e-10
5.380000e+02 1.993277e-10
5.390000e+02 2.258868e-10
5.400000e+02 2.558442e-10
5.410000e+02 2.895841e-10
5.420000e+02 3.277276e-10
5.430000e+02 3.706790e-10
5.440000e+02 4.190495e-10
5.450000e+02 4.735120e-10
5.460000e+02 5.345725e-10
5.470000e+02 6.037569e-10
5.480000e+02 6.812829e-10
5.490000e+02 7.684197e-10
5.500000e+02 8.663087e-10
5.510000e+02 9.762303e-10
5.520000e+02 1.099608e-09
5.530000e+02 1.238030e-09
5.540000e+02 1.393261e-09
5.550000e+02 1.567266e-09
5.560000e+02 1.762228e-09
5.570000e+02 1.980587e-09
5.580000e+02 2.225042e-09
5.590000e+02 2.498596e-09
5.600000e+02 2.804582e-09
5.610000e+02 3.146702e-09
5.620000e+02 3.529054e-09
5.630000e+02 3.956211e-09
5.640000e+02 4.433195e-09
5.650000e+02 4.965644e-09
5.660000e+02 5.559743e-09
5.670000e+02 6.222357e-09
5.680000e+02 6.961092e-09
5.690000e+02 7.784360e-09
5.700000e+02 8.701457e-09
5.710000e+02 9.722699e-09
5.720000e+02 1.085939e-08
5.730000e+02 1.212419e-08
5.740000e+02 1.353093e-08
5.750000e+02 1.509554e-08
5.760000e+02 1.683144e-08
5.770000e+02 1.876482e-08
5.780000e+02 2.090925e-08
5.790000e+02 2.328972e-08
5.800000e+02 2.593124e-08
5.810000e+02 2.886129e-08
5.820000e+02 3.211002e-08
5.830000e+02 3.571002e-08
5.840000e+02 3.967062e-08
5.850000e+02 4.411280e-08
5.860000e+02 4.901321e-08
5.870000e+02 5.442979e-08
5.880000e+02 6.042190e-08
5.890000e+02 6.704819e-08
5.900000e+02 7.437476e-08
5.910000e+02 8.247220e-08
5.920000e+02 9.141773e-08
5.930000e+02 1.012971e-07
5.940000e+02 1.122039e-07
5.950000e+02 1.242277e-07
5.960000e+02 1.375205e-07
5.970000e+02 1.521659e-07
5.980000e+02 1.683119e-07
5.990000e+02 1.861064e-07
6.000000e+02 2.057107e-07
6.010000e+02 2.273015e-07
6.020000e+02 2.510724e-07
6.030000e+02 2.772343e-07
6.040000e+02 3.060177e-07
6.050000e+02 3.376762e-07
6.060000e+02 3.724816e-07
6.070000e+02 4.107422e-07
6.080000e+02 4.527795e-07
6.090000e+02 4.989532e-07
6.100000e+02 5.496542e-07
6.110000e+02 6.053080e-07
6.120000e+02 6.663794e-07
6.130000e+02 7.333741e-07
6.140000e+02 8.068431e-07
6.150000e+02 8.873868e-07
6.160000e+02 9.756567e-07
6.170000e+02 1.072366e-06
6.180000e+02 1.178288e-06
6.190000e+02 1.294264e-06
6.200000e+02 1.421208e-06
6.210000e+02 1.560116e-06
6.220000e+02 1.712067e-06
6.230000e+02 1.878237e-06
6.240000e+02 2.059900e-06
6.250000e+02 2.258439e-06
6.260000e+02 2.475360e-06
6.270000e+02 2.712289e-06
6.280000e+02 2.971003e-06
6.290000e+02 3.253411e-06
6.300000e+02 3.561606e-06
6.310000e+02 3.897760e-06
6.320000e+02 4.264531e-06
6.330000e+02 4.664354e-06
6.340000e+02 5.100165e-06
6.350000e+02 5.575060e-06
6.360000e+02 6.074289e-06
6.370000e+02 6.655850e-06
6.380000e+02 7.269296e-06
6.390000e+02 7.936994e-06
6.400000e+02 8.663560e-06
6.410000e+02 9.453947e-06
6.420000e+02 1.031352e-05
6.430000e+02 1.124810e-05
6.440000e+02 1.226393e-05
6.450000e+02 1.336776e-05
6.460000e+02 1.456694e-05
6.470000e+02 1.586927e-05
6.480000e+02 1.728328e-05
6.490000e+02 1.881822e-05
6.500000e+02 2.048381e-05
6.510000e+02 2.229082e-05
6.520000e+02 2.425069e-05
6.530000e+02 2.637579e-05
6.540000e+02 2.867946e-05
6.550000e+02 3.117604e-05
6.560000e+02 3.388098e-05
6.570000e+02 3.681011e-05
6.580000e+02 3.998371e-05
6.590000e+02 4.341865e-05
6.600000e+02 4.713636e-05
6.610000e+02 5.115916e-05
6.620000e+02 5.551107e-05
6.630000e+02 6.021771e-05
6.640000e+02 6.530682e-05
6.650000e+02 7.080795e-05
6.660000e+02 7.675315e-05
6.670000e+02 8.317656e-05
6.680000e+02 9.011495e-05
6.690000e+02 9.760779e-05
6.700000e+02 1.056972e-04
6.710000e+02 1.144290e-04
6.720000e+02 1.238500e-04
6.730000e+02 1.340173e-04
6.740000e+02 1.449820e-04
6.750000e+02 1.568057e-04
6.760000e+02 1.695527e-04
6.770000e+02 1.832918e-04
6.780000e+02 1.980968e-04
6.790000e+02 2.140463e-04
6.800000e+02 2.312253e-04
6.810000e+02 2.497238e-04
6.820000e+02 2.696390e-04
6.830000e+02 2.910745e-04
6.840000e+02 3.141404e-04
6.850000e+02 3.389556e-04
6.860000e+02 3.656466e-04
6.870000e+02 3.943410e-04
6.880000e+02 4.252060e-04
6.890000e+02 4.583698e-04
6.900000e+02 4.940155e-04
6.910000e+02 5.323094e-04
6.920000e+02 5.734423e-04
6.930000e+02 6.176153e-04
6.940000e+02 6.650426e-04
6.950000e+02 7.159507e-04
6.960000e+02 7.705897e-04
6.970000e+02 8.291692e-04
6.980000e+02 8.921002e-04
6.990000e+02 9.595482e-04
7.000000e+02 1.031870e-03
7.010000e+02 1.109404e-03
7.020000e+02 1.192506e-03
7.030000e+02 1.281559e-03
7.040000e+02 1.376968e-03
7.050000e+02 1.479165e-03
7.060000e+02 1.588609e-03
7.070000e+02 1.705793e-03
7.080000e+02 1.831236e-03
7.090000e+02 1.965491e-03
7.100000e+02 2.109152e-03
7.110000e+02 2.262843e-03
7.120000e+02 2.427233e-03
7.130000e+02 2.603030e-03
7.140000e+02 2.790984e-03
7.150000e+02 2.991904e-03
7.160000e+02 3.206637e-03
7.170000e+02 3.436073e-03
7.180000e+02 3.681109e-03
7.190000e+02 3.943041e-03
7.200000e+02 4.222646e-03
7.210000e+02 4.521180e-03
7.220000e+02 4.839863e-03
7.230000e+02 5.179987e-03
7.240000e+02 5.542927e-03
7.250000e+02 5.930135e-03
7.260000e+02 6.343159e-03
7.270000e+02 6.783635e-03
7.280000e+02 7.253299e-03
7.290000e+02 7.753989e-03
7.300000e+02 8.287622e-03
7.310000e+02 8.856350e-03
7.320000e+02 9.462286e-03
7.330000e+02 1.010777e-02
7.340000e+02 1.079525e-02
7.350000e+02 1.152734e-02
7.360000e+02 1.230673e-02
7.370000e+02 1.313646e-02
7.380000e+02 1.401949e-02
7.390000e+02 1.495912e-02
7.400000e+02 1.595877e-02
7.410000e+02 1.702216e-02
7.420000e+02 1.815308e-02
7.430000e+02 1.935562e-02
7.440000e+02 2.063410e-02
7.450000e+02 2.199306e-02
7.460000e+02 2.343729e-02
7.470000e+02 2.497195e-02
7.480000e+02 2.660235e-02
7.490000e+02 2.833420e-02
7.500000e+02 3.017347e-02
7.510000e+02 3.212650e-02
7.520000e+02 3.419996e-02
7.530000e+02 3.640090e-02
7.540000e+02 3.873677e-02
7.550000e+02 4.121540e-02
7.560000e+02 4.384511e-02
7.570000e+02 4.663450e-02
7.580000e+02 4.959308e-02
7.590000e+02 5.273011e-02
7.600000e+02 5.605649e-02
7.610000e+02 5.958244e-02
7.620000e+02 6.331955e-02
7.630000e+02 6.727979e-02
7.640000e+02 7.147579e-02
7.650000e+02 7.592087e-02
7.660000e+02 8.062910e-02
7.670000e+02 8.561519e-02
7.680000e+02 9.089391e-02
7.690000e+02 9.648406e-02
7.700000e+02 1.024005e-01
7.710000e+02 1.086620e-01
7.720000e+02 1.152879e-01
7.730000e+02 1.222980e-01
7.740000e+02 1.297136e-01
7.750000e+02 1.375570e-01
7.760000e+02 1.458486e-01
7.770000e+02 1.546212e-01
7.780000e+02 1.638929e-01
7.790000e+02 1.736931e-01
7.800000e+02 1.840506e-01
7.810000e+02 1.949954e-01
7.820000e+02 2.065589e-01
7.830000e+02 2.187743e-01
7.840000e+02 2.316764e-01
7.850000e+02 2.453016e-01
7.860000e+02 2.596886e-01
7.870000e+02 2.748793e-01
7.880000e+02 2.909126e-01
7.890000e+02 3.078346e-01
7.900000e+02 3.256899e-01
7.910000e+02 3.445328e-01
7.920000e+02 3.644099e-01
7.930000e+02 3.853764e-01
7.940000e+02 4.074888e-01
7.950000e+02 4.308065e-01
7.960000e+02 4.553914e-01
7.970000e+02 4.813088e-01
7.980000e+02 5.086260e-01
7.990000e+02 5.374176e-01
8.000000e+02 5.677556e-01
8.010000e+02 5.997197e-01
8.020000e+02 6.333923e-01
8.030000e+02 6.688595e-01
8.040000e+02 7.062112e-01
8.050000e+02 7.455440e-01
8.060000e+02 7.869553e-01
8.070000e+02 8.305504e-01
8.080000e+02 8.764374e-01
8.090000e+02 9.247301e-01
8.100000e+02 9.755477e-01
8.110000e+02 1.029015e+00
8.120000e+02 1.085259e+00
8.130000e+02 1.144427e+00
8.140000e+02 1.206650e+00
8.150000e+02 1.272081e+00
8.160000e+02 1.340882e+00
8.170000e+02 1.413204e+00
8.180000e+02 1.489231e+00
8.190000e+02 1.569138e+00
8.200000e+02 1.653108e+00
8.210000e+02 1.741340e+00
8.220000e+02 1.834035e+00
8.230000e+02 1.931408e+00
8.240000e+02 2.033683e+00
8.250000e+02 2.141090e+00
8.260000e+02 2.253874e+00
8.270000e+02 2.372288e+00
8.280000e+02 2.496598e+00
8.290000e+02 2.627080e+00
8.300000e+02 2.764016e+00
8.310000e+02 2.907723e+00
8.320000e+02 3.058509e+00
8.330000e+02 3.216702e+00
8.340000e+02 3.382645e+00
8.350000e+02 3.555742e+00
8.360000e+02 3.739153e+00
8.370000e+02 3.930634e+00
8.380000e+02 4.131323e+00
8.390000e+02 4.341710e+00
8.400000e+02 4.562241e+00
8.410000e+02 4.793373e+00
8.420000e+02 5.035255e+00
8.430000e+02 5.289399e+00
8.440000e+02 5.555318e+00
8.450000e+02 5.833890e+00
8.460000e+02 6.125682e+00
8.470000e+02 6.431288e+00
8.480000e+02 6.751307e+00
8.490000e+02 7.086421e+00
8.500000e+02 7.437259e+00
8.510000e+02 7.804531e+00
8.520000e+02 8.188954e+00
8.530000e+02 8.591299e+00
8.540000e+02 9.012419e+00
8.550000e+02 9.452959e+00
8.560000e+02 9.913886e+00
8.570000e+02 1.039607e+01
8.580000e+02 1.090042e+01
8.590000e+02 1.142792e+01
8.600000e+02 1.197955e+01
8.610000e+02 1.255635e+01
8.620000e+02 1.315940e+01
8.630000e+02 1.378983e+01
8.640000e+02 1.444882e+01
8.650000e+02 1.513756e+01
8.660000e+02 1.585733e+01
8.670000e+02 1.660941e+01
8.680000e+02 1.739523e+01
8.690000e+02 1.821617e+01
8.700000e+02 1.907356e+01
8.710000e+02 1.996941e+01
8.720000e+02 2.090483e+01
8.730000e+02 2.188165e+01
8.740000e+02 2.290157e+01
8.750000e+02 2.396639e+01
8.760000e+02 2.507793e+01
8.770000e+02 2.623815e+01
8.780000e+02 2.744913e+01
8.790000e+02 2.871281e+01
8.800000e+02 3.003144e+01
8.810000e+02 3.140725e+01
8.820000e+02 3.284254e+01
8.830000e+02 3.433975e+01
8.840000e+02 3.590138e+01
8.850000e+02 3.753001e+01
8.860000e+02 3.922839e+01
8.870000e+02 4.099929e+01
8.880000e+02 4.284560e+01
8.890000e+02 4.477037e+01
8.900000e+02 4.677671e+01
8.910000e+02 4.886786e+01
8.920000e+02 5.084380e+01
8.930000e+02 5.331819e+01
8.940000e+02 5.568447e+01
8.950000e+02 5.814978e+01
8.960000e+02 6.071803e+01
8.970000e+02 6.339322e+01
8.980000e+02 6.617947e+01
8.990000e+02 6.908125e+01
9.000000e+02 7.210296e+01
9.010000e+02 7.524927e+01
9.020000e+02 7.852498e+01
9.030000e+02 8.193507e+01
9.040000e+02 8.548258e+01
9.050000e+02 8.917931e+01
9.060000e+02 9.302435e+01
9.070000e+02 9.702466e+01
9.080000e+02 1.011890e+02
9.090000e+02 1.055206e+02
9.100000e+02 1.100270e+02
9.110000e+02 1.147156e+02
9.120000e+02 1.195973e+02
9.130000e+02 1.209882e+02
9.140000e+02 1.377969e+02
9.150000e+02 2.956797e+03
9.160000e+02 6.168043e+03
9.170000e+02 6.406020e+03
9.180000e+02 6.598703e+03
9.190000e+02 6.841766e+03
9.200000e+02 7.068730e+03
9.210000e+02 1.654953e+02
9.220000e+02 7.531726e+03
9.230000e+02 7.751119e+03
9.240000e+02 6.815205e+03
9.250000e+02 8.119917e+03
9.260000e+02 8.530574e+03
9.270000e+02 8.831360e+03
9.280000e+02 9.138413e+03
9.290000e+02 7.601855e+03
9.300000e+02 9.575352e+03
9.310000e+02 9.933230e+03
9.320000e+02 1.038390e+04
9.330000e+02 1.070990e+04
9.340000e+02 1.105580e+04
9.350000e+02 2.931179e+03
9.360000e+02 1.171385e+04
9.370000e+02 2.184597e+03
9.380000e+02 9.884551e+03
9.390000e+02 1.292516e+04
9.400000e+02 1.334439e+04
9.410000e+02 1.056567e+04
9.420000e+02 1.420818e+04
9.430000e+02 1.465399e+04
9.440000e+02 1.203448e+04
9.450000e+02 1.557417e+04
9.460000e+02 1.606496e+04
9.470000e+02 1.150298e+04
9.480000e+02 1.698023e+04
9.490000e+02 1.735163e+04
9.500000e+02 4.346664e+03
9.510000e+02 1.768413e+04
9.520000e+02 1.928494e+04
9.530000e+02 1.987065e+04
9.540000e+02 1.592427e+04
9.550000e+02 2.114800e+04
9.560000e+02 2.192215e+04
9.570000e+02 1.745962e+04
9.580000e+02 2.285961e+04
9.590000e+02 2.397268e+04
9.600000e+02 4.801234e+03
9.610000e+02 2.549619e+04
9.620000e+02 2.624967e+04
9.630000e+02 2.705432e+04
9.640000e+02 1.118543e+03
9.650000e+02 2.515415e+04
9.660000e+02 2.955469e+04
9.670000e+02 3.043024e+04
9.680000e+02 3.108146e+04
9.690000e+02 3.198294e+04
9.700000e+02 3.308298e+04
9.710000e+02 3.366436e+04
9.720000e+02 3.058491e+04
9.730000e+02 3.022488e+04
9.740000e+02 3.649442e+04
9.750000e+02 3.825687e+04
9.760000e+02 3.952167e+04
9.770000e+02 4.072312e+04
9.780000e+02 4.187529e+04
9.790000e+02 4.318930e+04
9.800000e+02 4.444893e+04
9.810000e+02 4.576220e+04
9.820000e+02 4.684463e+04
9.830000e+02 4.842298e+04
9.840000e+02 1.149280e+04
9.850000e+02 5.128092e+04
9.860000e+02 5.275396e+04
9.870000e+02 5.425139e+04
9.880000e+02 5.562249e+04
9.890000e+02 3.827371e+04
9.900000e+02 3.669110e+03
9.910000e+02 6.007694e+04
9.920000e+02 6.138583e+04
9.930000e+02 6.154124e+04
9.940000e+02 7.288312e+03
9.950000e+02 9.392695e+03
9.960000e+02 3.512222e+04
9.970000e+02 1.779352e+04
9.980000e+02 7.328262e+04
9.990000e+02 7.505202e+04
1.000000e+03 7.800219e+04
1.001000e+03 8.017534e+04
1.002000e+03 8.238155e+04
1.003000e+03 7.812566e+04
1.004000e+03 8.701030e+04
1.005000e+03 8.419734e+04
1.006000e+03 9.187723e+04
1.007000e+03 9.439816e+04
1.008000e+03 9.692979e+04
1.009000e+03 9.650155e+04
1.010000e+03 1.023167e+05
1.011000e+03 1.050804e+05
1.012000e+03 1.079098e+05
1.013000e+03 1.108190e+05
1.014000e+03 1.136958e+05
1.015000e+03 1.143363e+05
1.016000e+03 1.197011e+05
1.017000e+03 1.228348e+05
1.018000e+03 1.260931e+05
1.019000e+03 1.291893e+05
1.020000e+03 1.322371e+05
1.021000e+03 1.207661e+05
1.022000e+03 1.334295e+05
1.023000e+03 1.376617e+05
1.024000e+03 1.313598e+05
1.025000e+03 8.702314e+04
1.026000e+03 3.004763e+04
1.027000e+03 1.297816e+05
1.028000e+03 4.056911e+04
1.029000e+03 1.636222e+05
1.030000e+03 1.689613e+05
1.031000e+03 1.761821e+05
1.032000e+03 1.809389e+05
1.033000e+03 9.362338e+04
1.034000e+03 1.918801e+05
1.035000e+03 3.704992e+04
1.036000e+03 2.010093e+05
1.037000e+03 2.088570e+04
1.038000e+03 2.131328e+05
1.039000e+03 2.181343e+05
1.040000e+03 2.245962e+05
1.041000e+03 2.301999e+05
1.042000e+03 2.339902e+05
1.043000e+03 2.398918e+05
1.044000e+03 2.485854e+05
1.045000e+03 2.549708e+05
1.046000e+03 2.617432e+05
1.047000e+03 2.684551e+05
1.048000e+03 2.745817e+05
1.049000e+03 2.816036e+05
1.050000e+03 2.894474e+05
1.051000e+03 2.967671e+05
1.052000e+03 3.042600e+05
1.053000e+03 3.094534e+05
1.054000e+03 3.195142e+05
1.055000e+03 3.277179e+05
1.056000e+03 3.359701e+05
1.057000e+03 3.443351e+05
1.058000e+03 3.529195e+05
1.059000e+03 3.616862e+05
1.060000e+03 3.706243e+05
1.061000e+03 3.798482e+05
1.062000e+03 3.892206e+05
1.063000e+03 3.463707e+05
1.064000e+03 6.727744e+04
1.065000e+03 4.204295e+05
1.066000e+03 4.301509e+05
1.067000e+03 4.350565e+05
1.068000e+03 4.519300e+05
1.069000e+03 4.626186e+05
1.070000e+03 4.725609e+05
1.071000e+03 4.862783e+05
1.072000e+03 4.980199e+05
1.073000e+03 5.098649e+05
1.074000e+03 5.223832e+05
1.075000e+03 5.348561e+05
1.076000e+03 5.478192e+05
1.077000e+03 5.605824e+05
1.078000e+03 5.744345e+05
1.079000e+03 5.853720e+05
1.080000e+03 6.019898e+05
1.081000e+03 6.165066e+05
1.082000e+03 6.304896e+05
1.083000e+03 6.461131e+05
1.084000e+03 6.571489e+05
1.085000e+03 6.352756e+05
1.086000e+03 6.929049e+05
1.087000e+03 7.090838e+05
1.088000e+03 7.223288e+05
1.089000e+03 7.427199e+05
1.090000e+03 7.599275e+05
1.091000e+03 7.777879e+05
1.092000e+03 7.956474e+05
1.093000e+03 8.132741e+05
1.094000e+03 8.332205e+05
1.095000e+03 8.517459e+05
1.096000e+03 8.720399e+05
1.097000e+03 8.838892e+05
1.098000e+03 9.109446e+05
1.099000e+03 9.332366e+05
1.100000e+03 9.395289e+05
1.101000e+03 8.712479e+05
1.102000e+03 2.519583e+06
1.103000e+03 1.182942e+07
1.104000e+03 2.622720e+06
1.105000e+03 1.006544e+06
1.106000e+03 3.731991e+07
1.107000e+03 3.674993e+07
1.108000e+03 3.872986e+07
1.109000e+03 2.928301e+07
1.110000e+03 6.103058e+06
1.111000e+03 2.641864e+06
1.112000e+03 3.773677e+07
1.113000e+03 4.210852e+07
1.114000e+03 8.186780e+05
1.115000e+03 4.185002e+07
1.116000e+03 4.322693e+07
1.117000e+03 6.692960e+05
1.118000e+03 4.261570e+07
1.119000e+03 4.559809e+07
1.120000e+03 4.625082e+07
1.121000e+03 3.359215e+07
1.122000e+03 1.719300e+05
1.123000e+03 4.619030e+06
1.124000e+03 4.922919e+07
1.125000e+03 2.346404e+07
1.126000e+03 5.128570e+07
1.127000e+03 4.757960e+07
1.128000e+03 2.296382e+07
1.129000e+03 5.188404e+07
1.130000e+03 4.452143e+07
1.131000e+03 5.591872e+07
1.132000e+03 7.486720e+05
1.133000e+03 5.642688e+07
1.134000e+03 5.443175e+07
1.135000e+03 8.174720e+05
1.136000e+03 6.004891e+07
1.137000e+03 6.127152e+07
1.138000e+03 6.270781e+07
1.139000e+03 6.067004e+07
1.140000e+03 4.107120e+05
1.141000e+03 6.585857e+07
1.142000e+03 6.513309e+07
1.143000e+03 6.765834e+07
1.144000e+03 6.893555e+07
1.145000e+03 4.518015e+07
1.146000e+03 7.135629e+07
1.147000e+03 6.945786e+07
1.148000e+03 7.101750e+07
1.149000e+03 7.426195e+07
1.150000e+03 7.181476e+07
1.151000e+03 7.535171e+07
1.152000e+03 7.768978e+07
1.153000e+03 2.418083e+07
1.154000e+03 1.328048e+06
1.155000e+03 7.424310e+07
1.156000e+03 3.303312e+07
1.157000e+03 8.338925e+07
1.158000e+03 1.247849e+06
1.159000e+03 6.790195e+07
1.160000e+03 8.832963e+07
1.161000e+03 8.990254e+07
1.162000e+03 8.417064e+06
1.163000e+03 9.146377e+07
1.164000e+03 1.792592e+06
1.165000e+03 9.522671e+07
1.166000e+03 9.561734e+07
1.167000e+03 9.278147e+07
1.168000e+03 9.975467e+07
1.169000e+03 9.503151e+07
1.170000e+03 1.027699e+08
1.171000e+03 1.042711e+08
1.172000e+03 1.025151e+08
1.173000e+03 1.071276e+08
1.174000e+03 1.073197e+08
1.175000e+03 1.695288e+06
1.176000e+03 1.153280e+06
1.177000e+03 1.121641e+08
1.178000e+03 1.094578e+08
1.179000e+03 1.151205e+08
1.180000e+03 9.417908e+07
1.181000e+03 1.149416e+08
1.182000e+03 1.184210e+08
1.183000e+03 1.192735e+08
1.184000e+03 1.200824e+08
1.185000e+03 1.192450e+08
1.186000e+03 1.211174e+08
1.187000e+03 1.214719e+08
1.188000e+03 1.201653e+08
1.189000e+03 1.243216e+06
1.190000e+03 2.966372e+07
1.191000e+03 1.162402e+08
1.192000e+03 1.158572e+08
1.193000e+03 9.586080e+05
1.194000e+03 1.431448e+06
1.195000e+03 6.090870e+07
1.196000e+03 1.108054e+08
1.197000e+03 1.236170e+08
1.198000e+03 1.238879e+08
1.199000e+03 1.169644e+08
1.200000e+03 9.758437e+07
1.201000e+03 1.032091e+08
1.202000e+03 1.004605e+08
1.203000e+03 9.995230e+07
1.204000e+03 8.885362e+07
1.205000e+03 7.898266e+07
1.206000e+03 6.664656e+07
1.207000e+03 2.795288e+07
1.208000e+03 4.706888e+07
1.209000e+03 3.541336e+07
1.210000e+03 2.751594e+06
1.211000e+03 1.874351e+07
1.212000e+03 1.188944e+07
1.213000e+03 6.845579e+06
1.214000e+03 3.637654e+06
1.215000e+03 1.969314e+06
1.216000e+03 1.641062e+06
1.217000e+03 3.093931e+06
1.218000e+03 6.114313e+06
1.219000e+03 1.140143e+07
1.220000e+03 1.924717e+07
1.221000e+03 2.963948e+07
1.222000e+03 4.239093e+07
1.223000e+03 5.724513e+07
1.224000e+03 7.392865e+07
1.225000e+03 9.216685e+07
1.226000e+03 1.114984e+08
1.227000e+03 1.306276e+08
1.228000e+03 1.539960e+08
1.229000e+03 1.762276e+08
1.230000e+03 1.988553e+08
1.231000e+03 2.222128e+08
1.232000e+03 2.457596e+08
1.233000e+03 2.693573e+08
1.234000e+03 1.514872e+08
1.235000e+03 3.165511e+08
1.236000e+03 3.400196e+08
1.237000e+03 3.631856e+08
1.238000e+03 3.866672e+08
1.239000e+03 4.096168e+08
1.240000e+03 3.924900e+08
1.241000e+03 6.509668e+08
1.242000e+03 3.792351e+08
1.243000e+03 6.099264e+08
1.244000e+03 2.565452e+08
1.245000e+03 3.755644e+08
1.246000e+03 1.115410e+09
1.247000e+03 1.198351e+09
1.248000e+03 2.697324e+08
1.249000e+03 3.824068e+08
1.250000e+03 1.446637e+09
1.251000e+03 1.525913e+09
1.252000e+03 1.604879e+09
1.253000e+03 1.715176e+09
1.254000e+03 1.766623e+09
1.255000e+03 1.894210e+09
1.256000e+03 1.972955e+09
1.257000e+03 2.082095e+09
1.258000e+03 2.136074e+09
1.259000e+03 2.012731e+09
1.260000e+03 1.397219e+09
1.261000e+03 4.600288e+06
1.262000e+03 1.671259e+08
1.263000e+03 2.448092e+09
1.264000e+03 1.970249e+09
1.265000e+03 4.008256e+06
1.266000e+03 2.632024e+09
1.267000e+03 3.027803e+09
