# wavelength_A flux
5.000000e+02 6.555414e-41
5.010000e+02 8.497053e-41
5.020000e+02 1.100272e-40
5.030000e+02 1.423243e-40
5.040000e+02 1.839344e-40
5.050000e+02 7.233405e-40
5.060000e+02 9.279244e-40
5.070000e+02 1.189101e-39
5.080000e+02 1.522362e-39
5.090000e+02 1.947204e-39
5.100000e+02 2.488343e-39
5.110000e+02 3.176880e-39
5.120000e+02 4.052210e-39
5.130000e+02 5.164009e-39
5.140000e+02 6.574885e-39
5.150000e+02 8.364606e-39
5.160000e+02 1.063085e-38
5.170000e+02 1.349849e-38
5.180000e+02 1.712545e-38
5.190000e+02 2.170708e-38
5.200000e+02 2.748994e-38
5.210000e+02 3.478017e-38
5.220000e+02 4.375835e-38
5.230000e+02 5.553103e-38
5.240000e+02 7.011353e-38
5.250000e+02 8.841567e-38
5.260000e+02 1.113978e-37
5.270000e+02 1.402345e-37
5.280000e+02 1.763879e-37
5.290000e+02 2.216295e-37
5.300000e+02 2.782777e-37
5.310000e+02 3.492216e-37
5.320000e+02 4.378737e-37
5.330000e+02 5.484884e-37
5.340000e+02 6.864817e-37
5.350000e+02 8.584628e-37
5.360000e+02 1.072386e-36
5.370000e+02 7.579878e-37
5.380000e+02 1.670470e-36
5.390000e+02 2.083283e-36
5.400000e+02 2.595364e-36
5.410000e+02 3.228216e-36
5.420000e+02 4.017981e-36
5.430000e+02 4.993496e-36
5.440000e+02 6.201127e-36
5.450000e+02 7.694889e-36
5.460000e+02 9.539767e-36
5.470000e+02 1.182169e-35
5.480000e+02 1.463622e-35
5.490000e+02 1.810786e-35
5.500000e+02 2.238567e-35
5.510000e+02 2.765369e-35
5.520000e+02 3.413638e-35
5.530000e+02 4.210805e-35
5.540000e+02 5.190364e-35
5.550000e+02 6.393185e-35
5.560000e+02 7.869099e-35
5.570000e+02 9.678829e-35
5.580000e+02 1.189632e-34
5.590000e+02 1.461152e-34
5.600000e+02 1.793384e-34
5.610000e+02 2.199690e-34
5.620000e+02 2.696086e-34
5.630000e+02 3.302219e-34
5.640000e+02 4.041873e-34
5.650000e+02 4.943780e-34
5.660000e+02 6.042829e-34
5.670000e+02 7.381206e-34
5.680000e+02 9.009961e-34
5.690000e+02 1.099075e-33
5.700000e+02 1.339809e-33
5.710000e+02 1.632189e-33
5.720000e+02 1.987131e-33
5.730000e+02 2.417589e-33
5.740000e+02 2.939375e-33
5.750000e+02 3.574081e-33
5.760000e+02 4.310186e-33
5.770000e+02 5.266216e-33
5.780000e+02 6.386271e-33
5.790000e+02 7.739585e-33
5.800000e+02 9.373637e-33
5.810000e+02 1.134522e-32
5.820000e+02 1.372176e-32
5.830000e+02 1.657870e-32
5.840000e+02 1.976348e-32
5.850000e+02 2.411925e-32
5.860000e+02 2.919145e-32
5.870000e+02 3.521042e-32
5.880000e+02 4.244562e-32
5.890000e+02 5.112636e-32
5.900000e+02 6.154560e-32
5.910000e+02 7.404200e-32
5.920000e+02 8.902343e-32
5.930000e+02 1.069721e-31
5.940000e+02 1.284685e-31
5.950000e+02 1.541885e-31
5.960000e+02 1.849501e-31
5.970000e+02 2.217204e-31
5.980000e+02 2.656503e-31
5.990000e+02 3.180990e-31
6.000000e+02 3.806860e-31
6.010000e+02 4.551753e-31
6.020000e+02 5.443003e-31
6.030000e+02 6.502915e-31
6.040000e+02 7.765192e-31
6.050000e+02 9.266960e-31
6.060000e+02 1.105305e-30
6.070000e+02 1.317615e-30
6.080000e+02 1.569846e-30
6.090000e+02 1.869344e-30
6.100000e+02 2.224770e-30
6.110000e+02 2.646359e-30
6.120000e+02 3.146144e-30
6.130000e+02 3.738322e-30
6.140000e+02 4.439782e-30
6.150000e+02 5.269902e-30
6.160000e+02 6.251899e-30
6.170000e+02 7.412992e-30
6.180000e+02 8.785139e-30
6.190000e+02 1.040584e-29
6.200000e+02 1.231928e-29
6.210000e+02 1.457702e-29
6.220000e+02 1.723974e-29
6.230000e+02 2.037845e-29
6.240000e+02 2.407699e-29
6.250000e+02 2.843184e-29
6.260000e+02 3.355754e-29
6.270000e+02 3.958750e-29
6.280000e+02 4.667803e-29
6.290000e+02 5.501126e-29
6.300000e+02 6.479555e-29
6.310000e+02 7.494161e-29
6.320000e+02 8.977985e-29
6.330000e+02 1.054177e-28
6.340000e+02 1.241573e-28
6.350000e+02 1.458360e-28
6.360000e+02 1.713433e-28
6.370000e+02 2.011756e-28
6.380000e+02 2.360648e-28
6.390000e+02 2.768743e-28
6.400000e+02 3.245876e-28
6.410000e+02 3.803449e-28
6.420000e+02 4.454735e-28
6.430000e+02 5.215135e-28
6.440000e+02 6.102527e-28
6.450000e+02 7.137610e-28
6.460000e+02 8.344632e-28
6.470000e+02 9.751199e-28
6.480000e+02 1.138972e-27
6.490000e+02 1.329759e-27
6.500000e+02 1.551571e-27
6.510000e+02 1.810120e-27
6.520000e+02 2.110533e-27
6.530000e+02 2.459694e-27
6.540000e+02 2.865364e-27
6.550000e+02 3.336481e-27
6.560000e+02 3.883370e-27
6.570000e+02 4.517868e-27
6.580000e+02 5.253953e-27
6.590000e+02 6.107309e-27
6.600000e+02 7.096126e-27
6.610000e+02 8.241608e-27
6.620000e+02 9.567909e-27
6.630000e+02 1.110300e-26
6.640000e+02 1.287895e-26
6.650000e+02 1.493272e-26
6.660000e+02 1.730684e-26
6.670000e+02 2.005012e-26
6.680000e+02 2.321870e-26
6.690000e+02 2.687700e-26
6.700000e+02 3.109899e-26
6.710000e+02 3.596958e-26
6.720000e+02 4.158659e-26
6.730000e+02 4.806085e-26
6.740000e+02 5.552077e-26
6.750000e+02 6.411300e-26
6.760000e+02 7.400551e-26
6.770000e+02 8.539061e-26
6.780000e+02 9.848838e-26
6.790000e+02 1.135506e-25
6.800000e+02 1.308653e-25
6.810000e+02 1.507614e-25
6.820000e+02 1.736152e-25
6.830000e+02 1.998562e-25
6.840000e+02 2.299757e-25
6.850000e+02 2.645346e-25
6.860000e+02 3.041692e-25
6.870000e+02 3.496085e-25
6.880000e+02 4.016843e-25
6.890000e+02 4.613436e-25
6.900000e+02 5.296654e-25
6.910000e+02 6.078787e-25
6.920000e+02 6.973823e-25
6.930000e+02 7.997689e-25
6.940000e+02 9.168498e-25
6.950000e+02 1.050686e-24
6.960000e+02 1.203619e-24
6.970000e+02 1.378303e-24
6.980000e+02 1.577803e-24
6.990000e+02 1.805498e-24
7.000000e+02 2.065310e-24
7.010000e+02 2.361665e-24
7.020000e+02 2.699584e-24
7.030000e+02 3.084633e-24
7.040000e+02 3.523657e-24
7.050000e+02 4.023574e-24
7.060000e+02 4.592797e-24
7.070000e+02 5.240744e-24
7.080000e+02 5.978012e-24
7.090000e+02 6.816614e-24
7.100000e+02 7.770323e-24
7.110000e+02 8.854288e-24
7.120000e+02 1.008602e-23
7.130000e+02 1.148519e-23
7.140000e+02 1.307402e-23
7.150000e+02 1.487761e-23
7.160000e+02 1.692434e-23
7.170000e+02 1.924615e-23
7.180000e+02 2.187915e-23
7.190000e+02 2.486433e-23
7.200000e+02 2.824735e-23
7.210000e+02 3.208009e-23
7.220000e+02 3.642128e-23
7.230000e+02 4.133607e-23
7.240000e+02 4.689862e-23
7.250000e+02 5.319245e-23
7.260000e+02 6.031120e-23
7.270000e+02 6.836113e-23
7.280000e+02 7.746030e-23
7.290000e+02 8.774254e-23
7.300000e+02 9.935802e-23
7.310000e+02 1.124755e-22
7.320000e+02 1.272844e-22
7.330000e+02 1.439979e-22
7.340000e+02 1.628557e-22
7.350000e+02 1.841244e-22
7.360000e+02 2.080995e-22
7.370000e+02 2.351383e-22
7.380000e+02 2.655999e-22
7.390000e+02 2.999154e-22
7.400000e+02 3.385598e-22
7.410000e+02 3.820695e-22
7.420000e+02 4.310365e-22
7.430000e+02 4.861337e-22
7.440000e+02 5.481068e-22
7.450000e+02 6.177946e-22
7.460000e+02 6.961337e-22
7.470000e+02 7.841722e-22
7.480000e+02 8.830816e-22
7.490000e+02 9.941718e-22
7.500000e+02 1.118906e-21
7.510000e+02 1.258920e-21
7.520000e+02 1.416038e-21
7.530000e+02 1.592300e-21
7.540000e+02 1.789981e-21
7.550000e+02 2.011620e-21
7.560000e+02 2.260049e-21
7.570000e+02 2.538384e-21
7.580000e+02 2.850272e-21
7.590000e+02 3.199517e-21
7.600000e+02 3.590535e-21
7.610000e+02 4.028185e-21
7.620000e+02 4.517906e-21
7.630000e+02 5.065733e-21
7.640000e+02 5.678391e-21
7.650000e+02 6.363355e-21
7.660000e+02 7.128961e-21
7.670000e+02 7.984454e-21
7.680000e+02 8.940095e-21
7.690000e+02 9.837390e-21
7.700000e+02 1.119908e-20
7.710000e+02 1.252917e-20
7.720000e+02 1.401342e-20
7.730000e+02 1.566922e-20
7.740000e+02 1.751593e-20
7.750000e+02 1.957498e-20
7.760000e+02 2.186745e-20
7.770000e+02 2.442802e-20
7.780000e+02 2.727763e-20
7.790000e+02 3.045154e-20
7.800000e+02 3.398572e-20
7.810000e+02 3.792007e-20
7.820000e+02 4.229867e-20
7.830000e+02 4.717046e-20
7.840000e+02 5.258958e-20
7.850000e+02 5.861596e-20
7.860000e+02 6.531584e-20
7.870000e+02 7.276874e-20
7.880000e+02 8.104438e-20
7.890000e+02 9.023792e-20
7.900000e+02 1.004486e-19
7.910000e+02 1.117860e-19
7.920000e+02 1.243716e-19
7.930000e+02 1.383387e-19
7.940000e+02 1.538352e-19
7.950000e+02 1.710244e-19
7.960000e+02 1.900864e-19
7.970000e+02 2.112202e-19
7.980000e+02 2.346449e-19
7.990000e+02 2.606024e-19
8.000000e+02 2.893598e-19
8.010000e+02 3.212107e-19
8.020000e+02 3.564802e-19
8.030000e+02 3.955248e-19
8.040000e+02 4.387385e-19
8.050000e+02 4.865546e-19
8.060000e+02 5.394507e-19
8.070000e+02 5.979529e-19
8.080000e+02 6.626405e-19
8.090000e+02 7.341470e-19
8.100000e+02 8.131746e-19
8.110000e+02 9.004935e-19
8.120000e+02 9.969507e-19
8.130000e+02 1.103478e-18
8.140000e+02 1.221097e-18
8.150000e+02 1.350935e-18
8.160000e+02 1.494226e-18
8.170000e+02 1.652326e-18
8.180000e+02 1.826730e-18
8.190000e+02 2.019069e-18
8.200000e+02 2.231141e-18
8.210000e+02 2.464917e-18
8.220000e+02 2.722558e-18
8.230000e+02 3.006444e-18
8.240000e+02 3.319160e-18
8.250000e+02 3.663566e-18
8.260000e+02 4.042785e-18
8.270000e+02 4.460244e-18
8.280000e+02 4.919694e-18
8.290000e+02 5.425247e-18
8.300000e+02 5.981403e-18
8.310000e+02 6.593098e-18
8.320000e+02 7.265715e-18
8.330000e+02 8.005167e-18
8.340000e+02 8.817914e-18
8.350000e+02 9.694237e-18
8.360000e+02 1.069221e-17
8.370000e+02 1.177001e-17
8.380000e+02 1.295336e-17
8.390000e+02 1.425300e-17
8.400000e+02 1.567937e-17
8.410000e+02 1.724473e-17
8.420000e+02 1.896217e-17
8.430000e+02 2.084635e-17
8.440000e+02 2.291271e-17
8.450000e+02 2.517848e-17
8.460000e+02 2.766238e-17
8.470000e+02 3.038483e-17
8.480000e+02 3.336812e-17
8.490000e+02 3.663655e-17
8.500000e+02 4.021662e-17
8.510000e+02 4.413722e-17
8.520000e+02 4.842993e-17
8.530000e+02 5.312900e-17
8.540000e+02 5.827188e-17
8.550000e+02 6.389915e-17
8.560000e+02 7.005527e-17
8.570000e+02 7.678863e-17
8.580000e+02 8.359864e-17
8.590000e+02 9.220203e-17
8.600000e+02 1.010017e-16
8.610000e+02 1.104811e-16
8.620000e+02 1.211264e-16
8.630000e+02 1.326053e-16
8.640000e+02 1.451425e-16
8.650000e+02 1.588210e-16
8.660000e+02 1.737812e-16
8.670000e+02 1.900970e-16
8.680000e+02 2.079030e-16
8.690000e+02 2.273315e-16
8.700000e+02 2.485262e-16
8.710000e+02 2.716431e-16
8.720000e+02 2.968516e-16
8.730000e+02 3.243355e-16
8.740000e+02 3.542944e-16
8.750000e+02 3.869451e-16
8.760000e+02 4.225220e-16
8.770000e+02 4.612793e-16
8.780000e+02 5.034958e-16
8.790000e+02 5.494688e-16
8.800000e+02 5.995238e-16
8.810000e+02 6.540128e-16
8.820000e+02 7.133175e-16
8.830000e+02 7.778471e-16
8.840000e+02 8.480615e-16
8.850000e+02 9.244335e-16
8.860000e+02 1.007492e-15
8.870000e+02 1.097806e-15
8.880000e+02 1.195992e-15
8.890000e+02 1.302711e-15
8.900000e+02 1.418693e-15
8.910000e+02 1.544710e-15
8.920000e+02 1.681556e-15
8.930000e+02 1.830298e-15
8.940000e+02 1.991765e-15
8.950000e+02 2.167082e-15
8.960000e+02 2.357396e-15
8.970000e+02 2.563952e-15
8.980000e+02 2.788097e-15
8.990000e+02 3.031284e-15
9.000000e+02 3.295085e-15
9.010000e+02 3.581195e-15
9.020000e+02 3.891433e-15
9.030000e+02 4.227593e-15
9.040000e+02 4.592412e-15
9.050000e+02 4.985303e-15
9.060000e+02 5.415802e-15
9.070000e+02 5.879654e-15
9.080000e+02 6.382258e-15
9.090000e+02 6.926515e-15
9.100000e+02 7.515859e-15
9.110000e+02 8.154156e-15
9.120000e+02 8.847810e-15
9.130000e+02 8.276761e-15
9.140000e+02 1.136868e-13
9.150000e+02 1.550423e-06
9.160000e+02 2.143255e-06
9.170000e+02 2.248297e-06
9.180000e+02 2.347904e-06
9.190000e+02 2.477725e-06
9.200000e+02 2.600770e-06
9.210000e+02 1.681988e-14
9.220000e+02 2.848713e-06
9.230000e+02 2.920158e-06
9.240000e+02 2.884072e-06
9.250000e+02 3.079089e-06
9.260000e+02 3.360060e-06
9.270000e+02 3.601936e-06
9.280000e+02 3.799032e-06
9.290000e+02 1.688461e-06
9.300000e+02 3.990688e-06
9.310000e+02 4.077856e-06
9.320000e+02 4.578079e-06
9.330000e+02 4.795540e-06
9.340000e+02 4.937187e-06
9.350000e+02 5.648175e-10
9.360000e+02 1.779857e-06
9.370000e+02 1.339906e-10
9.380000e+02 3.255860e-08
9.390000e+02 2.131672e-06
9.400000e+02 6.443337e-06
9.410000e+02 3.655140e-09
9.420000e+02 7.023546e-06
9.430000e+02 3.999327e-06
9.440000e+02 6.547299e-06
9.450000e+02 7.948322e-06
9.460000e+02 7.835388e-06
9.470000e+02 1.091189e-08
9.480000e+02 1.207604e-07
9.490000e+02 8.631499e-06
9.500000e+02 1.609806e-10
9.510000e+02 9.578733e-06
9.520000e+02 1.041411e-05
9.530000e+02 6.660207e-07
9.540000e+02 2.508489e-08
9.550000e+02 5.992423e-06
9.560000e+02 4.020512e-08
9.570000e+02 1.737590e-07
9.580000e+02 4.881258e-09
9.590000e+02 1.581612e-05
9.600000e+02 6.584742e-10
9.610000e+02 1.615104e-05
9.620000e+02 1.517495e-05
9.630000e+02 4.798724e-06
9.640000e+02 6.048140e-10
9.650000e+02 5.822585e-08
9.660000e+02 1.158757e-05
9.670000e+02 1.625880e-06
9.680000e+02 7.585952e-07
9.690000e+02 1.957468e-05
9.700000e+02 2.160036e-05
9.710000e+02 2.384428e-06
9.720000e+02 5.725260e-07
9.730000e+02 9.472140e-06
9.740000e+02 2.046262e-05
9.750000e+02 1.712924e-05
9.760000e+02 3.426006e-05
9.770000e+02 3.561374e-05
9.780000e+02 3.313465e-05
9.790000e+02 4.111154e-05
9.800000e+02 4.293000e-05
9.810000e+02 3.829671e-05
9.820000e+02 2.058580e-05
9.830000e+02 4.986322e-05
9.840000e+02 3.488076e-07
9.850000e+02 1.083219e-05
9.860000e+02 2.429665e-05
9.870000e+02 6.131323e-05
9.880000e+02 1.297849e-07
9.890000e+02 5.666014e-05
9.900000e+02 8.607080e-07
9.910000e+02 1.008285e-05
9.920000e+02 1.879533e-08
9.930000e+02 3.862107e-05
9.940000e+02 3.965397e-10
9.950000e+02 8.023360e-07
9.960000e+02 6.996197e-07
9.970000e+02 3.549758e-09
9.980000e+02 9.287717e-05
9.990000e+02 7.301791e-06
1.000000e+03 9.543902e-05
1.001000e+03 1.321212e-04
1.002000e+03 1.388484e-04
1.003000e+03 3.436354e-05
1.004000e+03 2.691595e-07
1.005000e+03 9.307617e-05
1.006000e+03 1.709913e-04
1.007000e+03 1.799184e-04
1.008000e+03 1.808673e-04
1.009000e+03 2.168641e-05
1.010000e+03 2.072037e-04
1.011000e+03 2.200182e-04
1.012000e+03 2.295057e-04
1.013000e+03 2.412291e-04
1.014000e+03 6.580376e-08
1.015000e+03 3.701425e-07
1.016000e+03 7.860924e-05
1.017000e+03 6.030314e-08
1.018000e+03 6.527759e-05
1.019000e+03 5.128677e-07
1.020000e+03 3.233178e-04
1.021000e+03 4.956964e-07
1.022000e+03 3.395410e-05
1.023000e+03 2.090004e-06
1.024000e+03 1.145774e-05
1.025000e+03 4.688843e-08
1.026000e+03 2.917848e-07
1.027000e+03 2.723554e-05
1.028000e+03 3.163586e-08
1.029000e+03 1.202570e-07
1.030000e+03 2.468989e-04
1.031000e+03 4.374984e-04
1.032000e+03 2.182832e-04
1.033000e+03 6.848131e-07
1.034000e+03 4.665143e-04
1.035000e+03 1.135049e-08
1.036000e+03 3.537280e-07
1.037000e+03 7.517923e-04
1.038000e+03 8.055296e-04
1.039000e+03 7.716016e-04
1.040000e+03 8.894463e-04
1.041000e+03 6.636032e-04
1.042000e+03 9.847189e-04
1.043000e+03 4.950939e-04
1.044000e+03 1.086693e-03
1.045000e+03 1.100183e-03
1.046000e+03 1.133523e-03
1.047000e+03 1.008123e-03
1.048000e+03 4.056527e-05
1.049000e+03 1.041112e-03
1.050000e+03 6.155339e-04
1.051000e+03 3.026308e-04
1.052000e+03 1.529302e-03
1.053000e+03 1.625904e-03
1.054000e+03 5.767215e-07
1.055000e+03 2.310639e-04
1.056000e+03 1.836349e-03
1.057000e+03 1.692394e-03
1.058000e+03 7.276027e-04
1.059000e+03 5.136009e-04
1.060000e+03 2.893480e-05
1.061000e+03 2.258307e-03
1.062000e+03 3.921138e-04
1.063000e+03 2.097565e-07
1.064000e+03 1.513399e-08
1.065000e+03 1.059379e-06
1.066000e+03 1.094746e-05
1.067000e+03 9.476520e-05
1.068000e+03 3.167802e-03
1.069000e+03 2.901313e-05
1.070000e+03 2.638743e-03
1.071000e+03 3.563983e-03
1.072000e+03 3.740765e-03
1.073000e+03 3.486173e-06
1.074000e+03 3.611099e-03
1.075000e+03 3.507713e-03
1.076000e+03 2.247365e-03
1.077000e+03 1.678709e-06
1.078000e+03 1.051128e-03
1.079000e+03 3.346480e-03
1.080000e+03 3.270679e-03
1.081000e+03 5.338587e-03
1.082000e+03 5.237775e-03
1.083000e+03 4.854841e-03
1.084000e+03 4.647315e-03
1.085000e+03 1.509372e-03
1.086000e+03 6.593239e-03
1.087000e+03 7.259548e-04
1.088000e+03 6.956769e-03
1.089000e+03 7.201050e-03
1.090000e+03 4.016017e-03
1.091000e+03 4.459506e-03
1.092000e+03 1.725192e-03
1.093000e+03 7.893506e-03
1.094000e+03 7.504379e-03
1.095000e+03 9.052090e-03
1.096000e+03 1.199162e-04
1.097000e+03 7.729671e-03
1.098000e+03 3.343349e-03
1.099000e+03 6.690595e-03
1.100000e+03 7.165586e-05
1.101000e+03 2.710468e-04
1.102000e+03 7.125204e-03
1.103000e+03 1.198459e-02
1.104000e+03 1.248290e-02
1.105000e+03 1.275847e-02
1.106000e+03 1.176404e-02
1.107000e+03 1.837192e-04
1.108000e+03 1.377987e-02
1.109000e+03 4.776202e-03
1.110000e+03 1.331469e-02
1.111000e+03 1.508595e-02
1.112000e+03 1.501678e-02
1.113000e+03 1.216516e-02
1.114000e+03 1.110497e-02
1.115000e+03 4.768719e-03
1.116000e+03 1.808798e-03
1.117000e+03 1.682265e-02
1.118000e+03 6.932138e-03
1.119000e+03 1.716744e-02
1.120000e+03 3.335563e-03
1.121000e+03 1.861846e-02
1.122000e+03 1.039246e-02
1.123000e+03 1.936474e-02
1.124000e+03 1.998872e-02
1.125000e+03 1.913934e-02
1.126000e+03 2.098237e-02
1.127000e+03 2.123037e-02
1.128000e+03 1.777930e-02
1.129000e+03 2.143002e-02
1.130000e+03 2.136914e-02
1.131000e+03 2.016158e-02
1.132000e+03 1.965730e-03
1.133000e+03 1.781658e-02
1.134000e+03 2.365669e-02
1.135000e+03 2.203472e-04
1.136000e+03 2.036855e-02
1.137000e+03 2.648102e-02
1.138000e+03 2.623066e-02
1.139000e+03 2.769773e-02
1.140000e+03 2.559993e-02
1.141000e+03 2.890682e-02
1.142000e+03 2.903200e-02
1.143000e+03 2.601346e-02
1.144000e+03 2.803013e-02
1.145000e+03 1.447696e-03
1.146000e+03 3.198140e-02
1.147000e+03 3.282421e-02
1.148000e+03 1.836659e-02
1.149000e+03 3.298614e-02
1.150000e+03 3.372174e-02
1.151000e+03 3.580072e-02
1.152000e+03 3.649011e-02
1.153000e+03 3.534720e-02
1.154000e+03 3.613703e-02
1.155000e+03 3.816432e-02
1.156000e+03 8.619145e-03
1.157000e+03 3.879346e-02
1.158000e+03 3.782939e-02
1.159000e+03 4.196023e-02
1.160000e+03 4.231225e-02
1.161000e+03 4.371630e-02
1.162000e+03 2.456093e-02
1.163000e+03 4.173380e-02
1.164000e+03 2.924353e-05
1.165000e+03 4.737997e-02
1.166000e+03 4.859453e-02
1.167000e+03 4.980481e-02
1.168000e+03 5.128927e-02
1.169000e+03 4.861103e-02
1.170000e+03 5.300251e-02
1.171000e+03 5.499296e-02
1.172000e+03 5.626165e-02
1.173000e+03 5.793234e-02
1.174000e+03 1.082999e-02
1.175000e+03 3.465638e-05
1.176000e+03 7.819384e-06
1.177000e+03 6.402581e-02
1.178000e+03 6.507354e-02
1.179000e+03 6.693648e-02
1.180000e+03 6.504941e-02
1.181000e+03 6.881528e-02
1.182000e+03 7.145306e-02
1.183000e+03 7.295506e-02
1.184000e+03 7.316076e-02
1.185000e+03 7.681137e-02
1.186000e+03 4.360975e-02
1.187000e+03 7.836669e-02
1.188000e+03 7.815112e-02
1.189000e+03 7.951894e-02
1.190000e+03 8.466521e-02
1.191000e+03 8.620428e-02
1.192000e+03 8.665406e-02
1.193000e+03 5.800669e-02
1.194000e+03 8.676641e-02
1.195000e+03 9.035247e-02
1.196000e+03 9.094333e-02
1.197000e+03 1.672756e-01
1.198000e+03 1.263186e-01
1.199000e+03 1.601928e-01
1.200000e+03 1.377779e-01
1.201000e+03 1.526453e-01
1.202000e+03 1.469650e-01
1.203000e+03 1.967690e-01
1.204000e+03 1.603513e-01
1.205000e+03 1.632433e-01
1.206000e+03 1.564972e-01
1.207000e+03 3.497474e-03
1.208000e+03 1.018859e-01
1.209000e+03 7.074481e-02
1.210000e+03 5.283579e-05
1.211000e+03 2.750871e-02
1.212000e+03 1.212307e-02
1.213000e+03 4.631150e-03
1.214000e+03 1.092080e-03
1.215000e+03 8.677014e-05
1.216000e+03 1.528639e-05
1.217000e+03 6.101032e-04
1.218000e+03 3.581512e-03
1.219000e+03 1.144619e-02
1.220000e+03 2.835374e-02
1.221000e+03 5.082058e-02
1.222000e+03 9.244712e-02
1.223000e+03 1.278465e-01
1.224000e+03 1.581571e-01
1.225000e+03 1.738752e-01
1.226000e+03 2.724929e-01
1.227000e+03 3.240757e-01
1.228000e+03 3.753127e-01
1.229000e+03 4.279830e-01
1.230000e+03 4.920810e-03
1.231000e+03 3.437199e-01
1.232000e+03 5.427110e-01
1.233000e+03 5.905564e-01
1.234000e+03 4.164181e-01
1.235000e+03 6.636434e-01
1.236000e+03 6.728879e-01
1.237000e+03 7.295810e-01
1.238000e+03 7.611918e-01
1.239000e+03 7.653078e-01
1.240000e+03 6.138766e-02
1.241000e+03 7.621721e-01
1.242000e+03 8.769321e-01
1.243000e+03 9.081046e-01
1.244000e+03 9.374806e-01
1.245000e+03 7.273041e-01
1.246000e+03 9.873465e-01
1.247000e+03 1.006851e+00
1.248000e+03 2.239580e-01
1.249000e+03 1.071096e+00
1.250000e+03 9.541065e-01
1.251000e+03 1.157284e+00
1.252000e+03 1.100522e+00
1.253000e+03 1.222279e+00
1.254000e+03 1.213807e+00
1.255000e+03 4.386193e-01
1.256000e+03 1.280494e+00
1.257000e+03 9.130235e-01
1.258000e+03 1.178160e+00
1.259000e+03 1.448219e+00
1.260000e+03 1.492072e+00
1.261000e+03 3.821421e-02
1.262000e+03 1.580830e+00
1.263000e+03 9.989259e-01
1.264000e+03 1.579378e+00
1.265000e+03 4.360038e-02
1.266000e+03 1.763847e+00
1.267000e+03 1.804315e+00
