# wavelength_A flux
5.000000e+02 1.401298e-45
5.010000e+02 2.802597e-45
5.020000e+02 2.802597e-45
5.030000e+02 4.203895e-45
5.040000e+02 5.605194e-45
5.050000e+02 7.006492e-45
5.060000e+02 9.809089e-45
5.070000e+02 1.261169e-44
5.080000e+02 1.681558e-44
5.090000e+02 2.242078e-44
5.100000e+02 2.942727e-44
5.110000e+02 3.923636e-44
5.120000e+02 5.184804e-44
5.130000e+02 6.866362e-44
5.140000e+02 9.108440e-44
5.150000e+02 1.205117e-43
5.160000e+02 1.583467e-43
5.170000e+02 2.101948e-43
5.180000e+02 2.774571e-43
5.190000e+02 3.657389e-43
5.200000e+02 4.820467e-43
5.210000e+02 6.347882e-43
5.220000e+02 8.337726e-43
5.230000e+02 1.095815e-42
5.240000e+02 1.437732e-42
5.250000e+02 1.883345e-42
5.260000e+02 2.466285e-42
5.270000e+02 3.224388e-42
5.280000e+02 4.212303e-42
5.290000e+02 5.497294e-42
5.300000e+02 7.167642e-42
5.310000e+02 9.335450e-42
5.320000e+02 1.214646e-41
5.330000e+02 1.578703e-41
5.340000e+02 2.049960e-41
5.350000e+02 2.659104e-41
5.360000e+02 3.445933e-41
5.370000e+02 4.461174e-41
5.380000e+02 5.770127e-41
5.390000e+02 7.455608e-41
5.400000e+02 9.624258e-41
5.410000e+02 1.241172e-40
5.420000e+02 1.599134e-40
5.430000e+02 2.058367e-40
5.440000e+02 2.646969e-40
5.450000e+02 3.400699e-40
5.460000e+02 4.364975e-40
5.470000e+02 5.597459e-40
5.480000e+02 7.171313e-40
5.490000e+02 9.179262e-40
5.500000e+02 1.173868e-39
5.510000e+02 1.499810e-39
5.520000e+02 1.914523e-39
5.530000e+02 2.441711e-39
5.540000e+02 3.111283e-39
5.550000e+02 3.960942e-39
5.560000e+02 5.038174e-39
5.570000e+02 6.402739e-39
5.580000e+02 8.129772e-39
5.590000e+02 1.031366e-38
5.600000e+02 1.307288e-38
5.610000e+02 1.655602e-38
5.620000e+02 2.094926e-38
5.630000e+02 2.648569e-38
5.640000e+02 3.345693e-38
5.650000e+02 4.222744e-38
5.660000e+02 5.325242e-38
5.670000e+02 6.709991e-38
5.680000e+02 8.447812e-38
5.690000e+02 1.062694e-37
5.700000e+02 1.335722e-37
5.710000e+02 1.677525e-37
5.720000e+02 2.105085e-37
5.730000e+02 2.639486e-37
5.740000e+02 3.306893e-37
5.750000e+02 4.139748e-37
5.760000e+02 5.178242e-37
5.770000e+02 6.472131e-37
5.780000e+02 8.082963e-37
5.790000e+02 1.008681e-36
5.800000e+02 1.257764e-36
5.810000e+02 1.567141e-36
5.820000e+02 1.951113e-36
5.830000e+02 2.427301e-36
5.840000e+02 3.017407e-36
5.850000e+02 3.748129e-36
5.860000e+02 4.652298e-36
5.870000e+02 5.770247e-36
5.880000e+02 7.151496e-36
5.890000e+02 8.856795e-36
5.900000e+02 1.096062e-35
5.910000e+02 1.355421e-35
5.920000e+02 1.674926e-35
5.930000e+02 2.068240e-35
5.940000e+02 2.552063e-35
5.950000e+02 3.146799e-35
5.960000e+02 3.877351e-35
5.970000e+02 4.774098e-35
5.980000e+02 5.874073e-35
5.990000e+02 7.222385e-35
6.000000e+02 8.873945e-35
6.010000e+02 1.089555e-34
6.020000e+02 1.336840e-34
6.030000e+02 1.639114e-34
6.040000e+02 2.008352e-34
6.050000e+02 2.459082e-34
6.060000e+02 3.008914e-34
6.070000e+02 3.679188e-34
6.080000e+02 4.495739e-34
6.090000e+02 5.489823e-34
6.100000e+02 6.699237e-34
6.110000e+02 8.169651e-34
6.120000e+02 9.956213e-34
6.130000e+02 1.212548e-33
6.140000e+02 1.475771e-33
6.150000e+02 1.794964e-33
6.160000e+02 2.181779e-33
6.170000e+02 2.650241e-33
6.180000e+02 3.217222e-33
6.190000e+02 3.903002e-33
6.200000e+02 4.731951e-33
6.210000e+02 5.733326e-33
6.220000e+02 6.942236e-33
6.230000e+02 8.400783e-33
6.240000e+02 1.015942e-32
6.250000e+02 1.227860e-32
6.260000e+02 1.483064e-32
6.270000e+02 1.790210e-32
6.280000e+02 2.159644e-32
6.290000e+02 2.603730e-32
6.300000e+02 3.137229e-32
6.310000e+02 3.777762e-32
6.320000e+02 4.546342e-32
6.330000e+02 5.468020e-32
6.340000e+02 6.572639e-32
6.350000e+02 7.895732e-32
6.360000e+02 9.479581e-32
6.370000e+02 1.137447e-31
6.380000e+02 1.364017e-31
6.390000e+02 1.634769e-31
6.400000e+02 1.958131e-31
6.410000e+02 2.344106e-31
6.420000e+02 2.804556e-31
6.430000e+02 3.353539e-31
6.440000e+02 4.007710e-31
6.450000e+02 4.786786e-31
6.460000e+02 5.714098e-31
6.470000e+02 6.817238e-31
6.480000e+02 8.128819e-31
6.490000e+02 9.687367e-31
6.500000e+02 1.153837e-30
6.510000e+02 1.373551e-30
6.520000e+02 1.634210e-30
6.530000e+02 1.943277e-30
6.540000e+02 2.309544e-30
6.550000e+02 2.743367e-30
6.560000e+02 3.256931e-30
6.570000e+02 3.864571e-30
6.580000e+02 4.583140e-30
6.590000e+02 5.432444e-30
6.600000e+02 6.435742e-30
6.610000e+02 7.620340e-30
6.620000e+02 9.018274e-30
6.630000e+02 1.066711e-29
6.640000e+02 1.261089e-29
6.650000e+02 1.490119e-29
6.660000e+02 1.759843e-29
6.670000e+02 2.077328e-29
6.680000e+02 2.450844e-29
6.690000e+02 2.890060e-29
6.700000e+02 3.406273e-29
6.710000e+02 4.012680e-29
6.720000e+02 4.724686e-29
6.730000e+02 5.560269e-29
6.740000e+02 6.540395e-29
6.750000e+02 7.689506e-29
6.760000e+02 9.036084e-29
6.770000e+02 1.061330e-28
6.780000e+02 1.245975e-28
6.790000e+02 1.462038e-28
6.800000e+02 1.714743e-28
6.810000e+02 2.010163e-28
6.820000e+02 2.355355e-28
6.830000e+02 2.758515e-28
6.840000e+02 3.229155e-28
6.850000e+02 3.778315e-28
6.860000e+02 4.418796e-28
6.870000e+02 5.165438e-28
6.880000e+02 6.035436e-28
6.890000e+02 7.048705e-28
6.900000e+02 8.228300e-28
6.910000e+02 9.600897e-28
6.920000e+02 1.119735e-27
6.930000e+02 1.305333e-27
6.940000e+02 1.521007e-27
6.950000e+02 1.771517e-27
6.960000e+02 2.062361e-27
6.970000e+02 2.399883e-27
6.980000e+02 2.791403e-27
6.990000e+02 3.245358e-27
7.000000e+02 3.771476e-27
7.010000e+02 4.380962e-27
7.020000e+02 5.086720e-27
7.030000e+02 5.903604e-27
7.040000e+02 6.848706e-27
7.050000e+02 7.941682e-27
7.060000e+02 9.205130e-27
7.070000e+02 1.066502e-26
7.080000e+02 1.235118e-26
7.090000e+02 1.429786e-26
7.100000e+02 1.654437e-26
7.110000e+02 1.913581e-26
7.120000e+02 2.212390e-26
7.130000e+02 2.556793e-26
7.140000e+02 2.953583e-26
7.150000e+02 3.410540e-26
7.160000e+02 3.936575e-26
7.170000e+02 4.541881e-26
7.180000e+02 5.238125e-26
7.190000e+02 6.038643e-26
7.200000e+02 6.958685e-26
7.210000e+02 8.015672e-26
7.220000e+02 9.229506e-26
7.230000e+02 1.062291e-25
7.240000e+02 1.222181e-25
7.250000e+02 1.405579e-25
7.260000e+02 1.615861e-25
7.270000e+02 1.856871e-25
7.280000e+02 2.132995e-25
7.290000e+02 2.449223e-25
7.300000e+02 2.811243e-25
7.310000e+02 3.225527e-25
7.320000e+02 3.699437e-25
7.330000e+02 4.241351e-25
7.340000e+02 4.860790e-25
7.350000e+02 5.568580e-25
7.360000e+02 6.377018e-25
7.370000e+02 7.300070e-25
7.380000e+02 8.353593e-25
7.390000e+02 9.555584e-25
7.400000e+02 1.092646e-24
7.410000e+02 1.248936e-24
7.420000e+02 1.427055e-24
7.430000e+02 1.629978e-24
7.440000e+02 1.861072e-24
7.450000e+02 2.124156e-24
7.460000e+02 2.423548e-24
7.470000e+02 2.764137e-24
7.480000e+02 3.151455e-24
7.490000e+02 3.591754e-24
7.500000e+02 4.092105e-24
7.510000e+02 4.660497e-24
7.520000e+02 5.305956e-24
7.530000e+02 6.038675e-24
7.540000e+02 6.870158e-24
7.550000e+02 7.813393e-24
7.560000e+02 8.883026e-24
7.570000e+02 1.009558e-23
7.580000e+02 1.146967e-23
7.590000e+02 1.302630e-23
7.600000e+02 1.478911e-23
7.610000e+02 1.678472e-23
7.620000e+02 1.904313e-23
7.630000e+02 2.159808e-23
7.640000e+02 2.448753e-23
7.650000e+02 2.775420e-23
7.660000e+02 3.144608e-23
7.670000e+02 3.561717e-23
7.680000e+02 4.032809e-23
7.690000e+02 4.564696e-23
7.700000e+02 5.165029e-23
7.710000e+02 5.842392e-23
7.720000e+02 6.606424e-23
7.730000e+02 7.467932e-23
7.740000e+02 8.439041e-23
7.750000e+02 9.533344e-23
7.760000e+02 1.076607e-22
7.770000e+02 1.215430e-22
7.780000e+02 1.371713e-22
7.790000e+02 1.547599e-22
7.800000e+02 1.745482e-22
7.810000e+02 1.968046e-22
7.820000e+02 2.218289e-22
7.830000e+02 2.499566e-22
7.840000e+02 2.815629e-22
7.850000e+02 3.170670e-22
7.860000e+02 3.569371e-22
7.870000e+02 4.016967e-22
7.880000e+02 4.519298e-22
7.890000e+02 5.082888e-22
7.900000e+02 5.715016e-22
7.910000e+02 6.423802e-22
7.920000e+02 7.218303e-22
7.930000e+02 8.108620e-22
7.940000e+02 9.106008e-22
7.950000e+02 1.022302e-21
7.960000e+02 1.147362e-21
7.970000e+02 1.287337e-21
7.980000e+02 1.443962e-21
7.990000e+02 1.619164e-21
8.000000e+02 1.815090e-21
8.010000e+02 2.034128e-21
8.020000e+02 2.278934e-21
8.030000e+02 2.552459e-21
8.040000e+02 2.857986e-21
8.050000e+02 3.199160e-21
8.060000e+02 3.580033e-21
8.070000e+02 4.005103e-21
8.080000e+02 4.479364e-21
8.090000e+02 5.008361e-21
8.100000e+02 5.598244e-21
8.110000e+02 6.255837e-21
8.120000e+02 6.988709e-21
8.130000e+02 7.805251e-21
8.140000e+02 8.714763e-21
8.150000e+02 9.727552e-21
8.160000e+02 1.085503e-20
8.170000e+02 1.210986e-20
8.180000e+02 1.350602e-20
8.190000e+02 1.505903e-20
8.200000e+02 1.678602e-20
8.210000e+02 1.870599e-20
8.220000e+02 2.083991e-20
8.230000e+02 2.321100e-20
8.240000e+02 2.584491e-20
8.250000e+02 2.877000e-20
8.260000e+02 3.201760e-20
8.270000e+02 3.562231e-20
8.280000e+02 3.962236e-20
8.290000e+02 4.405995e-20
8.300000e+02 4.898164e-20
8.310000e+02 5.443884e-20
8.320000e+02 6.048825e-20
8.330000e+02 6.719239e-20
8.340000e+02 7.462024e-20
8.350000e+02 8.284780e-20
8.360000e+02 9.195884e-20
8.370000e+02 1.020457e-19
8.380000e+02 1.132100e-19
8.390000e+02 1.255638e-19
8.400000e+02 1.392304e-19
8.410000e+02 1.543454e-19
8.420000e+02 1.710582e-19
8.430000e+02 1.895331e-19
8.440000e+02 2.099510e-19
8.450000e+02 2.325104e-19
8.460000e+02 2.574299e-19
8.470000e+02 2.849497e-19
8.480000e+02 3.153337e-19
8.490000e+02 3.488718e-19
8.500000e+02 3.858825e-19
8.510000e+02 4.267155e-19
8.520000e+02 4.717546e-19
8.530000e+02 5.214212e-19
8.540000e+02 5.761778e-19
8.550000e+02 6.365315e-19
8.560000e+02 7.030386e-19
8.570000e+02 7.763094e-19
8.580000e+02 8.570125e-19
8.590000e+02 9.458811e-19
8.600000e+02 1.043718e-18
8.610000e+02 1.151404e-18
8.620000e+02 1.269903e-18
8.630000e+02 1.400270e-18
8.640000e+02 1.543660e-18
8.650000e+02 1.701340e-18
8.660000e+02 1.874691e-18
8.670000e+02 2.065230e-18
8.680000e+02 2.274612e-18
8.690000e+02 2.504649e-18
8.700000e+02 2.757321e-18
8.710000e+02 3.034793e-18
8.720000e+02 3.339431e-18
8.730000e+02 3.673820e-18
8.740000e+02 4.040783e-18
8.750000e+02 4.443405e-18
8.760000e+02 4.885052e-18
8.770000e+02 5.369401e-18
8.780000e+02 5.900463e-18
8.790000e+02 6.482618e-18
8.800000e+02 7.120640e-18
8.810000e+02 7.819740e-18
8.820000e+02 8.585597e-18
8.830000e+02 9.424407e-18
8.840000e+02 1.034292e-17
8.850000e+02 1.134850e-17
8.860000e+02 1.244915e-17
8.870000e+02 1.365361e-17
8.880000e+02 1.497140e-17
8.890000e+02 1.641287e-17
8.900000e+02 1.798930e-17
8.910000e+02 1.971296e-17
8.920000e+02 2.159720e-17
8.930000e+02 2.365656e-17
8.940000e+02 2.590685e-17
8.950000e+02 2.836525e-17
8.960000e+02 3.105046e-17
8.970000e+02 3.398281e-17
8.980000e+02 3.718437e-17
8.990000e+02 4.067916e-17
9.000000e+02 4.449325e-17
9.010000e+02 4.865497e-17
9.020000e+02 5.319508e-17
9.030000e+02 5.814699e-17
9.040000e+02 6.354697e-17
9.050000e+02 6.943439e-17
9.060000e+02 7.585195e-17
9.070000e+02 8.284602e-17
9.080000e+02 9.046685e-17
9.090000e+02 9.876898e-17
9.100000e+02 1.078115e-16
9.110000e+02 1.176586e-16
9.120000e+02 1.283797e-16
9.130000e+02 1.400502e-16
9.140000e+02 1.553425e-16
9.150000e+02 1.400589e-14
9.160000e+02 1.087517e-13
9.170000e+02 3.515665e-14
9.180000e+02 1.891947e-14
9.190000e+02 3.503081e-13
9.200000e+02 1.143327e-12
9.210000e+02 2.789548e-16
9.220000e+02 1.746865e-12
9.230000e+02 9.171659e-15
9.240000e+02 8.628233e-14
9.250000e+02 1.258871e-12
9.260000e+02 3.189791e-14
9.270000e+02 9.666839e-14
9.280000e+02 9.893916e-12
9.290000e+02 8.962916e-12
9.300000e+02 1.631512e-12
9.310000e+02 2.768441e-14
9.320000e+02 7.308851e-12
9.330000e+02 1.330746e-11
9.340000e+02 7.473045e-12
9.350000e+02 2.946703e-14
9.360000e+02 7.025720e-13
9.370000e+02 8.535368e-15
9.380000e+02 9.684093e-15
9.390000e+02 1.475083e-12
9.400000e+02 2.281133e-11
9.410000e+02 2.761580e-13
9.420000e+02 4.335123e-11
9.430000e+02 4.884974e-12
9.440000e+02 5.092033e-11
9.450000e+02 5.050403e-11
9.460000e+02 3.599202e-11
9.470000e+02 3.698777e-14
9.480000e+02 4.488026e-12
9.490000e+02 9.214462e-13
9.500000e+02 9.479037e-15
9.510000e+02 6.656409e-12
9.520000e+02 3.177594e-11
9.530000e+02 1.235592e-12
9.540000e+02 5.508170e-14
9.550000e+02 1.003558e-11
9.560000e+02 9.012700e-12
9.570000e+02 2.742834e-12
9.580000e+02 2.758904e-14
9.590000e+02 1.345498e-10
9.600000e+02 6.589174e-14
9.610000e+02 1.454309e-10
9.620000e+02 9.675448e-11
9.630000e+02 3.620465e-12
9.640000e+02 1.251173e-12
9.650000e+02 1.664641e-13
9.660000e+02 2.151353e-11
9.670000e+02 1.949246e-12
9.680000e+02 1.400970e-12
9.690000e+02 4.794400e-11
9.700000e+02 5.342751e-11
9.710000e+02 2.306613e-12
9.720000e+02 2.043698e-13
9.730000e+02 2.522192e-13
9.740000e+02 1.267732e-11
9.750000e+02 3.203414e-11
9.760000e+02 1.858846e-10
9.770000e+02 2.653841e-10
9.780000e+02 2.665999e-10
9.790000e+02 4.931959e-10
9.800000e+02 5.631692e-10
9.810000e+02 2.929400e-10
9.820000e+02 5.963507e-11
9.830000e+02 7.520641e-10
9.840000e+02 1.808159e-11
9.850000e+02 1.264692e-10
9.860000e+02 8.452607e-11
9.870000e+02 9.785378e-10
9.880000e+02 7.479573e-13
9.890000e+02 9.087455e-10
9.900000e+02 9.238594e-10
9.910000e+02 6.984134e-11
9.920000e+02 2.602276e-13
9.930000e+02 9.252018e-10
9.940000e+02 1.352529e-13
9.950000e+02 4.259216e-11
9.960000e+02 3.894551e-12
9.970000e+02 8.824729e-13
9.980000e+02 1.741220e-09
9.990000e+02 9.264870e-11
1.000000e+03 2.378092e-09
1.001000e+03 2.080260e-09
1.002000e+03 2.686192e-09
1.003000e+03 8.891876e-11
1.004000e+03 1.573852e-12
1.005000e+03 6.005818e-10
1.006000e+03 3.240458e-09
1.007000e+03 3.503869e-09
1.008000e+03 3.385063e-09
1.009000e+03 5.389339e-11
1.010000e+03 3.457018e-09
1.011000e+03 3.480941e-09
1.012000e+03 4.010112e-09
1.013000e+03 4.087685e-09
1.014000e+03 1.310285e-12
1.015000e+03 3.647527e-12
1.016000e+03 4.179310e-10
1.017000e+03 1.204370e-12
1.018000e+03 1.368277e-10
1.019000e+03 4.281020e-12
1.020000e+03 2.553816e-09
1.021000e+03 5.610690e-11
1.022000e+03 2.707848e-10
1.023000e+03 1.568423e-11
1.024000e+03 8.693695e-11
1.025000e+03 1.308199e-12
1.026000e+03 1.086218e-12
1.027000e+03 4.492290e-11
1.028000e+03 5.202283e-12
1.029000e+03 2.827738e-12
1.030000e+03 1.783055e-09
1.031000e+03 6.560499e-09
1.032000e+03 9.893552e-09
1.033000e+03 8.359358e-11
1.034000e+03 8.400162e-09
1.035000e+03 3.499423e-12
1.036000e+03 7.258194e-12
1.037000e+03 5.420939e-08
1.038000e+03 7.988048e-08
1.039000e+03 8.072255e-08
1.040000e+03 6.706821e-08
1.041000e+03 8.488096e-08
1.042000e+03 1.250133e-07
1.043000e+03 6.068069e-08
1.044000e+03 1.597028e-07
1.045000e+03 7.011041e-12
1.046000e+03 8.863233e-08
1.047000e+03 6.298147e-08
1.048000e+03 4.387886e-10
1.049000e+03 6.233305e-08
1.050000e+03 5.180198e-09
1.051000e+03 1.500553e-09
1.052000e+03 2.538769e-07
1.053000e+03 2.749374e-07
1.054000e+03 1.746514e-11
1.055000e+03 1.399495e-07
1.056000e+03 3.121442e-07
1.057000e+03 1.313775e-07
1.058000e+03 3.267360e-09
1.059000e+03 1.409575e-09
1.060000e+03 3.869616e-10
1.061000e+03 3.826406e-07
1.062000e+03 1.576055e-09
1.063000e+03 1.058869e-10
1.064000e+03 1.392664e-11
1.065000e+03 3.205969e-11
1.066000e+03 8.809423e-09
1.067000e+03 3.535825e-09
1.068000e+03 6.615950e-07
1.069000e+03 5.563307e-10
1.070000e+03 6.565131e-08
1.071000e+03 6.522393e-07
1.072000e+03 8.365752e-07
1.073000e+03 8.725465e-11
1.074000e+03 4.182044e-07
1.075000e+03 3.228715e-07
1.076000e+03 1.586084e-07
1.077000e+03 4.529852e-10
1.078000e+03 5.782340e-09
1.079000e+03 6.028555e-08
1.080000e+03 1.952112e-07
1.081000e+03 1.200327e-06
1.082000e+03 9.269913e-07
1.083000e+03 6.755774e-07
1.084000e+03 1.192925e-06
1.085000e+03 9.568225e-08
1.086000e+03 1.715180e-06
1.087000e+03 1.017099e-08
1.088000e+03 1.897813e-06
1.089000e+03 1.969598e-06
1.090000e+03 9.639187e-08
1.091000e+03 2.335474e-07
1.092000e+03 9.992371e-07
1.093000e+03 2.025644e-06
1.094000e+03 6.946797e-07
1.095000e+03 2.714713e-06
1.096000e+03 3.362993e-08
1.097000e+03 2.803463e-06
1.098000e+03 2.063092e-06
1.099000e+03 2.380477e-07
1.100000e+03 1.368857e-09
1.101000e+03 4.315201e-09
1.102000e+03 3.502693e-07
1.103000e+03 3.943170e-06
1.104000e+03 4.201864e-06
1.105000e+03 4.377737e-06
1.106000e+03 1.343529e-06
1.107000e+03 5.251422e-09
1.108000e+03 4.765486e-06
1.109000e+03 1.542326e-07
1.110000e+03 4.794847e-06
1.111000e+03 4.949016e-06
1.112000e+03 4.564210e-06
1.113000e+03 4.089516e-06
1.114000e+03 1.478000e-06
1.115000e+03 9.694986e-08
1.116000e+03 1.563653e-08
1.117000e+03 7.497021e-06
1.118000e+03 2.887000e-07
1.119000e+03 4.897857e-06
1.120000e+03 5.182483e-08
1.121000e+03 8.497660e-06
1.122000e+03 6.731058e-06
1.123000e+03 1.476467e-05
1.124000e+03 1.964732e-05
1.125000e+03 1.535318e-05
1.126000e+03 1.336404e-05
1.127000e+03 1.249481e-05
1.128000e+03 1.068074e-05
1.129000e+03 8.077822e-06
1.130000e+03 1.037614e-05
1.131000e+03 7.870161e-06
1.132000e+03 7.252629e-08
1.133000e+03 2.628083e-06
1.134000e+03 8.022527e-06
1.135000e+03 4.190353e-06
1.136000e+03 2.781832e-06
1.137000e+03 5.880533e-06
1.138000e+03 6.822413e-06
1.139000e+03 7.653888e-06
1.140000e+03 7.295596e-06
1.141000e+03 6.300820e-06
1.142000e+03 7.371568e-06
1.143000e+03 5.545211e-06
1.144000e+03 6.842745e-06
1.145000e+03 5.011452e-08
1.146000e+03 7.630817e-06
1.147000e+03 7.701992e-06
1.148000e+03 1.022911e-06
1.149000e+03 7.481755e-06
1.150000e+03 7.353406e-06
1.151000e+03 7.368365e-06
1.152000e+03 7.016415e-06
1.153000e+03 7.038152e-06
1.154000e+03 6.701641e-06
1.155000e+03 6.688102e-06
1.156000e+03 4.124779e-06
1.157000e+03 6.395864e-06
1.158000e+03 6.048177e-06
1.159000e+03 6.470430e-06
1.160000e+03 6.205179e-06
1.161000e+03 5.898557e-06
1.162000e+03 2.275402e-06
1.163000e+03 4.324128e-06
1.164000e+03 1.574244e-08
1.165000e+03 3.158135e-06
1.166000e+03 1.556322e-06
1.167000e+03 9.854308e-07
1.168000e+03 6.853238e-06
1.169000e+03 6.963725e-06
1.170000e+03 1.067016e-06
1.171000e+03 2.877965e-06
1.172000e+03 2.290923e-06
1.173000e+03 1.913425e-06
1.174000e+03 3.908999e-07
1.175000e+03 2.026991e-08
1.176000e+03 8.901452e-09
1.177000e+03 9.409599e-06
1.178000e+03 8.808735e-06
1.179000e+03 8.343758e-06
1.180000e+03 7.661210e-06
1.181000e+03 7.456964e-06
1.182000e+03 7.218550e-06
1.183000e+03 6.825917e-06
1.184000e+03 6.575384e-06
1.185000e+03 6.340485e-06
1.186000e+03 1.893767e-06
1.187000e+03 5.958815e-06
1.188000e+03 5.749736e-06
1.189000e+03 5.690654e-06
1.190000e+03 5.531725e-06
1.191000e+03 5.226871e-06
1.192000e+03 4.688938e-06
1.193000e+03 4.679489e-06
1.194000e+03 4.512699e-06
1.195000e+03 4.314640e-06
1.196000e+03 1.283561e-04
1.197000e+03 1.171773e-04
1.198000e+03 1.811429e-05
1.199000e+03 9.304991e-05
1.200000e+03 4.228241e-05
1.201000e+03 6.854497e-05
1.202000e+03 5.498317e-05
1.203000e+03 4.679233e-05
1.204000e+03 2.774345e-05
1.205000e+03 2.857404e-05
1.206000e+03 2.122032e-05
1.207000e+03 1.954023e-06
1.208000e+03 9.135021e-06
1.209000e+03 6.534708e-06
1.210000e+03 5.808943e-08
1.211000e+03 2.194970e-06
1.212000e+03 1.080377e-06
1.213000e+03 4.608844e-07
1.214000e+03 1.507659e-07
1.215000e+03 4.820838e-08
1.216000e+03 4.487574e-08
1.217000e+03 1.128381e-07
1.218000e+03 4.008660e-07
1.219000e+03 1.108641e-06
1.220000e+03 2.521611e-06
1.221000e+03 5.002284e-06
1.222000e+03 9.459511e-06
1.223000e+03 1.564243e-05
1.224000e+03 2.357098e-05
1.225000e+03 1.755492e-05
1.226000e+03 5.480202e-05
1.227000e+03 7.768984e-05
1.228000e+03 9.736415e-05
1.229000e+03 1.398647e-04
1.230000e+03 1.860762e-05
1.231000e+03 1.144202e-04
1.232000e+03 2.676762e-04
1.233000e+03 3.244259e-04
1.234000e+03 3.239813e-04
1.235000e+03 4.458351e-04
1.236000e+03 4.339935e-04
1.237000e+03 5.794435e-04
1.238000e+03 6.518386e-04
1.239000e+03 6.891639e-04
1.240000e+03 4.987506e-05
1.241000e+03 7.587995e-04
1.242000e+03 9.515645e-04
1.243000e+03 1.035282e-03
1.244000e+03 1.126554e-03
1.245000e+03 1.083365e-03
1.246000e+03 1.251754e-03
1.247000e+03 1.313865e-03
1.248000e+03 3.962261e-04
1.249000e+03 1.447286e-03
1.250000e+03 1.424425e-03
1.251000e+03 1.709972e-03
1.252000e+03 1.593633e-03
1.253000e+03 1.820051e-03
1.254000e+03 1.775819e-03
1.255000e+03 1.669715e-04
1.256000e+03 1.628671e-03
1.257000e+03 1.049926e-03
1.258000e+03 1.596270e-03
1.259000e+03 2.047035e-03
1.260000e+03 2.145530e-03
1.261000e+03 3.325846e-05
1.262000e+03 2.229483e-03
1.263000e+03 1.443878e-03
1.264000e+03 2.081247e-03
1.265000e+03 2.203913e-03
1.266000e+03 2.820668e-03
1.267000e+03 3.079514e-03
