# wavelength_A flux
5.000000e+02 2.592402e-43
5.010000e+02 3.461207e-43
5.020000e+02 4.596259e-43
5.030000e+02 6.123674e-43
5.040000e+02 8.127531e-43
5.050000e+02 1.079000e-42
5.060000e+02 1.429324e-42
5.070000e+02 1.891753e-42
5.080000e+02 2.501318e-42
5.090000e+02 3.304262e-42
5.100000e+02 4.355236e-42
5.110000e+02 5.742521e-42
5.120000e+02 7.557203e-42
5.130000e+02 9.936607e-42
5.140000e+02 1.305029e-41
5.150000e+02 1.712106e-41
5.160000e+02 2.243759e-41
5.170000e+02 2.937402e-41
5.180000e+02 3.841520e-41
5.190000e+02 5.018470e-41
5.200000e+02 6.549109e-41
5.210000e+02 8.537971e-41
5.220000e+02 1.111902e-40
5.230000e+02 1.446574e-40
5.240000e+02 1.880052e-40
5.250000e+02 2.440922e-40
5.260000e+02 3.165940e-40
5.270000e+02 4.102175e-40
5.280000e+02 5.309968e-40
5.290000e+02 6.866545e-40
5.300000e+02 8.870668e-40
5.310000e+02 1.144848e-39
5.320000e+02 1.476100e-39
5.330000e+02 1.901348e-39
5.340000e+02 2.446744e-39
5.350000e+02 3.145566e-39
5.360000e+02 4.040121e-39
5.370000e+02 5.183410e-39
5.380000e+02 6.645867e-39
5.390000e+02 8.511729e-39
5.400000e+02 1.089127e-38
5.410000e+02 1.392311e-38
5.420000e+02 1.778252e-38
5.430000e+02 2.269090e-38
5.440000e+02 2.892769e-38
5.450000e+02 3.684524e-38
5.460000e+02 4.688751e-38
5.470000e+02 5.961328e-38
5.480000e+02 7.572532e-38
5.490000e+02 9.610670e-38
5.500000e+02 1.218660e-37
5.510000e+02 1.543940e-37
5.520000e+02 1.954333e-37
5.530000e+02 2.471665e-37
5.540000e+02 3.123241e-37
5.550000e+02 3.943194e-37
5.560000e+02 4.974160e-37
5.570000e+02 6.269345e-37
5.580000e+02 7.895096e-37
5.590000e+02 9.934077e-37
5.600000e+02 1.248919e-36
5.610000e+02 1.568845e-36
5.620000e+02 1.969094e-36
5.630000e+02 2.469422e-36
5.640000e+02 3.094346e-36
5.650000e+02 3.874260e-36
5.660000e+02 4.846821e-36
5.670000e+02 6.058644e-36
5.680000e+02 7.567386e-36
5.690000e+02 9.444309e-36
5.700000e+02 1.177742e-35
5.710000e+02 1.467533e-35
5.720000e+02 1.827194e-35
5.730000e+02 2.273226e-35
5.740000e+02 2.825944e-35
5.750000e+02 3.510340e-35
5.760000e+02 4.357137e-35
5.770000e+02 5.404076e-35
5.780000e+02 6.697483e-35
5.790000e+02 8.294179e-35
5.800000e+02 1.026381e-34
5.810000e+02 1.269167e-34
5.820000e+02 1.568215e-34
5.830000e+02 1.936292e-34
5.840000e+02 2.388998e-34
5.850000e+02 2.945391e-34
5.860000e+02 3.628720e-34
5.870000e+02 4.467338e-34
5.880000e+02 5.495798e-34
5.890000e+02 6.756175e-34
5.900000e+02 8.299671e-34
5.910000e+02 1.018855e-33
5.920000e+02 1.249846e-33
5.930000e+02 1.532129e-33
5.940000e+02 1.876853e-33
5.950000e+02 2.297538e-33
5.960000e+02 2.810569e-33
5.970000e+02 3.435789e-33
5.980000e+02 4.197213e-33
5.990000e+02 5.123882e-33
6.000000e+02 6.250899e-33
6.010000e+02 7.620657e-33
6.020000e+02 9.284329e-33
6.030000e+02 1.130364e-32
6.040000e+02 1.375298e-32
6.050000e+02 1.672200e-32
6.060000e+02 2.031857e-32
6.070000e+02 2.467253e-32
6.080000e+02 2.993994e-32
6.090000e+02 3.630833e-32
6.100000e+02 4.400288e-32
6.110000e+02 5.329383e-32
6.120000e+02 6.450525e-32
6.130000e+02 7.802557e-32
6.140000e+02 9.432000e-32
6.150000e+02 1.139455e-31
6.160000e+02 1.375682e-31
6.170000e+02 1.659847e-31
6.180000e+02 2.001468e-31
6.190000e+02 2.411908e-31
6.200000e+02 2.904731e-31
6.210000e+02 3.496113e-31
6.220000e+02 4.205334e-31
6.230000e+02 5.055365e-31
6.240000e+02 6.073550e-31
6.250000e+02 7.292429e-31
6.260000e+02 8.750693e-31
6.270000e+02 1.049433e-30
6.280000e+02 1.257795e-30
6.290000e+02 1.506641e-30
6.300000e+02 1.803662e-30
6.310000e+02 2.157980e-30
6.320000e+02 2.580404e-30
6.330000e+02 3.083737e-30
6.340000e+02 3.683132e-30
6.350000e+02 4.396519e-30
6.360000e+02 5.245096e-30
6.370000e+02 6.253915e-30
6.380000e+02 7.452563e-30
6.390000e+02 8.875966e-30
6.400000e+02 1.056533e-29
6.410000e+02 1.256924e-29
6.420000e+02 1.494497e-29
6.430000e+02 1.775995e-29
6.440000e+02 2.109358e-29
6.450000e+02 2.503930e-29
6.460000e+02 2.970696e-29
6.470000e+02 3.522570e-29
6.480000e+02 4.174721e-29
6.490000e+02 4.944960e-29
6.500000e+02 5.854188e-29
6.510000e+02 6.926921e-29
6.520000e+02 8.191897e-29
6.530000e+02 9.682792e-29
6.540000e+02 1.143904e-28
6.550000e+02 1.350680e-28
6.560000e+02 1.594007e-28
6.570000e+02 1.880199e-28
6.580000e+02 2.216637e-28
6.590000e+02 2.611941e-28
6.600000e+02 3.076176e-28
6.610000e+02 3.621088e-28
6.620000e+02 4.260377e-28
6.630000e+02 5.010014e-28
6.640000e+02 5.888613e-28
6.650000e+02 6.917849e-28
6.660000e+02 8.122956e-28
6.670000e+02 9.533298e-28
6.680000e+02 1.118302e-27
6.690000e+02 1.311182e-27
6.700000e+02 1.536583e-27
6.710000e+02 1.799859e-27
6.720000e+02 2.107230e-27
6.730000e+02 2.465909e-27
6.740000e+02 2.884263e-27
6.750000e+02 3.371989e-27
6.760000e+02 3.940325e-27
6.770000e+02 4.602282e-27
6.780000e+02 5.372925e-27
6.790000e+02 6.269684e-27
6.800000e+02 7.312714e-27
6.810000e+02 8.525318e-27
6.820000e+02 9.934419e-27
6.830000e+02 1.157111e-26
6.840000e+02 1.347130e-26
6.850000e+02 1.567641e-26
6.860000e+02 1.823421e-26
6.870000e+02 2.119979e-26
6.880000e+02 2.463664e-26
6.890000e+02 2.861787e-26
6.900000e+02 3.322768e-26
6.910000e+02 3.856298e-26
6.920000e+02 4.473521e-26
6.930000e+02 5.187258e-26
6.940000e+02 6.012242e-26
6.950000e+02 6.965401e-26
6.960000e+02 8.066175e-26
6.970000e+02 9.336881e-26
6.980000e+02 1.080313e-25
6.990000e+02 1.249429e-25
7.000000e+02 1.444403e-25
7.010000e+02 1.669097e-25
7.020000e+02 1.927929e-25
7.030000e+02 2.225965e-25
7.040000e+02 2.568997e-25
7.050000e+02 2.963658e-25
7.060000e+02 3.417530e-25
7.070000e+02 3.939283e-25
7.080000e+02 4.538824e-25
7.090000e+02 5.227472e-25
7.100000e+02 6.018148e-25
7.110000e+02 6.925605e-25
7.120000e+02 7.966671e-25
7.130000e+02 9.160543e-25
7.140000e+02 1.052910e-24
7.150000e+02 1.209729e-24
7.160000e+02 1.389352e-24
7.170000e+02 1.595014e-24
7.180000e+02 1.830397e-24
7.190000e+02 2.099693e-24
7.200000e+02 2.407667e-24
7.210000e+02 2.759740e-24
7.220000e+02 3.162069e-24
7.230000e+02 3.621654e-24
7.240000e+02 4.146442e-24
7.250000e+02 4.745456e-24
7.260000e+02 5.428937e-24
7.270000e+02 6.208501e-24
7.280000e+02 7.097322e-24
7.290000e+02 8.110333e-24
7.300000e+02 9.264461e-24
7.310000e+02 1.057887e-23
7.320000e+02 1.207528e-23
7.330000e+02 1.377825e-23
7.340000e+02 1.571560e-23
7.350000e+02 1.791877e-23
7.360000e+02 2.042333e-23
7.370000e+02 2.326949e-23
7.380000e+02 2.650267e-23
7.390000e+02 3.017417e-23
7.400000e+02 3.434195e-23
7.410000e+02 3.907139e-23
7.420000e+02 4.443629e-23
7.430000e+02 5.051989e-23
7.440000e+02 5.741605e-23
7.450000e+02 6.523055e-23
7.460000e+02 7.408262e-23
7.470000e+02 8.410654e-23
7.480000e+02 9.545352e-23
7.490000e+02 1.082938e-22
7.500000e+02 1.228188e-22
7.510000e+02 1.392442e-22
7.520000e+02 1.578121e-22
7.530000e+02 1.787950e-22
7.540000e+02 2.024990e-22
7.550000e+02 2.292678e-22
7.560000e+02 2.594879e-22
7.570000e+02 2.935926e-22
7.580000e+02 3.320687e-22
7.590000e+02 3.754620e-22
7.600000e+02 4.243849e-22
7.610000e+02 4.795239e-22
7.620000e+02 5.416487e-22
7.630000e+02 6.116214e-22
7.640000e+02 6.904079e-22
7.650000e+02 7.790900e-22
7.660000e+02 8.788782e-22
7.670000e+02 9.911278e-22
7.680000e+02 1.117354e-21
7.690000e+02 1.259253e-21
7.700000e+02 1.418720e-21
7.710000e+02 1.597874e-21
7.720000e+02 1.799081e-21
7.730000e+02 2.024987e-21
7.740000e+02 2.278542e-21
7.750000e+02 2.563045e-21
7.760000e+02 2.882173e-21
7.770000e+02 3.240031e-21
7.780000e+02 3.641195e-21
7.790000e+02 4.090769e-21
7.800000e+02 4.594442e-21
7.810000e+02 5.158554e-21
7.820000e+02 5.790164e-21
7.830000e+02 6.497139e-21
7.840000e+02 7.288233e-21
7.850000e+02 8.173191e-21
7.860000e+02 9.162858e-21
7.870000e+02 1.026929e-20
7.880000e+02 1.150591e-20
7.890000e+02 1.288762e-20
7.900000e+02 1.443100e-20
7.910000e+02 1.615446e-20
7.920000e+02 1.807845e-20
7.930000e+02 2.022568e-20
7.940000e+02 2.262138e-20
7.950000e+02 2.529351e-20
7.960000e+02 2.827313e-20
7.970000e+02 3.159467e-20
7.980000e+02 3.529633e-20
7.990000e+02 3.942044e-20
8.000000e+02 4.401391e-20
8.010000e+02 4.912873e-20
8.020000e+02 5.482247e-20
8.030000e+02 6.115891e-20
8.040000e+02 6.820863e-20
8.050000e+02 7.604977e-20
8.060000e+02 8.476876e-20
8.070000e+02 9.446123e-20
8.080000e+02 1.052329e-19
8.090000e+02 1.172008e-19
8.100000e+02 1.304940e-19
8.110000e+02 1.452553e-19
8.120000e+02 1.616426e-19
8.130000e+02 1.798299e-19
8.140000e+02 2.000097e-19
8.150000e+02 2.223942e-19
8.160000e+02 2.472178e-19
8.170000e+02 2.747390e-19
8.180000e+02 3.052429e-19
8.190000e+02 3.390439e-19
8.200000e+02 3.764885e-19
8.210000e+02 4.179589e-19
8.220000e+02 4.638758e-19
8.230000e+02 5.147030e-19
8.240000e+02 5.709510e-19
8.250000e+02 6.331820e-19
8.260000e+02 7.020149e-19
8.270000e+02 7.781307e-19
8.280000e+02 8.622786e-19
8.290000e+02 9.552827e-19
8.300000e+02 1.058049e-18
8.310000e+02 1.171574e-18
8.320000e+02 1.296953e-18
8.330000e+02 1.435389e-18
8.340000e+02 1.588204e-18
8.350000e+02 1.756849e-18
8.360000e+02 1.942919e-18
8.370000e+02 2.148164e-18
8.380000e+02 2.374504e-18
8.390000e+02 2.624047e-18
8.400000e+02 2.899104e-18
8.410000e+02 3.202212e-18
8.420000e+02 3.536150e-18
8.430000e+02 3.903966e-18
8.440000e+02 4.309000e-18
8.450000e+02 4.754911e-18
8.460000e+02 5.245709e-18
8.470000e+02 5.785785e-18
8.480000e+02 6.379945e-18
8.490000e+02 7.033452e-18
8.500000e+02 7.752066e-18
8.510000e+02 8.542090e-18
8.520000e+02 9.410417e-18
8.530000e+02 1.036459e-17
8.540000e+02 1.141285e-17
8.550000e+02 1.256421e-17
8.560000e+02 1.382852e-17
8.570000e+02 1.521655e-17
8.580000e+02 1.674005e-17
8.590000e+02 1.841188e-17
8.600000e+02 2.024605e-17
8.610000e+02 2.225788e-17
8.620000e+02 2.446407e-17
8.630000e+02 2.688288e-17
8.640000e+02 2.953419e-17
8.650000e+02 3.243972e-17
8.660000e+02 3.562312e-17
8.670000e+02 3.911022e-17
8.680000e+02 4.292914e-17
8.690000e+02 4.711055e-17
8.700000e+02 5.168784e-17
8.710000e+02 5.669742e-17
8.720000e+02 6.217893e-17
8.730000e+02 6.817552e-17
8.740000e+02 7.473420e-17
8.750000e+02 8.190611e-17
8.760000e+02 8.974691e-17
8.770000e+02 9.831716e-17
8.780000e+02 1.076827e-16
8.790000e+02 1.179153e-16
8.800000e+02 1.290927e-16
8.810000e+02 1.412997e-16
8.820000e+02 1.546284e-16
8.830000e+02 1.691786e-16
8.840000e+02 1.850592e-16
8.850000e+02 2.023881e-16
8.860000e+02 2.212936e-16
8.870000e+02 2.419148e-16
8.880000e+02 2.644028e-16
8.890000e+02 2.889217e-16
8.900000e+02 3.156494e-16
8.910000e+02 3.447790e-16
8.920000e+02 3.765200e-16
8.930000e+02 4.110993e-16
8.940000e+02 4.487634e-16
8.950000e+02 4.897792e-16
8.960000e+02 5.344360e-16
8.970000e+02 5.830474e-16
8.980000e+02 6.359532e-16
8.990000e+02 6.935214e-16
9.000000e+02 7.561504e-16
9.010000e+02 8.242720e-16
9.020000e+02 8.983533e-16
9.030000e+02 9.789000e-16
9.040000e+02 1.066459e-15
9.050000e+02 1.161624e-15
9.060000e+02 1.265033e-15
9.070000e+02 1.377381e-15
9.080000e+02 1.499417e-15
9.090000e+02 1.631950e-15
9.100000e+02 1.775856e-15
9.110000e+02 1.932082e-15
9.120000e+02 2.101650e-15
9.130000e+02 2.285665e-15
9.140000e+02 2.765366e-15
9.150000e+02 1.134840e-12
9.160000e+02 8.892537e-12
9.170000e+02 1.305348e-12
9.180000e+02 1.508291e-12
9.190000e+02 2.764587e-11
9.200000e+02 8.691921e-11
9.210000e+02 4.443118e-15
9.220000e+02 1.192207e-10
9.230000e+02 5.371228e-13
9.240000e+02 2.391420e-12
9.250000e+02 5.152672e-11
9.260000e+02 2.431701e-12
9.270000e+02 2.758575e-12
9.280000e+02 6.891213e-10
9.290000e+02 6.497794e-10
9.300000e+02 1.198864e-10
9.310000e+02 1.495288e-12
9.320000e+02 5.101974e-10
9.330000e+02 5.607588e-10
9.340000e+02 1.730351e-10
9.350000e+02 1.122639e-12
9.360000e+02 1.590057e-11
9.370000e+02 3.799769e-13
9.380000e+02 6.322047e-13
9.390000e+02 5.231190e-11
9.400000e+02 1.425004e-09
9.410000e+02 4.524722e-11
9.420000e+02 2.767276e-09
9.430000e+02 1.300002e-10
9.440000e+02 3.242608e-09
9.450000e+02 3.196150e-09
9.460000e+02 1.615343e-09
9.470000e+02 9.164336e-13
9.480000e+02 7.634978e-10
9.490000e+02 6.487660e-11
9.500000e+02 7.203980e-13
9.510000e+02 4.028854e-10
9.520000e+02 1.760683e-09
9.530000e+02 2.240344e-11
9.540000e+02 1.069653e-12
9.550000e+02 2.684279e-10
9.560000e+02 4.572527e-09
9.570000e+02 7.393464e-11
9.580000e+02 2.976508e-13
9.590000e+02 6.195308e-09
9.600000e+02 2.892353e-12
9.610000e+02 4.925727e-09
9.620000e+02 2.077512e-09
9.630000e+02 9.461232e-11
9.640000e+02 2.837752e-11
9.650000e+02 4.026113e-12
9.660000e+02 3.507488e-10
9.670000e+02 3.463718e-11
9.680000e+02 2.396838e-11
9.690000e+02 1.529462e-09
9.700000e+02 2.347771e-09
9.710000e+02 5.467547e-11
9.720000e+02 7.590262e-12
9.730000e+02 1.467254e-11
9.740000e+02 7.010520e-10
9.750000e+02 7.357710e-10
9.760000e+02 9.986840e-09
9.770000e+02 1.159314e-08
9.780000e+02 8.660754e-09
9.790000e+02 2.693958e-08
9.800000e+02 2.977226e-08
9.810000e+02 5.903795e-09
9.820000e+02 7.902266e-10
9.830000e+02 3.811795e-08
9.840000e+02 6.739452e-10
9.850000e+02 2.165850e-09
9.860000e+02 2.739892e-09
9.870000e+02 4.628296e-08
9.880000e+02 1.791278e-11
9.890000e+02 3.040921e-08
9.900000e+02 4.226431e-08
9.910000e+02 9.683465e-10
9.920000e+02 2.605246e-12
9.930000e+02 5.612407e-08
9.940000e+02 2.489564e-12
9.950000e+02 1.934263e-09
9.960000e+02 9.939782e-11
9.970000e+02 2.444279e-10
9.980000e+02 7.048146e-08
9.990000e+02 1.345288e-09
1.000000e+03 1.195642e-07
1.001000e+03 1.029024e-07
1.002000e+03 1.274943e-07
1.003000e+03 1.286176e-09
1.004000e+03 2.843592e-11
1.005000e+03 8.638906e-09
1.006000e+03 1.441466e-07
1.007000e+03 1.648601e-07
1.008000e+03 1.373628e-07
1.009000e+03 1.471269e-09
1.010000e+03 1.325036e-07
1.011000e+03 1.286697e-07
1.012000e+03 1.649139e-07
1.013000e+03 1.694984e-07
1.014000e+03 1.305267e-11
1.015000e+03 7.392487e-11
1.016000e+03 9.612791e-09
1.017000e+03 8.228085e-12
1.018000e+03 1.869061e-09
1.019000e+03 6.239986e-11
1.020000e+03 1.148195e-07
1.021000e+03 3.197648e-09
1.022000e+03 6.455618e-09
1.023000e+03 2.566463e-10
1.024000e+03 5.072471e-09
1.025000e+03 1.080960e-11
1.026000e+03 1.862321e-11
1.027000e+03 2.226951e-09
1.028000e+03 1.672156e-10
1.029000e+03 2.126654e-11
1.030000e+03 3.394511e-08
1.031000e+03 1.482048e-07
1.032000e+03 4.227385e-07
1.033000e+03 2.280899e-09
1.034000e+03 1.756095e-07
1.035000e+03 9.117684e-11
1.036000e+03 6.701839e-11
1.037000e+03 1.564183e-06
1.038000e+03 3.015972e-06
1.039000e+03 2.220514e-06
1.040000e+03 1.472567e-06
1.041000e+03 3.641942e-06
1.042000e+03 4.191569e-06
1.043000e+03 2.470939e-06
1.044000e+03 6.077480e-06
1.045000e+03 1.232491e-10
1.046000e+03 1.850560e-06
1.047000e+03 1.061253e-06
1.048000e+03 5.300990e-09
1.049000e+03 8.708685e-07
1.050000e+03 9.086466e-08
1.051000e+03 3.452988e-08
1.052000e+03 7.632841e-06
1.053000e+03 8.912937e-06
1.054000e+03 1.282388e-10
1.055000e+03 8.640326e-06
1.056000e+03 1.041057e-05
1.057000e+03 2.958946e-06
1.058000e+03 3.744045e-08
1.059000e+03 2.368779e-08
1.060000e+03 6.858500e-09
1.061000e+03 8.283609e-06
1.062000e+03 1.793677e-08
1.063000e+03 4.500644e-08
1.064000e+03 2.692104e-10
1.065000e+03 2.146407e-10
1.066000e+03 5.015056e-06
1.067000e+03 4.389320e-08
1.068000e+03 2.163825e-05
1.069000e+03 6.878885e-09
1.070000e+03 7.731851e-07
1.071000e+03 1.613967e-05
1.072000e+03 2.783395e-05
1.073000e+03 8.349161e-10
1.074000e+03 5.661633e-06
1.075000e+03 3.147792e-06
1.076000e+03 1.649523e-05
1.077000e+03 1.032913e-08
1.078000e+03 6.151095e-08
1.079000e+03 5.313095e-07
1.080000e+03 3.666376e-06
1.081000e+03 2.811038e-05
1.082000e+03 1.712024e-05
1.083000e+03 9.084903e-06
1.084000e+03 4.790685e-05
1.085000e+03 1.057251e-06
1.086000e+03 5.143489e-05
1.087000e+03 1.209992e-07
1.088000e+03 6.049614e-05
1.089000e+03 6.337318e-05
1.090000e+03 8.369080e-07
1.091000e+03 1.857399e-06
1.092000e+03 6.671663e-05
1.093000e+03 7.462451e-05
1.094000e+03 1.403397e-05
1.095000e+03 8.575871e-05
1.096000e+03 1.118584e-06
1.097000e+03 7.779980e-05
1.098000e+03 8.714225e-05
1.099000e+03 3.226654e-06
1.100000e+03 1.786168e-08
1.101000e+03 6.331260e-08
1.102000e+03 3.046399e-06
1.103000e+03 1.222193e-04
1.104000e+03 1.232627e-04
1.105000e+03 1.339262e-04
1.106000e+03 2.180623e-05
1.107000e+03 5.550828e-08
1.108000e+03 1.166197e-04
1.109000e+03 1.358858e-06
1.110000e+03 1.594537e-04
1.111000e+03 1.450593e-04
1.112000e+03 8.048111e-05
1.113000e+03 1.078541e-04
1.114000e+03 3.825992e-05
1.115000e+03 1.098870e-06
1.116000e+03 1.996014e-07
1.117000e+03 2.125862e-04
1.118000e+03 2.586406e-06
1.119000e+03 7.727167e-05
1.120000e+03 5.199399e-07
1.121000e+03 2.204282e-04
1.122000e+03 3.095989e-04
1.123000e+03 3.932488e-04
1.124000e+03 5.104429e-04
1.125000e+03 3.610845e-04
1.126000e+03 4.366766e-04
1.127000e+03 3.209862e-04
1.128000e+03 2.725389e-04
1.129000e+03 1.846110e-04
1.130000e+03 2.975282e-04
1.131000e+03 2.169074e-04
1.132000e+03 8.952265e-07
1.133000e+03 2.803726e-05
1.134000e+03 2.059203e-04
1.135000e+03 2.031636e-04
1.136000e+03 4.405185e-05
1.137000e+03 1.837734e-04
1.138000e+03 1.640720e-04
1.139000e+03 2.256124e-04
1.140000e+03 2.122350e-04
1.141000e+03 2.104595e-04
1.142000e+03 2.170747e-04
1.143000e+03 1.344052e-04
1.144000e+03 2.083173e-04
1.145000e+03 5.589100e-07
1.146000e+03 2.255494e-04
1.147000e+03 2.273124e-04
1.148000e+03 8.751871e-06
1.149000e+03 2.143544e-04
1.150000e+03 2.103891e-04
1.151000e+03 2.163029e-04
1.152000e+03 1.998557e-04
1.153000e+03 2.079141e-04
1.154000e+03 2.024038e-04
1.155000e+03 1.944638e-04
1.156000e+03 1.448873e-04
1.157000e+03 1.861641e-04
1.158000e+03 1.483763e-04
1.159000e+03 1.909362e-04
1.160000e+03 1.667403e-04
1.161000e+03 1.745540e-04
1.162000e+03 3.537751e-05
1.163000e+03 1.028996e-04
1.164000e+03 3.486784e-07
1.165000e+03 9.444326e-05
1.166000e+03 4.773804e-05
1.167000e+03 3.074279e-05
1.168000e+03 1.999870e-04
1.169000e+03 2.043477e-04
1.170000e+03 3.240526e-05
1.171000e+03 8.678404e-05
1.172000e+03 6.875457e-05
1.173000e+03 5.837257e-05
1.174000e+03 4.207162e-06
1.175000e+03 3.294117e-07
1.176000e+03 8.699135e-08
1.177000e+03 2.695572e-04
1.178000e+03 2.532161e-04
1.179000e+03 2.394198e-04
1.180000e+03 2.169330e-04
1.181000e+03 2.146993e-04
1.182000e+03 2.077668e-04
1.183000e+03 1.930522e-04
1.184000e+03 1.858513e-04
1.185000e+03 1.791529e-04
1.186000e+03 2.426138e-05
1.187000e+03 1.714330e-04
1.188000e+03 1.601967e-04
1.189000e+03 1.639663e-04
1.190000e+03 1.594082e-04
1.191000e+03 1.503287e-04
1.192000e+03 1.354082e-04
1.193000e+03 1.345563e-04
1.194000e+03 1.300605e-04
1.195000e+03 1.242819e-04
1.196000e+03 3.139363e-03
1.197000e+03 2.911784e-03
1.198000e+03 1.503869e-04
1.199000e+03 2.346804e-03
1.200000e+03 6.193047e-04
1.201000e+03 1.754133e-03
1.202000e+03 1.389571e-03
1.203000e+03 1.219423e-03
1.204000e+03 5.153150e-04
1.205000e+03 7.589979e-04
1.206000e+03 5.709359e-04
1.207000e+03 6.461414e-05
1.208000e+03 2.514207e-04
1.209000e+03 1.816572e-04
1.210000e+03 6.239134e-07
1.211000e+03 6.175709e-05
1.212000e+03 2.975465e-05
1.213000e+03 1.221589e-05
1.214000e+03 3.593539e-06
1.215000e+03 4.627343e-07
1.216000e+03 3.644754e-07
1.217000e+03 2.276445e-06
1.218000e+03 1.030334e-05
1.219000e+03 2.951831e-05
1.220000e+03 6.608227e-05
1.221000e+03 1.381958e-04
1.222000e+03 2.556982e-04
1.223000e+03 4.151476e-04
1.224000e+03 5.998018e-04
1.225000e+03 2.159927e-04
1.226000e+03 1.388514e-03
1.227000e+03 1.965817e-03
1.228000e+03 1.889540e-03
1.229000e+03 3.394129e-03
1.230000e+03 3.046984e-03
1.231000e+03 1.520905e-03
1.232000e+03 6.276737e-03
1.233000e+03 7.524101e-03
1.234000e+03 7.399350e-03
1.235000e+03 1.008397e-02
1.236000e+03 6.756321e-03
1.237000e+03 1.291309e-02
1.238000e+03 1.440646e-02
1.239000e+03 1.466620e-02
1.240000e+03 1.604438e-03
1.241000e+03 1.596065e-02
1.242000e+03 2.039730e-02
1.243000e+03 2.219601e-02
1.244000e+03 2.394613e-02
1.245000e+03 2.529197e-02
1.246000e+03 2.595371e-02
1.247000e+03 2.802978e-02
1.248000e+03 1.984928e-02
1.249000e+03 3.146528e-02
1.250000e+03 2.689850e-02
1.251000e+03 3.525786e-02
1.252000e+03 3.446111e-02
1.253000e+03 3.737684e-02
1.254000e+03 3.660928e-02
1.255000e+03 5.781665e-03
1.256000e+03 3.153891e-02
1.257000e+03 2.009788e-02
1.258000e+03 3.671386e-02
1.259000e+03 4.055375e-02
1.260000e+03 4.362169e-02
1.261000e+03 5.476922e-04
1.262000e+03 4.520921e-02
1.263000e+03 3.981715e-02
1.264000e+03 4.090102e-02
1.265000e+03 4.094160e-02
1.266000e+03 5.613817e-02
1.267000e+03 5.978037e-02
