# wavelength_A flux
5.000000e+02 1.850155e-07
5.010000e+02 2.090808e-07
5.020000e+02 2.361565e-07
5.030000e+02 2.666043e-07
5.040000e+02 3.008273e-07
5.050000e+02 3.440094e-07
5.060000e+02 3.877433e-07
5.070000e+02 4.368229e-07
5.080000e+02 4.918751e-07
5.090000e+02 5.536021e-07
5.100000e+02 6.227698e-07
5.110000e+02 7.002444e-07
5.120000e+02 7.869822e-07
5.130000e+02 8.840458e-07
5.140000e+02 9.926140e-07
5.150000e+02 1.113988e-06
5.160000e+02 1.249636e-06
5.170000e+02 1.401115e-06
5.180000e+02 1.570305e-06
5.190000e+02 1.759082e-06
5.200000e+02 1.969659e-06
5.210000e+02 2.204446e-06
5.220000e+02 2.465959e-06
5.230000e+02 2.757608e-06
5.240000e+02 3.082188e-06
5.250000e+02 3.443486e-06
5.260000e+02 3.845423e-06
5.270000e+02 4.292403e-06
5.280000e+02 4.789262e-06
5.290000e+02 5.340642e-06
5.300000e+02 5.954487e-06
5.310000e+02 6.635202e-06
5.320000e+02 7.390616e-06
5.330000e+02 8.228552e-06
5.340000e+02 9.157655e-06
5.350000e+02 1.018741e-05
5.360000e+02 1.132823e-05
5.370000e+02 1.250417e-05
5.380000e+02 1.399019e-05
5.390000e+02 1.553802e-05
5.400000e+02 1.724993e-05
5.410000e+02 1.914186e-05
5.420000e+02 2.123457e-05
5.430000e+02 2.354590e-05
5.440000e+02 2.609833e-05
5.450000e+02 2.891607e-05
5.460000e+02 3.202229e-05
5.470000e+02 3.545545e-05
5.480000e+02 3.923753e-05
5.490000e+02 4.340643e-05
5.500000e+02 4.799983e-05
5.510000e+02 5.305912e-05
5.520000e+02 5.862946e-05
5.530000e+02 6.476018e-05
5.540000e+02 7.150521e-05
5.550000e+02 7.892333e-05
5.560000e+02 8.707877e-05
5.570000e+02 9.604155e-05
5.580000e+02 1.058880e-04
5.590000e+02 1.167014e-04
5.600000e+02 1.285725e-04
5.610000e+02 1.416001e-04
5.620000e+02 1.558918e-04
5.630000e+02 1.715647e-04
5.640000e+02 1.887464e-04
5.650000e+02 2.075754e-04
5.660000e+02 2.282028e-04
5.670000e+02 2.507925e-04
5.680000e+02 2.755225e-04
5.690000e+02 3.025866e-04
5.700000e+02 3.321948e-04
5.710000e+02 3.645762e-04
5.720000e+02 3.999776e-04
5.730000e+02 4.386684e-04
5.740000e+02 4.809400e-04
5.750000e+02 5.271133e-04
5.760000e+02 5.774914e-04
5.770000e+02 6.325425e-04
5.780000e+02 6.925763e-04
5.790000e+02 7.580596e-04
5.800000e+02 8.294639e-04
5.810000e+02 9.072996e-04
5.820000e+02 9.921184e-04
5.830000e+02 1.084513e-03
5.840000e+02 1.184960e-03
5.850000e+02 1.294657e-03
5.860000e+02 1.413938e-03
5.870000e+02 1.543677e-03
5.880000e+02 1.684789e-03
5.890000e+02 1.838216e-03
5.900000e+02 2.005019e-03
5.910000e+02 2.186271e-03
5.920000e+02 2.383179e-03
5.930000e+02 2.597030e-03
5.940000e+02 2.829214e-03
5.950000e+02 3.081199e-03
5.960000e+02 3.354680e-03
5.970000e+02 3.651314e-03
5.980000e+02 3.972996e-03
5.990000e+02 4.321743e-03
6.000000e+02 4.699721e-03
6.010000e+02 5.109213e-03
6.020000e+02 5.552877e-03
6.030000e+02 6.033261e-03
6.040000e+02 6.553314e-03
6.050000e+02 7.116162e-03
6.060000e+02 7.725134e-03
6.070000e+02 8.383865e-03
6.080000e+02 9.096185e-03
6.090000e+02 9.866254e-03
6.100000e+02 1.069853e-02
6.110000e+02 1.159778e-02
6.120000e+02 1.256914e-02
6.130000e+02 1.361811e-02
6.140000e+02 1.475058e-02
6.150000e+02 1.597287e-02
6.160000e+02 1.729176e-02
6.170000e+02 1.871449e-02
6.180000e+02 2.024884e-02
6.190000e+02 2.190314e-02
6.200000e+02 2.368629e-02
6.210000e+02 2.560783e-02
6.220000e+02 2.767796e-02
6.230000e+02 2.990761e-02
6.240000e+02 3.230844e-02
6.250000e+02 3.489294e-02
6.260000e+02 3.767446e-02
6.270000e+02 4.066725e-02
6.280000e+02 4.388656e-02
6.290000e+02 4.734867e-02
6.300000e+02 5.107096e-02
6.310000e+02 5.506887e-02
6.320000e+02 5.937159e-02
6.330000e+02 6.399078e-02
6.340000e+02 6.895243e-02
6.350000e+02 7.428021e-02
6.360000e+02 7.997642e-02
6.370000e+02 8.613940e-02
6.380000e+02 9.272715e-02
6.390000e+02 9.979451e-02
6.400000e+02 1.073746e-01
6.410000e+02 1.155027e-01
6.420000e+02 1.242163e-01
6.430000e+02 1.335556e-01
6.440000e+02 1.435630e-01
6.450000e+02 1.542838e-01
6.460000e+02 1.657665e-01
6.470000e+02 1.780620e-01
6.480000e+02 1.912253e-01
6.490000e+02 2.053141e-01
6.500000e+02 2.203901e-01
6.510000e+02 2.365189e-01
6.520000e+02 2.537702e-01
6.530000e+02 2.722180e-01
6.540000e+02 2.919408e-01
6.550000e+02 3.130222e-01
6.560000e+02 3.355507e-01
6.570000e+02 3.596175e-01
6.580000e+02 3.853314e-01
6.590000e+02 4.127893e-01
6.600000e+02 4.421065e-01
6.610000e+02 4.734027e-01
6.620000e+02 5.068037e-01
6.630000e+02 5.424436e-01
6.640000e+02 5.804648e-01
6.650000e+02 6.210170e-01
6.660000e+02 6.642612e-01
6.670000e+02 7.103650e-01
6.680000e+02 7.595078e-01
6.690000e+02 8.118791e-01
6.700000e+02 8.676794e-01
6.710000e+02 9.271211e-01
6.720000e+02 9.904281e-01
6.730000e+02 1.057840e+00
6.740000e+02 1.129607e+00
6.750000e+02 1.205996e+00
6.760000e+02 1.287287e+00
6.770000e+02 1.373778e+00
6.780000e+02 1.465784e+00
6.790000e+02 1.563636e+00
6.800000e+02 1.667686e+00
6.810000e+02 1.778305e+00
6.820000e+02 1.895884e+00
6.830000e+02 2.020837e+00
6.840000e+02 2.153601e+00
6.850000e+02 2.294636e+00
6.860000e+02 2.444432e+00
6.870000e+02 2.603494e+00
6.880000e+02 2.772381e+00
6.890000e+02 2.951648e+00
6.900000e+02 3.141903e+00
6.910000e+02 3.343785e+00
6.920000e+02 3.557961e+00
6.930000e+02 3.785138e+00
6.940000e+02 4.026062e+00
6.950000e+02 4.281516e+00
6.960000e+02 4.552329e+00
6.970000e+02 4.839331e+00
6.980000e+02 5.143557e+00
6.990000e+02 5.465857e+00
7.000000e+02 5.807285e+00
7.010000e+02 6.168912e+00
7.020000e+02 6.551867e+00
7.030000e+02 6.957333e+00
7.040000e+02 7.386558e+00
7.050000e+02 7.840855e+00
7.060000e+02 8.321604e+00
7.070000e+02 8.830256e+00
7.080000e+02 9.368337e+00
7.090000e+02 9.937445e+00
7.100000e+02 1.053929e+01
7.110000e+02 1.117561e+01
7.120000e+02 1.184829e+01
7.130000e+02 1.255928e+01
7.140000e+02 1.331063e+01
7.150000e+02 1.410450e+01
7.160000e+02 1.494317e+01
7.170000e+02 1.582897e+01
7.180000e+02 1.676437e+01
7.190000e+02 1.775225e+01
7.200000e+02 1.879506e+01
7.210000e+02 1.989579e+01
7.220000e+02 2.105745e+01
7.230000e+02 2.228325e+01
7.240000e+02 2.357649e+01
7.250000e+02 2.494067e+01
7.260000e+02 2.637945e+01
7.270000e+02 2.789667e+01
7.280000e+02 2.949635e+01
7.290000e+02 3.118270e+01
7.300000e+02 3.296013e+01
7.310000e+02 3.483328e+01
7.320000e+02 3.680698e+01
7.330000e+02 3.888631e+01
7.340000e+02 4.107659e+01
7.350000e+02 4.338337e+01
7.360000e+02 4.581245e+01
7.370000e+02 4.837000e+01
7.380000e+02 5.106232e+01
7.390000e+02 5.389611e+01
7.400000e+02 5.687831e+01
7.410000e+02 6.001637e+01
7.420000e+02 6.331772e+01
7.430000e+02 6.679055e+01
7.440000e+02 7.044306e+01
7.450000e+02 7.428404e+01
7.460000e+02 7.832262e+01
7.470000e+02 8.256833e+01
7.480000e+02 8.703114e+01
7.490000e+02 9.172147e+01
7.500000e+02 9.665020e+01
7.510000e+02 1.018287e+02
7.520000e+02 1.072688e+02
7.530000e+02 1.129830e+02
7.540000e+02 1.189842e+02
7.550000e+02 1.252858e+02
7.560000e+02 1.319021e+02
7.570000e+02 1.388470e+02
7.580000e+02 1.461380e+02
7.590000e+02 1.537887e+02
7.600000e+02 1.618174e+02
7.610000e+02 1.702409e+02
7.620000e+02 1.790774e+02
7.630000e+02 1.883460e+02
7.640000e+02 1.980664e+02
7.650000e+02 2.082594e+02
7.660000e+02 2.189464e+02
7.670000e+02 2.301499e+02
7.680000e+02 2.418927e+02
7.690000e+02 2.542007e+02
7.700000e+02 2.670978e+02
7.710000e+02 2.806108e+02
7.720000e+02 2.947674e+02
7.730000e+02 3.095962e+02
7.740000e+02 3.251270e+02
7.750000e+02 3.413910e+02
7.760000e+02 3.584129e+02
7.770000e+02 3.762495e+02
7.780000e+02 3.949128e+02
7.790000e+02 4.144469e+02
7.800000e+02 4.348899e+02
7.810000e+02 4.562813e+02
7.820000e+02 4.786623e+02
7.830000e+02 5.020756e+02
7.840000e+02 5.265660e+02
7.850000e+02 5.521794e+02
7.860000e+02 5.789641e+02
7.870000e+02 6.069709e+02
7.880000e+02 6.362504e+02
7.890000e+02 6.668574e+02
7.900000e+02 6.988481e+02
7.910000e+02 7.322809e+02
7.920000e+02 7.672166e+02
7.930000e+02 8.037183e+02
7.940000e+02 8.418515e+02
7.950000e+02 8.816842e+02
7.960000e+02 9.232872e+02
7.970000e+02 9.667340e+02
7.980000e+02 1.012101e+03
7.990000e+02 1.059467e+03
8.000000e+02 1.108914e+03
8.010000e+02 1.160527e+03
8.020000e+02 1.214397e+03
8.030000e+02 1.270614e+03
8.040000e+02 1.329273e+03
8.050000e+02 1.390473e+03
8.060000e+02 1.454318e+03
8.070000e+02 1.520914e+03
8.080000e+02 1.590370e+03
8.090000e+02 1.662803e+03
8.100000e+02 1.738331e+03
8.110000e+02 1.817076e+03
8.120000e+02 1.899167e+03
8.130000e+02 1.984736e+03
8.140000e+02 2.073921e+03
8.150000e+02 2.166862e+03
8.160000e+02 2.263711e+03
8.170000e+02 2.364616e+03
8.180000e+02 2.469738e+03
8.190000e+02 2.579240e+03
8.200000e+02 2.693293e+03
8.210000e+02 2.812072e+03
8.220000e+02 2.935759e+03
8.230000e+02 3.064544e+03
8.240000e+02 3.198622e+03
8.250000e+02 3.338196e+03
8.260000e+02 3.483474e+03
8.270000e+02 3.634674e+03
8.280000e+02 3.792021e+03
8.290000e+02 3.955746e+03
8.300000e+02 4.126091e+03
8.310000e+02 4.303303e+03
8.320000e+02 4.487642e+03
8.330000e+02 4.679372e+03
8.340000e+02 4.878769e+03
8.350000e+02 5.085911e+03
8.360000e+02 5.301703e+03
8.370000e+02 5.525865e+03
8.380000e+02 5.758877e+03
8.390000e+02 6.001090e+03
8.400000e+02 6.252829e+03
8.410000e+02 6.514442e+03
8.420000e+02 6.786237e+03
8.430000e+02 7.068765e+03
8.440000e+02 7.362225e+03
8.450000e+02 7.667076e+03
8.460000e+02 7.983730e+03
8.470000e+02 8.312611e+03
8.480000e+02 8.654155e+03
8.490000e+02 9.008817e+03
8.500000e+02 9.377063e+03
8.510000e+02 9.759377e+03
8.520000e+02 1.015625e+04
8.530000e+02 1.056821e+04
8.540000e+02 1.099580e+04
8.550000e+02 1.143954e+04
8.560000e+02 1.189999e+04
8.570000e+02 1.237776e+04
8.580000e+02 1.287345e+04
8.590000e+02 1.338767e+04
8.600000e+02 1.392107e+04
8.610000e+02 1.447431e+04
8.620000e+02 1.504807e+04
8.630000e+02 1.564307e+04
8.640000e+02 1.626003e+04
8.650000e+02 1.689969e+04
8.660000e+02 1.756285e+04
8.670000e+02 1.825028e+04
8.680000e+02 1.896282e+04
8.690000e+02 1.970131e+04
8.700000e+02 2.046661e+04
8.710000e+02 2.125969e+04
8.720000e+02 2.208140e+04
8.730000e+02 2.293273e+04
8.740000e+02 2.381467e+04
8.750000e+02 2.472824e+04
8.760000e+02 2.567447e+04
8.770000e+02 2.665445e+04
8.780000e+02 2.766933e+04
8.790000e+02 2.872021e+04
8.800000e+02 2.980828e+04
8.810000e+02 3.093476e+04
8.820000e+02 3.210091e+04
8.830000e+02 3.330802e+04
8.840000e+02 3.455742e+04
8.850000e+02 3.585048e+04
8.860000e+02 3.718860e+04
8.870000e+02 3.857323e+04
8.880000e+02 4.000588e+04
8.890000e+02 4.148807e+04
8.900000e+02 4.302139e+04
8.910000e+02 4.460746e+04
8.920000e+02 4.622191e+04
8.930000e+02 4.794464e+04
8.940000e+02 4.969924e+04
8.950000e+02 5.151359e+04
8.960000e+02 5.338959e+04
8.970000e+02 5.532915e+04
8.980000e+02 5.733426e+04
8.990000e+02 5.940696e+04
9.000000e+02 6.154937e+04
9.010000e+02 6.376363e+04
9.020000e+02 6.605198e+04
9.030000e+02 6.841670e+04
9.040000e+02 7.085998e+04
9.050000e+02 7.338467e+04
9.060000e+02 7.599286e+04
9.070000e+02 7.868682e+04
9.080000e+02 8.147032e+04
9.090000e+02 8.434493e+04
9.100000e+02 8.731379e+04
9.110000e+02 9.037988e+04
9.120000e+02 9.354668e+04
9.130000e+02 9.639559e+04
9.140000e+02 1.008241e+05
9.150000e+02 2.872629e+05
9.160000e+02 6.622008e+05
9.170000e+02 6.955449e+05
9.180000e+02 5.893340e+05
9.190000e+02 1.005173e+06
9.200000e+02 1.147862e+06
9.210000e+02 1.262091e+05
9.220000e+02 1.247368e+06
9.230000e+02 7.516788e+05
9.240000e+02 1.166451e+06
9.250000e+02 1.340210e+06
9.260000e+02 1.044894e+06
9.270000e+02 1.374788e+06
9.280000e+02 1.510225e+06
9.290000e+02 1.380010e+06
9.300000e+02 1.546024e+06
9.310000e+02 1.213327e+06
9.320000e+02 1.680990e+06
9.330000e+02 1.736346e+06
9.340000e+02 1.764482e+06
9.350000e+02 3.999531e+05
9.360000e+02 1.697698e+06
9.370000e+02 3.318532e+05
9.380000e+02 1.003168e+06
9.390000e+02 1.893220e+06
9.400000e+02 2.097828e+06
9.410000e+02 9.004729e+05
9.420000e+02 2.213757e+06
9.430000e+02 2.160639e+06
9.440000e+02 1.755431e+06
9.450000e+02 2.403107e+06
9.460000e+02 2.453280e+06
9.470000e+02 2.119542e+06
9.480000e+02 2.347746e+06
9.490000e+02 2.576796e+06
9.500000e+02 5.387136e+05
9.510000e+02 2.678018e+06
9.520000e+02 2.864422e+06
9.530000e+02 2.437570e+06
9.540000e+02 2.380100e+06
9.550000e+02 3.057392e+06
9.560000e+02 2.949940e+06
9.570000e+02 1.980185e+06
9.580000e+02 2.372714e+06
9.590000e+02 3.484524e+06
9.600000e+02 6.710545e+05
9.610000e+02 3.636234e+06
9.620000e+02 3.666848e+06
9.630000e+02 3.795225e+06
9.640000e+02 5.212138e+05
9.650000e+02 3.369420e+06
9.660000e+02 4.063970e+06
9.670000e+02 3.955553e+06
9.680000e+02 3.670519e+06
9.690000e+02 4.389843e+06
9.700000e+02 4.483343e+06
9.710000e+02 4.229214e+06
9.720000e+02 4.158864e+06
9.730000e+02 4.237756e+06
9.740000e+02 4.946216e+06
9.750000e+02 5.067471e+06
9.760000e+02 5.354366e+06
9.770000e+02 5.474681e+06
9.780000e+02 5.513918e+06
9.790000e+02 5.801429e+06
9.800000e+02 5.947850e+06
9.810000e+02 6.009364e+06
9.820000e+02 5.866053e+06
9.830000e+02 6.397789e+06
9.840000e+02 2.925197e+06
9.850000e+02 6.570764e+06
9.860000e+02 6.689655e+06
9.870000e+02 7.055867e+06
9.880000e+02 6.047638e+06
9.890000e+02 5.871322e+06
9.900000e+02 1.292246e+06
9.910000e+02 6.763345e+06
9.920000e+02 5.109148e+06
9.930000e+02 7.866552e+06
9.940000e+02 1.423433e+06
9.950000e+02 2.678157e+06
9.960000e+02 6.489098e+06
9.970000e+02 2.255100e+06
9.980000e+02 9.124798e+06
9.990000e+02 8.693467e+06
1.000000e+03 9.663350e+06
1.001000e+03 9.906630e+06
1.002000e+03 1.012723e+07
1.003000e+03 9.292338e+06
1.004000e+03 9.261665e+06
1.005000e+03 9.750248e+06
1.006000e+03 1.112487e+07
1.007000e+03 1.139964e+07
1.008000e+03 1.162554e+07
1.009000e+03 1.125284e+07
1.010000e+03 1.218180e+07
1.011000e+03 1.249444e+07
1.012000e+03 1.274525e+07
1.013000e+03 1.302164e+07
1.014000e+03 8.285051e+06
1.015000e+03 1.090318e+07
1.016000e+03 1.306627e+07
1.017000e+03 9.265713e+06
1.018000e+03 1.396824e+07
1.019000e+03 1.226188e+07
1.020000e+03 1.530557e+07
1.021000e+03 8.973482e+06
1.022000e+03 1.367220e+07
1.023000e+03 1.286892e+07
1.024000e+03 1.565140e+07
1.025000e+03 8.991705e+06
1.026000e+03 6.436852e+06
1.027000e+03 1.580597e+07
1.028000e+03 4.515854e+06
1.029000e+03 1.233694e+07
1.030000e+03 1.870409e+07
1.031000e+03 1.863994e+07
1.032000e+03 1.994130e+07
1.033000e+03 8.062152e+06
1.034000e+03 2.071361e+07
1.035000e+03 4.725614e+06
1.036000e+03 1.463939e+07
1.037000e+03 9.896605e+06
1.038000e+03 2.305118e+07
1.039000e+03 2.335322e+07
1.040000e+03 2.399382e+07
1.041000e+03 2.451089e+07
1.042000e+03 2.490248e+07
1.043000e+03 2.472591e+07
1.044000e+03 2.630911e+07
1.045000e+03 2.680016e+07
1.046000e+03 2.749115e+07
1.047000e+03 2.742865e+07
1.048000e+03 2.454442e+07
1.049000e+03 2.877802e+07
1.050000e+03 2.946069e+07
1.051000e+03 2.948037e+07
1.052000e+03 3.122755e+07
1.053000e+03 3.172160e+07
1.054000e+03 2.087920e+07
1.055000e+03 3.337300e+07
1.056000e+03 3.413509e+07
1.057000e+03 3.435078e+07
1.058000e+03 3.495403e+07
1.059000e+03 3.248156e+07
1.060000e+03 3.220651e+07
1.061000e+03 3.746098e+07
1.062000e+03 3.737935e+07
1.063000e+03 1.748245e+07
1.064000e+03 9.133824e+06
1.065000e+03 2.855205e+07
1.066000e+03 3.819753e+07
1.067000e+03 3.716773e+07
1.068000e+03 4.416843e+07
1.069000e+03 3.351930e+07
1.070000e+03 4.525656e+07
1.071000e+03 4.700442e+07
1.072000e+03 4.794348e+07
1.073000e+03 3.622771e+07
1.074000e+03 4.865336e+07
1.075000e+03 4.910738e+07
1.076000e+03 5.205822e+07
1.077000e+03 4.980233e+07
1.078000e+03 5.262473e+07
1.079000e+03 5.439618e+07
1.080000e+03 5.581931e+07
1.081000e+03 5.718866e+07
1.082000e+03 5.836853e+07
1.083000e+03 5.932096e+07
1.084000e+03 6.124489e+07
1.085000e+03 5.258999e+07
1.086000e+03 6.375042e+07
1.087000e+03 5.847444e+07
1.088000e+03 6.621278e+07
1.089000e+03 6.767761e+07
1.090000e+03 6.619145e+07
1.091000e+03 6.706134e+07
1.092000e+03 7.176314e+07
1.093000e+03 7.314059e+07
1.094000e+03 7.423651e+07
1.095000e+03 7.609897e+07
1.096000e+03 7.737120e+07
1.097000e+03 7.831080e+07
1.098000e+03 8.028404e+07
1.099000e+03 8.128819e+07
1.100000e+03 7.197410e+07
1.101000e+03 7.326233e+07
1.102000e+03 1.457328e+08
1.103000e+03 5.033460e+08
1.104000e+03 1.967245e+08
1.105000e+03 8.607309e+07
1.106000e+03 7.206913e+08
1.107000e+03 1.444287e+08
1.108000e+03 9.180713e+08
1.109000e+03 3.126872e+08
1.110000e+03 2.887260e+08
1.111000e+03 1.842381e+08
1.112000e+03 8.379074e+08
1.113000e+03 1.125842e+09
1.114000e+03 7.187757e+07
1.115000e+03 5.506342e+08
1.116000e+03 4.627484e+08
1.117000e+03 7.381158e+07
1.118000e+03 4.094409e+08
1.119000e+03 1.019536e+09
1.120000e+03 5.207608e+08
1.121000e+03 1.039415e+09
1.122000e+03 3.107347e+07
1.123000e+03 1.859953e+08
1.124000e+03 1.215428e+09
1.125000e+03 7.129820e+08
1.126000e+03 1.358911e+09
1.127000e+03 1.296630e+09
1.128000e+03 4.648741e+08
1.129000e+03 1.111078e+09
1.130000e+03 1.221767e+09
1.131000e+03 1.421975e+09
1.132000e+03 9.395085e+07
1.133000e+03 5.569716e+08
1.134000e+03 1.157532e+09
1.135000e+03 6.088250e+07
1.136000e+03 9.145185e+08
1.137000e+03 1.510311e+09
1.138000e+03 1.205565e+09
1.139000e+03 1.535112e+09
1.140000e+03 5.445402e+07
1.141000e+03 1.557921e+09
1.142000e+03 1.639503e+09
1.143000e+03 1.564775e+09
1.144000e+03 1.722656e+09
1.145000e+03 4.415349e+08
1.146000e+03 1.782969e+09
1.147000e+03 1.725237e+09
1.148000e+03 8.007169e+08
1.149000e+03 1.770486e+09
1.150000e+03 1.511464e+09
1.151000e+03 1.890998e+09
1.152000e+03 1.854112e+09
1.153000e+03 7.322689e+08
1.154000e+03 3.756241e+08
1.155000e+03 1.732006e+09
1.156000e+03 7.635649e+08
1.157000e+03 2.049905e+09
1.158000e+03 8.891047e+07
1.159000e+03 1.786650e+09
1.160000e+03 1.595776e+09
1.161000e+03 2.119761e+09
1.162000e+03 5.160699e+08
1.163000e+03 1.497950e+09
1.164000e+03 1.003616e+08
1.165000e+03 2.246649e+09
1.166000e+03 2.142178e+09
1.167000e+03 2.052578e+09
1.168000e+03 2.389207e+09
1.169000e+03 2.376848e+09
1.170000e+03 2.333199e+09
1.171000e+03 2.355008e+09
1.172000e+03 1.843005e+09
1.173000e+03 2.552528e+09
1.174000e+03 1.086258e+09
1.175000e+03 1.164851e+08
1.176000e+03 1.051168e+08
1.177000e+03 2.724636e+09
1.178000e+03 2.657769e+09
1.179000e+03 2.755143e+09
1.180000e+03 1.868977e+09
1.181000e+03 2.863945e+09
1.182000e+03 2.822281e+09
1.183000e+03 2.729314e+09
1.184000e+03 2.679355e+09
1.185000e+03 2.874209e+09
1.186000e+03 2.088625e+09
1.187000e+03 2.921209e+09
1.188000e+03 2.386259e+09
1.189000e+03 1.385316e+08
1.190000e+03 7.271560e+08
1.191000e+03 2.904593e+09
1.192000e+03 3.116959e+09
1.193000e+03 1.309860e+08
1.194000e+03 1.567954e+08
1.195000e+03 2.313887e+09
1.196000e+03 3.110872e+09
1.197000e+03 4.522988e+09
1.198000e+03 3.326593e+09
1.199000e+03 4.444316e+09
1.200000e+03 3.134310e+09
1.201000e+03 4.178109e+09
1.202000e+03 3.498217e+09
1.203000e+03 4.797068e+09
1.204000e+03 2.918546e+09
1.205000e+03 4.018511e+09
1.206000e+03 3.709226e+09
1.207000e+03 7.563894e+08
1.208000e+03 2.936006e+09
1.209000e+03 2.317857e+09
1.210000e+03 2.069455e+08
1.211000e+03 1.418605e+09
1.212000e+03 9.689475e+08
1.213000e+03 6.279116e+08
1.214000e+03 3.733359e+08
1.215000e+03 2.320988e+08
1.216000e+03 2.099002e+08
1.217000e+03 3.276565e+08
1.218000e+03 5.722387e+08
1.219000e+03 9.551456e+08
1.220000e+03 1.374189e+09
1.221000e+03 2.067302e+09
1.222000e+03 2.686944e+09
1.223000e+03 3.438511e+09
1.224000e+03 4.267975e+09
1.225000e+03 3.438002e+09
1.226000e+03 5.813895e+09
1.227000e+03 6.479826e+09
1.228000e+03 5.645329e+09
1.229000e+03 7.334695e+09
1.230000e+03 7.258171e+09
1.231000e+03 6.582961e+09
1.232000e+03 1.020970e+10
1.233000e+03 1.095337e+10
1.234000e+03 7.551904e+09
1.235000e+03 1.187199e+10
1.236000e+03 7.943660e+09
1.237000e+03 1.304454e+10
1.238000e+03 1.233661e+10
1.239000e+03 1.276704e+10
1.240000e+03 1.279462e+10
1.241000e+03 1.646835e+10
1.242000e+03 1.170700e+10
1.243000e+03 1.848167e+10
1.244000e+03 8.275210e+09
1.245000e+03 1.163103e+10
1.246000e+03 2.534442e+10
1.247000e+03 2.496684e+10
1.248000e+03 8.544072e+09
1.249000e+03 1.126340e+10
1.250000e+03 3.009915e+10
1.251000e+03 3.487654e+10
1.252000e+03 3.114373e+10
1.253000e+03 3.511352e+10
1.254000e+03 3.088193e+10
1.255000e+03 3.772937e+10
1.256000e+03 3.261097e+10
1.257000e+03 3.758719e+10
1.258000e+03 2.584640e+10
1.259000e+03 3.368706e+10
1.260000e+03 3.571297e+10
1.261000e+03 4.557048e+08
1.262000e+03 4.978967e+09
1.263000e+03 4.104664e+10
1.264000e+03 2.878541e+10
1.265000e+03 4.727962e+08
1.266000e+03 3.968357e+10
1.267000e+03 3.318725e+10
