# wavelength_A flux
5.000000e+02 5.048057e-07
5.010000e+02 5.692843e-07
5.020000e+02 6.416790e-07
5.030000e+02 7.229216e-07
5.040000e+02 8.140484e-07
5.050000e+02 9.343349e-07
5.060000e+02 1.050963e-06
5.070000e+02 1.181579e-06
5.080000e+02 1.327792e-06
5.090000e+02 1.491426e-06
5.100000e+02 1.674387e-06
5.110000e+02 1.878912e-06
5.120000e+02 2.107430e-06
5.130000e+02 2.362641e-06
5.140000e+02 2.647534e-06
5.150000e+02 2.965392e-06
5.160000e+02 3.319948e-06
5.170000e+02 3.715065e-06
5.180000e+02 4.155578e-06
5.190000e+02 4.646089e-06
5.200000e+02 5.192188e-06
5.210000e+02 5.799891e-06
5.220000e+02 6.475308e-06
5.230000e+02 7.227445e-06
5.240000e+02 8.062730e-06
5.250000e+02 8.990746e-06
5.260000e+02 1.002118e-05
5.270000e+02 1.116492e-05
5.280000e+02 1.243389e-05
5.290000e+02 1.383875e-05
5.300000e+02 1.540135e-05
5.310000e+02 1.713016e-05
5.320000e+02 1.904513e-05
5.330000e+02 2.116535e-05
5.340000e+02 2.351191e-05
5.350000e+02 2.610791e-05
5.360000e+02 2.897855e-05
5.370000e+02 3.182451e-05
5.380000e+02 3.565836e-05
5.390000e+02 3.953206e-05
5.400000e+02 4.380895e-05
5.410000e+02 4.852632e-05
5.420000e+02 5.373611e-05
5.430000e+02 5.947939e-05
5.440000e+02 6.581045e-05
5.450000e+02 7.278720e-05
5.460000e+02 8.046197e-05
5.470000e+02 8.893542e-05
5.480000e+02 9.825055e-05
5.490000e+02 1.085008e-04
5.500000e+02 1.197750e-04
5.510000e+02 1.321713e-04
5.520000e+02 1.457961e-04
5.530000e+02 1.607656e-04
5.540000e+02 1.772072e-04
5.550000e+02 1.952587e-04
5.560000e+02 2.150707e-04
5.570000e+02 2.368071e-04
5.580000e+02 2.606464e-04
5.590000e+02 2.867827e-04
5.600000e+02 3.154273e-04
5.610000e+02 3.468102e-04
5.620000e+02 3.811809e-04
5.630000e+02 4.188110e-04
5.640000e+02 4.599955e-04
5.650000e+02 5.050540e-04
5.660000e+02 5.543362e-04
5.670000e+02 6.082177e-04
5.680000e+02 6.671088e-04
5.690000e+02 7.314535e-04
5.700000e+02 8.017324e-04
5.710000e+02 8.784712e-04
5.720000e+02 9.622318e-04
5.730000e+02 1.053629e-03
5.740000e+02 1.153325e-03
5.750000e+02 1.262056e-03
5.760000e+02 1.380431e-03
5.770000e+02 1.509717e-03
5.780000e+02 1.650414e-03
5.790000e+02 1.803642e-03
5.800000e+02 1.970463e-03
5.810000e+02 2.152027e-03
5.820000e+02 2.349572e-03
5.830000e+02 2.564418e-03
5.840000e+02 2.797415e-03
5.850000e+02 3.051901e-03
5.860000e+02 3.328062e-03
5.870000e+02 3.627926e-03
5.880000e+02 3.953578e-03
5.890000e+02 4.307083e-03
5.900000e+02 4.690889e-03
5.910000e+02 5.107281e-03
5.920000e+02 5.558967e-03
5.930000e+02 6.048774e-03
5.940000e+02 6.579789e-03
5.950000e+02 7.155105e-03
5.960000e+02 7.778855e-03
5.970000e+02 8.454268e-03
5.980000e+02 9.185641e-03
5.990000e+02 9.977389e-03
6.000000e+02 1.083425e-02
6.010000e+02 1.176054e-02
6.020000e+02 1.276406e-02
6.030000e+02 1.384834e-02
6.040000e+02 1.502050e-02
6.050000e+02 1.628727e-02
6.060000e+02 1.765589e-02
6.070000e+02 1.913425e-02
6.080000e+02 2.073060e-02
6.090000e+02 2.245394e-02
6.100000e+02 2.431383e-02
6.110000e+02 2.632063e-02
6.120000e+02 2.848521e-02
6.130000e+02 3.081955e-02
6.140000e+02 3.333618e-02
6.150000e+02 3.604869e-02
6.160000e+02 3.897149e-02
6.170000e+02 4.212010e-02
6.180000e+02 4.551107e-02
6.190000e+02 4.916212e-02
6.200000e+02 5.309219e-02
6.210000e+02 5.732151e-02
6.220000e+02 6.187171e-02
6.230000e+02 6.676591e-02
6.240000e+02 7.202878e-02
6.250000e+02 7.768667e-02
6.260000e+02 8.376771e-02
6.270000e+02 9.030194e-02
6.280000e+02 9.732139e-02
6.290000e+02 1.048602e-01
6.300000e+02 1.129549e-01
6.310000e+02 1.216417e-01
6.320000e+02 1.309699e-01
6.330000e+02 1.409756e-01
6.340000e+02 1.517091e-01
6.350000e+02 1.632197e-01
6.360000e+02 1.753864e-01
6.370000e+02 1.887908e-01
6.380000e+02 2.029679e-01
6.390000e+02 2.181581e-01
6.400000e+02 2.344296e-01
6.410000e+02 2.518551e-01
6.420000e+02 2.705118e-01
6.430000e+02 2.904832e-01
6.440000e+02 3.118563e-01
6.450000e+02 3.347242e-01
6.460000e+02 3.591866e-01
6.470000e+02 3.853475e-01
6.480000e+02 4.133203e-01
6.490000e+02 4.432224e-01
6.500000e+02 4.751801e-01
6.510000e+02 5.093274e-01
6.520000e+02 5.458062e-01
6.530000e+02 5.847670e-01
6.540000e+02 6.263697e-01
6.550000e+02 6.707838e-01
6.560000e+02 7.181891e-01
6.570000e+02 7.687640e-01
6.580000e+02 8.227469e-01
6.590000e+02 8.803155e-01
6.600000e+02 9.417069e-01
6.610000e+02 1.007167e+00
6.620000e+02 1.076944e+00
6.630000e+02 1.151307e+00
6.640000e+02 1.230548e+00
6.650000e+02 1.314962e+00
6.660000e+02 1.404876e+00
6.670000e+02 1.500623e+00
6.680000e+02 1.602560e+00
6.690000e+02 1.711068e+00
6.700000e+02 1.826545e+00
6.710000e+02 1.949416e+00
6.720000e+02 2.080108e+00
6.730000e+02 2.219148e+00
6.740000e+02 2.366978e+00
6.750000e+02 2.524151e+00
6.760000e+02 2.691220e+00
6.770000e+02 2.868774e+00
6.780000e+02 3.057433e+00
6.790000e+02 3.257853e+00
6.800000e+02 3.470726e+00
6.810000e+02 3.696782e+00
6.820000e+02 3.936793e+00
6.830000e+02 4.191570e+00
6.840000e+02 4.461961e+00
6.850000e+02 4.748879e+00
6.860000e+02 5.053282e+00
6.870000e+02 5.376143e+00
6.880000e+02 5.718610e+00
6.890000e+02 6.081705e+00
6.900000e+02 6.466630e+00
6.910000e+02 6.874635e+00
6.920000e+02 7.307011e+00
6.930000e+02 7.765135e+00
6.940000e+02 8.250453e+00
6.950000e+02 8.764485e+00
6.960000e+02 9.308834e+00
6.970000e+02 9.885064e+00
6.980000e+02 1.049530e+01
6.990000e+02 1.114106e+01
7.000000e+02 1.182441e+01
7.010000e+02 1.254743e+01
7.020000e+02 1.331226e+01
7.030000e+02 1.412121e+01
7.040000e+02 1.497665e+01
7.050000e+02 1.588111e+01
7.060000e+02 1.683722e+01
7.070000e+02 1.784772e+01
7.080000e+02 1.891563e+01
7.090000e+02 2.004389e+01
7.100000e+02 2.123591e+01
7.110000e+02 2.249487e+01
7.120000e+02 2.382439e+01
7.130000e+02 2.522818e+01
7.140000e+02 2.671014e+01
7.150000e+02 2.827437e+01
7.160000e+02 2.992518e+01
7.170000e+02 3.166695e+01
7.180000e+02 3.350433e+01
7.190000e+02 3.544311e+01
7.200000e+02 3.748745e+01
7.210000e+02 3.964317e+01
7.220000e+02 4.191597e+01
7.230000e+02 4.431172e+01
7.240000e+02 4.683689e+01
7.250000e+02 4.949792e+01
7.260000e+02 5.230168e+01
7.270000e+02 5.525541e+01
7.280000e+02 5.836637e+01
7.290000e+02 6.164287e+01
7.300000e+02 6.509296e+01
7.310000e+02 6.872529e+01
7.320000e+02 7.254887e+01
7.330000e+02 7.657318e+01
7.340000e+02 8.080810e+01
7.350000e+02 8.526397e+01
7.360000e+02 8.995155e+01
7.370000e+02 9.488232e+01
7.380000e+02 1.000679e+02
7.390000e+02 1.055208e+02
7.400000e+02 1.112536e+02
7.410000e+02 1.172807e+02
7.420000e+02 1.236149e+02
7.430000e+02 1.302724e+02
7.440000e+02 1.372674e+02
7.450000e+02 1.446165e+02
7.460000e+02 1.523364e+02
7.470000e+02 1.604443e+02
7.480000e+02 1.689582e+02
7.490000e+02 1.778988e+02
7.500000e+02 1.872852e+02
7.510000e+02 1.971381e+02
7.520000e+02 2.074791e+02
7.530000e+02 2.183311e+02
7.540000e+02 2.297177e+02
7.550000e+02 2.416635e+02
7.560000e+02 2.541943e+02
7.570000e+02 2.673321e+02
7.580000e+02 2.811191e+02
7.590000e+02 2.955684e+02
7.600000e+02 3.107196e+02
7.610000e+02 3.266010e+02
7.620000e+02 3.432464e+02
7.630000e+02 3.606898e+02
7.640000e+02 3.789673e+02
7.650000e+02 3.981160e+02
7.660000e+02 4.181753e+02
7.670000e+02 4.391834e+02
7.680000e+02 4.611842e+02
7.690000e+02 4.842256e+02
7.700000e+02 5.083475e+02
7.710000e+02 5.335992e+02
7.720000e+02 5.600305e+02
7.730000e+02 5.876926e+02
7.740000e+02 6.166390e+02
7.750000e+02 6.469257e+02
7.760000e+02 6.785587e+02
7.770000e+02 7.117538e+02
7.780000e+02 7.464185e+02
7.790000e+02 7.826693e+02
7.800000e+02 8.205743e+02
7.810000e+02 8.602041e+02
7.820000e+02 9.016316e+02
7.830000e+02 9.449327e+02
7.840000e+02 9.901882e+02
7.850000e+02 1.037476e+03
7.860000e+02 1.086887e+03
7.870000e+02 1.138510e+03
7.880000e+02 1.192433e+03
7.890000e+02 1.248753e+03
7.900000e+02 1.307570e+03
7.910000e+02 1.368988e+03
7.920000e+02 1.433109e+03
7.930000e+02 1.500052e+03
7.940000e+02 1.569930e+03
7.950000e+02 1.642862e+03
7.960000e+02 1.718973e+03
7.970000e+02 1.798391e+03
7.980000e+02 1.881251e+03
7.990000e+02 1.967692e+03
8.000000e+02 2.057858e+03
8.010000e+02 2.151895e+03
8.020000e+02 2.249968e+03
8.030000e+02 2.352228e+03
8.040000e+02 2.458846e+03
8.050000e+02 2.569993e+03
8.060000e+02 2.685850e+03
8.070000e+02 2.806601e+03
8.080000e+02 2.932440e+03
8.090000e+02 3.063559e+03
8.100000e+02 3.200178e+03
8.110000e+02 3.342505e+03
8.120000e+02 3.490763e+03
8.130000e+02 3.645180e+03
8.140000e+02 3.805994e+03
8.150000e+02 3.973448e+03
8.160000e+02 4.147812e+03
8.170000e+02 4.329333e+03
8.180000e+02 4.518294e+03
8.190000e+02 4.714976e+03
8.200000e+02 4.919671e+03
8.210000e+02 5.132684e+03
8.220000e+02 5.354329e+03
8.230000e+02 5.584914e+03
8.240000e+02 5.824810e+03
8.250000e+02 6.074346e+03
8.260000e+02 6.333883e+03
8.270000e+02 6.603794e+03
8.280000e+02 6.884463e+03
8.290000e+02 7.176289e+03
8.300000e+02 7.479685e+03
8.310000e+02 7.795073e+03
8.320000e+02 8.122897e+03
8.330000e+02 8.463609e+03
8.340000e+02 8.817683e+03
8.350000e+02 9.184926e+03
8.360000e+02 9.567830e+03
8.370000e+02 9.965004e+03
8.380000e+02 1.037748e+04
8.390000e+02 1.080604e+04
8.400000e+02 1.125107e+04
8.410000e+02 1.171322e+04
8.420000e+02 1.219291e+04
8.430000e+02 1.269134e+04
8.440000e+02 1.320860e+04
8.450000e+02 1.374555e+04
8.460000e+02 1.430288e+04
8.470000e+02 1.488131e+04
8.480000e+02 1.548158e+04
8.490000e+02 1.610445e+04
8.500000e+02 1.675071e+04
8.510000e+02 1.742118e+04
8.520000e+02 1.811661e+04
8.530000e+02 1.883804e+04
8.540000e+02 1.958634e+04
8.550000e+02 2.036229e+04
8.560000e+02 2.116692e+04
8.570000e+02 2.200121e+04
8.580000e+02 2.286616e+04
8.590000e+02 2.376284e+04
8.600000e+02 2.469229e+04
8.610000e+02 2.565565e+04
8.620000e+02 2.665405e+04
8.630000e+02 2.768863e+04
8.640000e+02 2.876064e+04
8.650000e+02 2.987132e+04
8.660000e+02 3.102202e+04
8.670000e+02 3.221404e+04
8.680000e+02 3.344874e+04
8.690000e+02 3.472754e+04
8.700000e+02 3.605187e+04
8.710000e+02 3.742325e+04
8.720000e+02 3.884322e+04
8.730000e+02 4.031337e+04
8.740000e+02 4.183534e+04
8.750000e+02 4.341080e+04
8.760000e+02 4.504150e+04
8.770000e+02 4.672913e+04
8.780000e+02 4.847584e+04
8.790000e+02 5.028321e+04
8.800000e+02 5.215312e+04
8.810000e+02 5.408791e+04
8.820000e+02 5.608950e+04
8.830000e+02 5.816001e+04
8.840000e+02 6.030161e+04
8.850000e+02 6.251658e+04
8.860000e+02 6.480722e+04
8.870000e+02 6.717592e+04
8.880000e+02 6.962513e+04
8.890000e+02 7.215738e+04
8.900000e+02 7.477526e+04
8.910000e+02 7.748143e+04
8.920000e+02 8.018890e+04
8.930000e+02 8.316973e+04
8.940000e+02 8.615757e+04
8.950000e+02 8.924509e+04
8.960000e+02 9.243557e+04
8.970000e+02 9.573195e+04
8.980000e+02 9.913754e+04
8.990000e+02 1.026557e+05
9.000000e+02 1.062898e+05
9.010000e+02 1.100433e+05
9.020000e+02 1.139200e+05
9.030000e+02 1.179235e+05
9.040000e+02 1.220565e+05
9.050000e+02 1.263261e+05
9.060000e+02 1.307331e+05
9.070000e+02 1.352811e+05
9.080000e+02 1.399800e+05
9.090000e+02 1.448282e+05
9.100000e+02 1.498323e+05
9.110000e+02 1.549973e+05
9.120000e+02 1.603302e+05
9.130000e+02 1.638525e+05
9.140000e+02 1.734590e+05
9.150000e+02 5.554772e+05
9.160000e+02 1.713104e+06
9.170000e+02 1.808404e+06
9.180000e+02 1.601947e+06
9.190000e+02 2.248956e+06
9.200000e+02 2.412137e+06
9.210000e+02 2.100906e+05
9.220000e+02 2.573581e+06
9.230000e+02 1.986513e+06
9.240000e+02 2.437902e+06
9.250000e+02 2.767142e+06
9.260000e+02 2.504351e+06
9.270000e+02 2.938864e+06
9.280000e+02 3.043760e+06
9.290000e+02 2.770466e+06
9.300000e+02 3.153463e+06
9.310000e+02 2.931981e+06
9.320000e+02 3.381199e+06
9.330000e+02 3.470277e+06
9.340000e+02 3.570516e+06
9.350000e+02 9.473458e+05
9.360000e+02 3.633864e+06
9.370000e+02 7.106196e+05
9.380000e+02 1.953151e+06
9.390000e+02 4.025471e+06
9.400000e+02 4.175208e+06
9.410000e+02 1.823304e+06
9.420000e+02 4.400476e+06
9.430000e+02 4.504795e+06
9.440000e+02 3.170505e+06
9.450000e+02 4.752033e+06
9.460000e+02 4.872110e+06
9.470000e+02 3.906954e+06
9.480000e+02 4.299974e+06
9.490000e+02 5.172926e+06
9.500000e+02 1.027270e+06
9.510000e+02 5.336932e+06
9.520000e+02 5.673872e+06
9.530000e+02 5.654698e+06
9.540000e+02 5.034046e+06
9.550000e+02 6.119806e+06
9.560000e+02 5.054753e+06
9.570000e+02 4.483398e+06
9.580000e+02 6.275817e+06
9.590000e+02 6.804932e+06
9.600000e+02 1.406200e+06
9.610000e+02 7.142054e+06
9.620000e+02 7.312486e+06
9.630000e+02 7.511286e+06
9.640000e+02 8.773755e+05
9.650000e+02 7.217808e+06
9.660000e+02 8.081713e+06
9.670000e+02 8.195658e+06
9.680000e+02 8.284256e+06
9.690000e+02 8.648381e+06
9.700000e+02 8.882899e+06
9.710000e+02 8.958213e+06
9.720000e+02 8.465908e+06
9.730000e+02 8.453142e+06
9.740000e+02 9.684541e+06
9.750000e+02 1.002849e+07
9.760000e+02 1.032706e+07
9.770000e+02 1.058388e+07
9.780000e+02 1.080709e+07
9.790000e+02 1.112373e+07
9.800000e+02 1.139264e+07
9.810000e+02 1.165612e+07
9.820000e+02 1.183467e+07
9.830000e+02 1.223608e+07
9.840000e+02 5.399183e+06
9.850000e+02 1.280698e+07
9.860000e+02 1.309895e+07
9.870000e+02 1.345191e+07
9.880000e+02 1.344024e+07
9.890000e+02 1.118333e+07
9.900000e+02 2.189887e+06
9.910000e+02 1.444956e+07
9.920000e+02 1.279007e+07
9.930000e+02 1.468186e+07
9.940000e+02 2.642541e+06
9.950000e+02 4.798000e+06
9.960000e+02 7.886158e+06
9.970000e+02 3.833094e+06
9.980000e+02 1.733930e+07
9.990000e+02 1.732811e+07
1.000000e+03 1.820827e+07
1.001000e+03 1.863811e+07
1.002000e+03 1.905864e+07
1.003000e+03 1.809339e+07
1.004000e+03 1.964378e+07
1.005000e+03 1.859787e+07
1.006000e+03 2.087754e+07
1.007000e+03 2.131594e+07
1.008000e+03 2.180626e+07
1.009000e+03 2.178471e+07
1.010000e+03 2.283375e+07
1.011000e+03 2.335320e+07
1.012000e+03 2.386840e+07
1.013000e+03 2.440146e+07
1.014000e+03 2.279358e+07
1.015000e+03 2.451942e+07
1.016000e+03 2.583772e+07
1.017000e+03 2.471383e+07
1.018000e+03 2.707460e+07
1.019000e+03 2.710683e+07
1.020000e+03 2.835977e+07
1.021000e+03 1.701342e+07
1.022000e+03 2.699578e+07
1.023000e+03 2.877508e+07
1.024000e+03 2.798881e+07
1.025000e+03 2.135370e+07
1.026000e+03 1.088974e+07
1.027000e+03 2.876156e+07
1.028000e+03 8.987786e+06
1.029000e+03 3.180643e+07
1.030000e+03 3.466946e+07
1.031000e+03 3.583949e+07
1.032000e+03 3.668670e+07
1.033000e+03 1.760231e+07
1.034000e+03 3.856704e+07
1.035000e+03 8.844184e+06
1.036000e+03 3.589738e+07
1.037000e+03 7.426720e+06
1.038000e+03 4.216174e+07
1.039000e+03 4.270405e+07
1.040000e+03 4.398743e+07
1.041000e+03 4.455840e+07
1.042000e+03 4.536143e+07
1.043000e+03 4.542614e+07
1.044000e+03 4.780697e+07
1.045000e+03 4.884189e+07
1.046000e+03 4.998367e+07
1.047000e+03 5.087886e+07
1.048000e+03 5.089758e+07
1.049000e+03 5.176081e+07
1.050000e+03 5.424102e+07
1.051000e+03 5.525640e+07
1.052000e+03 5.664175e+07
1.053000e+03 5.723833e+07
1.054000e+03 5.415280e+07
1.055000e+03 5.975752e+07
1.056000e+03 6.154254e+07
1.057000e+03 6.269304e+07
1.058000e+03 6.396098e+07
1.059000e+03 6.451971e+07
1.060000e+03 6.558341e+07
1.061000e+03 6.807054e+07
1.062000e+03 6.930675e+07
1.063000e+03 2.728041e+07
1.064000e+03 1.608496e+07
1.065000e+03 6.981670e+07
1.066000e+03 6.182717e+07
1.067000e+03 7.423770e+07
1.068000e+03 7.901576e+07
1.069000e+03 7.630806e+07
1.070000e+03 8.131499e+07
1.071000e+03 8.393790e+07
1.072000e+03 8.561162e+07
1.073000e+03 8.338641e+07
1.074000e+03 8.882035e+07
1.075000e+03 9.046702e+07
1.076000e+03 9.267130e+07
1.077000e+03 9.367971e+07
1.078000e+03 9.607939e+07
1.079000e+03 9.789250e+07
1.080000e+03 1.000797e+08
1.081000e+03 1.021353e+08
1.082000e+03 1.041193e+08
1.083000e+03 1.060435e+08
1.084000e+03 1.078922e+08
1.085000e+03 8.411200e+07
1.086000e+03 1.126424e+08
1.087000e+03 1.133195e+08
1.088000e+03 1.167470e+08
1.089000e+03 1.192933e+08
1.090000e+03 1.209478e+08
1.091000e+03 1.231855e+08
1.092000e+03 1.263135e+08
1.093000e+03 1.286548e+08
1.094000e+03 1.311303e+08
1.095000e+03 1.336273e+08
1.096000e+03 1.361689e+08
1.097000e+03 1.375157e+08
1.098000e+03 1.397435e+08
1.099000e+03 1.438737e+08
1.100000e+03 1.419913e+08
1.101000e+03 1.360678e+08
1.102000e+03 2.914147e+08
1.103000e+03 8.953626e+08
1.104000e+03 3.700046e+08
1.105000e+03 1.483898e+08
1.106000e+03 1.919556e+09
1.107000e+03 8.864237e+08
1.108000e+03 2.039355e+09
1.109000e+03 1.111417e+09
1.110000e+03 4.648935e+08
1.111000e+03 3.304317e+08
1.112000e+03 1.845160e+09
1.113000e+03 2.248392e+09
1.114000e+03 1.196822e+08
1.115000e+03 1.913977e+09
1.116000e+03 1.837221e+09
1.117000e+03 1.325196e+08
1.118000e+03 1.448984e+09
1.119000e+03 2.354816e+09
1.120000e+03 2.013714e+09
1.121000e+03 2.144030e+09
1.122000e+03 4.968307e+07
1.123000e+03 2.661637e+08
1.124000e+03 2.553623e+09
1.125000e+03 1.246303e+09
1.126000e+03 2.663530e+09
1.127000e+03 2.598088e+09
1.128000e+03 1.077717e+09
1.129000e+03 2.613664e+09
1.130000e+03 2.352860e+09
1.131000e+03 2.847722e+09
1.132000e+03 1.419348e+08
1.133000e+03 1.998825e+09
1.134000e+03 2.760420e+09
1.135000e+03 8.138816e+07
1.136000e+03 2.708003e+09
1.137000e+03 3.072504e+09
1.138000e+03 2.987713e+09
1.139000e+03 3.086417e+09
1.140000e+03 8.838682e+07
1.141000e+03 3.234881e+09
1.142000e+03 3.203212e+09
1.143000e+03 3.303890e+09
1.144000e+03 3.394332e+09
1.145000e+03 2.026268e+09
1.146000e+03 3.483453e+09
1.147000e+03 3.470818e+09
1.148000e+03 2.925453e+09
1.149000e+03 3.602732e+09
1.150000e+03 3.484254e+09
1.151000e+03 3.698507e+09
1.152000e+03 3.729991e+09
1.153000e+03 1.108083e+09
1.154000e+03 2.858808e+08
1.155000e+03 3.054969e+09
1.156000e+03 9.819331e+08
1.157000e+03 4.005161e+09
1.158000e+03 1.312551e+08
1.159000e+03 3.393700e+09
1.160000e+03 3.863710e+09
1.161000e+03 4.228598e+09
1.162000e+03 9.770125e+08
1.163000e+03 3.998097e+09
1.164000e+03 1.854292e+08
1.165000e+03 4.456942e+09
1.166000e+03 4.450540e+09
1.167000e+03 4.381385e+09
1.168000e+03 4.668159e+09
1.169000e+03 4.618377e+09
1.170000e+03 4.776115e+09
1.171000e+03 4.835661e+09
1.172000e+03 4.597989e+09
1.173000e+03 5.001512e+09
1.174000e+03 4.042722e+09
1.175000e+03 2.121805e+08
1.176000e+03 1.792195e+08
1.177000e+03 5.270432e+09
1.178000e+03 5.005073e+09
1.179000e+03 5.417364e+09
1.180000e+03 4.027408e+09
1.181000e+03 5.522353e+09
1.182000e+03 5.624321e+09
1.183000e+03 5.653060e+09
1.184000e+03 5.694954e+09
1.185000e+03 5.681301e+09
1.186000e+03 5.541486e+09
1.187000e+03 5.912390e+09
1.188000e+03 5.677306e+09
1.189000e+03 2.187924e+08
1.190000e+03 8.926126e+08
1.191000e+03 5.961751e+09
1.192000e+03 6.054421e+09
1.193000e+03 2.022482e+08
1.194000e+03 2.495258e+08
1.195000e+03 4.281869e+09
1.196000e+03 6.111017e+09
1.197000e+03 8.143215e+09
1.198000e+03 7.819436e+09
1.199000e+03 7.985452e+09
1.200000e+03 6.941285e+09
1.201000e+03 7.484731e+09
1.202000e+03 7.195998e+09
1.203000e+03 8.466008e+09
1.204000e+03 7.162989e+09
1.205000e+03 7.157501e+09
1.206000e+03 6.224527e+09
1.207000e+03 1.480043e+09
1.208000e+03 4.983009e+09
1.209000e+03 3.820345e+09
1.210000e+03 3.525540e+08
1.211000e+03 2.321533e+09
1.212000e+03 1.529400e+09
1.213000e+03 9.733947e+08
1.214000e+03 5.671817e+08
1.215000e+03 3.525703e+08
1.216000e+03 3.191065e+08
1.217000e+03 4.961306e+08
1.218000e+03 8.779729e+08
1.219000e+03 1.503274e+09
1.220000e+03 2.340494e+09
1.221000e+03 3.391151e+09
1.222000e+03 4.547803e+09
1.223000e+03 5.813090e+09
1.224000e+03 7.144353e+09
1.225000e+03 7.998580e+09
1.226000e+03 9.782682e+09
1.227000e+03 1.105409e+10
1.228000e+03 1.200881e+10
1.229000e+03 1.354310e+10
1.230000e+03 1.450428e+10
1.231000e+03 1.526196e+10
1.232000e+03 1.743472e+10
1.233000e+03 1.858228e+10
1.234000e+03 1.220990e+10
1.235000e+03 2.058592e+10
1.236000e+03 1.973210e+10
1.237000e+03 2.254267e+10
1.238000e+03 2.308343e+10
1.239000e+03 2.397134e+10
1.240000e+03 2.240477e+10
1.241000e+03 4.057939e+10
1.242000e+03 2.140719e+10
1.243000e+03 3.350959e+10
1.244000e+03 1.282670e+10
1.245000e+03 1.955902e+10
1.246000e+03 6.431284e+10
1.247000e+03 6.462949e+10
1.248000e+03 1.364043e+10
1.249000e+03 1.738148e+10
1.250000e+03 7.740409e+10
1.251000e+03 8.338906e+10
1.252000e+03 8.050552e+10
1.253000e+03 8.833702e+10
1.254000e+03 8.480908e+10
1.255000e+03 9.346646e+10
1.256000e+03 8.918792e+10
1.257000e+03 9.760174e+10
1.258000e+03 8.340297e+10
1.259000e+03 9.257964e+10
1.260000e+03 8.242568e+10
1.261000e+03 6.944358e+08
1.262000e+03 7.869755e+09
1.263000e+03 1.075716e+11
1.264000e+03 8.643527e+10
1.265000e+03 7.044874e+08
1.266000e+03 1.093844e+11
1.267000e+03 1.046387e+11
