# wavelength_A flux
5.000000e+02 8.862066e-29
5.010000e+02 1.104720e-28
5.020000e+02 1.375877e-28
5.030000e+02 1.712061e-28
5.040000e+02 2.128502e-28
5.050000e+02 2.654637e-28
5.060000e+02 3.294180e-28
5.070000e+02 4.084025e-28
5.080000e+02 5.059260e-28
5.090000e+02 6.261756e-28
5.100000e+02 7.714921e-28
5.110000e+02 9.567694e-28
5.120000e+02 1.181114e-27
5.130000e+02 1.456986e-27
5.140000e+02 1.795712e-27
5.150000e+02 2.211350e-27
5.160000e+02 2.720951e-27
5.170000e+02 3.345277e-27
5.180000e+02 4.109495e-27
5.190000e+02 5.044214e-27
5.200000e+02 6.186562e-27
5.210000e+02 7.581548e-27
5.220000e+02 9.283465e-27
5.230000e+02 1.135904e-26
5.240000e+02 1.388741e-26
5.250000e+02 1.696529e-26
5.260000e+02 2.070922e-26
5.270000e+02 2.525984e-26
5.280000e+02 3.078675e-26
5.290000e+02 3.749430e-26
5.300000e+02 4.562859e-26
5.310000e+02 5.548565e-26
5.320000e+02 6.742146e-26
5.330000e+02 8.186368e-26
5.340000e+02 9.932573e-26
5.350000e+02 1.204236e-25
5.360000e+02 1.458954e-25
5.370000e+02 1.764308e-25
5.380000e+02 2.136749e-25
5.390000e+02 2.583085e-25
5.400000e+02 3.120408e-25
5.410000e+02 3.766797e-25
5.420000e+02 4.543888e-25
5.430000e+02 5.477403e-25
5.440000e+02 6.598065e-25
5.450000e+02 7.942461e-25
5.460000e+02 9.554142e-25
5.470000e+02 1.148493e-24
5.480000e+02 1.379642e-24
5.490000e+02 1.656180e-24
5.500000e+02 1.986797e-24
5.510000e+02 2.381803e-24
5.520000e+02 2.853422e-24
5.530000e+02 3.416141e-24
5.540000e+02 4.087114e-24
5.550000e+02 4.886639e-24
5.560000e+02 5.838726e-24
5.570000e+02 6.971748e-24
5.580000e+02 8.319218e-24
5.590000e+02 9.920697e-24
5.600000e+02 1.182285e-23
5.610000e+02 1.408069e-23
5.620000e+02 1.675904e-23
5.630000e+02 1.993421e-23
5.640000e+02 2.369600e-23
5.650000e+02 2.815004e-23
5.660000e+02 3.342042e-23
5.670000e+02 3.965295e-23
5.680000e+02 4.701876e-23
5.690000e+02 5.571860e-23
5.700000e+02 6.598786e-23
5.710000e+02 7.810236e-23
5.720000e+02 9.238509e-23
5.730000e+02 1.092141e-22
5.740000e+02 1.290315e-22
5.750000e+02 1.523542e-22
5.760000e+02 1.797862e-22
5.770000e+02 2.120329e-22
5.780000e+02 2.499167e-22
5.790000e+02 2.943977e-22
5.800000e+02 3.465948e-22
5.810000e+02 4.078113e-22
5.820000e+02 4.795649e-22
5.830000e+02 5.636217e-22
5.840000e+02 6.620290e-22
5.850000e+02 7.771945e-22
5.860000e+02 9.118761e-22
5.870000e+02 1.069297e-21
5.880000e+02 1.253197e-21
5.890000e+02 1.467912e-21
5.900000e+02 1.718469e-21
5.910000e+02 2.010693e-21
5.920000e+02 2.351329e-21
5.930000e+02 2.748183e-21
5.940000e+02 3.210286e-21
5.950000e+02 3.748081e-21
5.960000e+02 4.373633e-21
5.970000e+02 5.100881e-21
5.980000e+02 5.945914e-21
5.990000e+02 6.927298e-21
6.000000e+02 8.066440e-21
6.010000e+02 9.388019e-21
6.020000e+02 1.092047e-20
6.030000e+02 1.269652e-20
6.040000e+02 1.475386e-20
6.050000e+02 1.713583e-20
6.060000e+02 1.989227e-20
6.070000e+02 2.308044e-20
6.080000e+02 2.676614e-20
6.090000e+02 3.102489e-20
6.100000e+02 3.594337e-20
6.110000e+02 4.162098e-20
6.120000e+02 4.817169e-20
6.130000e+02 5.572610e-20
6.140000e+02 6.443378e-20
6.150000e+02 7.446597e-20
6.160000e+02 8.601860e-20
6.170000e+02 9.931575e-20
6.180000e+02 1.146136e-19
6.190000e+02 1.322049e-19
6.200000e+02 1.524240e-19
6.210000e+02 1.756526e-19
6.220000e+02 2.023262e-19
6.230000e+02 2.329415e-19
6.240000e+02 2.680649e-19
6.250000e+02 3.083418e-19
6.260000e+02 3.545072e-19
6.270000e+02 4.073980e-19
6.280000e+02 4.679667e-19
6.290000e+02 5.372967e-19
6.300000e+02 6.166197e-19
6.310000e+02 7.073322e-19
6.320000e+02 8.110355e-19
6.330000e+02 9.295248e-19
6.340000e+02 1.064853e-18
6.350000e+02 1.219347e-18
6.360000e+02 1.395644e-18
6.370000e+02 1.596733e-18
6.380000e+02 1.826003e-18
6.390000e+02 2.087291e-18
6.400000e+02 2.384942e-18
6.410000e+02 2.723871e-18
6.420000e+02 3.109641e-18
6.430000e+02 3.548541e-18
6.440000e+02 4.047679e-18
6.450000e+02 4.615087e-18
6.460000e+02 5.259836e-18
6.470000e+02 5.992163e-18
6.480000e+02 6.823627e-18
6.490000e+02 7.767260e-18
6.500000e+02 8.837759e-18
6.510000e+02 1.005169e-17
6.520000e+02 1.142772e-17
6.530000e+02 1.298686e-17
6.540000e+02 1.475278e-17
6.550000e+02 1.675210e-17
6.560000e+02 1.901479e-17
6.570000e+02 2.157453e-17
6.580000e+02 2.446918e-17
6.590000e+02 2.774127e-17
6.600000e+02 3.143861e-17
6.610000e+02 3.561482e-17
6.620000e+02 4.033014e-17
6.630000e+02 4.565210e-17
6.640000e+02 5.165648e-17
6.650000e+02 5.842820e-17
6.660000e+02 6.606245e-17
6.670000e+02 7.466586e-17
6.680000e+02 8.435782e-17
6.690000e+02 9.527202e-17
6.700000e+02 1.075580e-16
6.710000e+02 1.213831e-16
6.720000e+02 1.369345e-16
6.730000e+02 1.544212e-16
6.740000e+02 1.740770e-16
6.750000e+02 1.961629e-16
6.760000e+02 2.209704e-16
6.770000e+02 2.488250e-16
6.780000e+02 2.800895e-16
6.790000e+02 3.151691e-16
6.800000e+02 3.545153e-16
6.810000e+02 3.986315e-16
6.820000e+02 4.480786e-16
6.830000e+02 5.034815e-16
6.840000e+02 5.655357e-16
6.850000e+02 6.350159e-16
6.860000e+02 7.127837e-16
6.870000e+02 7.997980e-16
6.880000e+02 8.971248e-16
6.890000e+02 1.005949e-15
6.900000e+02 1.127588e-15
6.910000e+02 1.263505e-15
6.920000e+02 1.415325e-15
6.930000e+02 1.584851e-15
6.940000e+02 1.774086e-15
6.950000e+02 1.985251e-15
6.960000e+02 2.220809e-15
6.970000e+02 2.483493e-15
6.980000e+02 2.776330e-15
6.990000e+02 3.102675e-15
7.000000e+02 3.466244e-15
7.010000e+02 3.871152e-15
7.020000e+02 4.321955e-15
7.030000e+02 4.823694e-15
7.040000e+02 5.381947e-15
7.050000e+02 6.002881e-15
7.060000e+02 6.693316e-15
7.070000e+02 7.460791e-15
7.080000e+02 8.313633e-15
7.090000e+02 9.261043e-15
7.100000e+02 1.031318e-14
7.110000e+02 1.148126e-14
7.120000e+02 1.277766e-14
7.130000e+02 1.421604e-14
7.140000e+02 1.581146e-14
7.150000e+02 1.758051e-14
7.160000e+02 1.954152e-14
7.170000e+02 2.171465e-14
7.180000e+02 2.412212e-14
7.190000e+02 2.678841e-14
7.200000e+02 2.974047e-14
7.210000e+02 3.300795e-14
7.220000e+02 3.662348e-14
7.230000e+02 4.062297e-14
7.240000e+02 4.504590e-14
7.250000e+02 4.993567e-14
7.260000e+02 5.534000e-14
7.270000e+02 6.131129e-14
7.280000e+02 6.790714e-14
7.290000e+02 7.519078e-14
7.300000e+02 8.323163e-14
7.310000e+02 9.210590e-14
7.320000e+02 1.018972e-13
7.330000e+02 1.126972e-13
7.340000e+02 1.246066e-13
7.350000e+02 1.377355e-13
7.360000e+02 1.522049e-13
7.370000e+02 1.681472e-13
7.380000e+02 1.857076e-13
7.390000e+02 2.050448e-13
7.400000e+02 2.263328e-13
7.410000e+02 2.497622e-13
7.420000e+02 2.755411e-13
7.430000e+02 3.038978e-13
7.440000e+02 3.350814e-13
7.450000e+02 3.693646e-13
7.460000e+02 4.070455e-13
7.470000e+02 4.484497e-13
7.480000e+02 4.939332e-13
7.490000e+02 5.438846e-13
7.500000e+02 5.987284e-13
7.510000e+02 6.589280e-13
7.520000e+02 7.249893e-13
7.530000e+02 7.974641e-13
7.540000e+02 8.769547e-13
7.550000e+02 9.641177e-13
7.560000e+02 1.059669e-12
7.570000e+02 1.164389e-12
7.580000e+02 1.279129e-12
7.590000e+02 1.404815e-12
7.600000e+02 1.542458e-12
7.610000e+02 1.693155e-12
7.620000e+02 1.858105e-12
7.630000e+02 2.038611e-12
7.640000e+02 2.236090e-12
7.650000e+02 2.452084e-12
7.660000e+02 2.688272e-12
7.670000e+02 2.946479e-12
7.680000e+02 3.228687e-12
7.690000e+02 3.537053e-12
7.700000e+02 3.873921e-12
7.710000e+02 4.241834e-12
7.720000e+02 4.643558e-12
7.730000e+02 5.082095e-12
7.740000e+02 5.560704e-12
7.750000e+02 6.082923e-12
7.760000e+02 6.652590e-12
7.770000e+02 7.273870e-12
7.780000e+02 7.951279e-12
7.790000e+02 8.689717e-12
7.800000e+02 9.494494e-12
7.810000e+02 1.037136e-11
7.820000e+02 1.132657e-11
7.830000e+02 1.236686e-11
7.840000e+02 1.349956e-11
7.850000e+02 1.473260e-11
7.860000e+02 1.607456e-11
7.870000e+02 1.753473e-11
7.880000e+02 1.912316e-11
7.890000e+02 2.085073e-11
7.900000e+02 2.272921e-11
7.910000e+02 2.477132e-11
7.920000e+02 2.699082e-11
7.930000e+02 2.940260e-11
7.940000e+02 3.202272e-11
7.950000e+02 3.486856e-11
7.960000e+02 3.795889e-11
7.970000e+02 4.131398e-11
7.980000e+02 4.495571e-11
7.990000e+02 4.890773e-11
8.000000e+02 5.319555e-11
8.010000e+02 5.784670e-11
8.020000e+02 6.289088e-11
8.030000e+02 6.836014e-11
8.040000e+02 7.428905e-11
8.050000e+02 8.071487e-11
8.060000e+02 8.767777e-11
8.070000e+02 9.522108e-11
8.080000e+02 1.033915e-10
8.090000e+02 1.122392e-10
8.100000e+02 1.218184e-10
8.110000e+02 1.321875e-10
8.120000e+02 1.434093e-10
8.130000e+02 1.555513e-10
8.140000e+02 1.686864e-10
8.150000e+02 1.828929e-10
8.160000e+02 1.982550e-10
8.170000e+02 2.148635e-10
8.180000e+02 2.328158e-10
8.190000e+02 2.522167e-10
8.200000e+02 2.731789e-10
8.210000e+02 2.958236e-10
8.220000e+02 3.202810e-10
8.230000e+02 3.466909e-10
8.240000e+02 3.752036e-10
8.250000e+02 4.059804e-10
8.260000e+02 4.391948e-10
8.270000e+02 4.750327e-10
8.280000e+02 5.136938e-10
8.290000e+02 5.553925e-10
8.300000e+02 6.003588e-10
8.310000e+02 6.488393e-10
8.320000e+02 7.010989e-10
8.330000e+02 7.574213e-10
8.340000e+02 8.181107e-10
8.350000e+02 8.834936e-10
8.360000e+02 9.539195e-10
8.370000e+02 1.029763e-09
8.380000e+02 1.111426e-09
8.390000e+02 1.199338e-09
8.400000e+02 1.293961e-09
8.410000e+02 1.395786e-09
8.420000e+02 1.505343e-09
8.430000e+02 1.623197e-09
8.440000e+02 1.749953e-09
8.450000e+02 1.886258e-09
8.460000e+02 2.032805e-09
8.470000e+02 2.190336e-09
8.480000e+02 2.359642e-09
8.490000e+02 2.541573e-09
8.500000e+02 2.737032e-09
8.510000e+02 2.946990e-09
8.520000e+02 3.172481e-09
8.530000e+02 3.414612e-09
8.540000e+02 3.674565e-09
8.550000e+02 3.953602e-09
8.560000e+02 4.253073e-09
8.570000e+02 4.574416e-09
8.580000e+02 4.919170e-09
8.590000e+02 5.288975e-09
8.600000e+02 5.685585e-09
8.610000e+02 6.110867e-09
8.620000e+02 6.566818e-09
8.630000e+02 7.055564e-09
8.640000e+02 7.579374e-09
8.650000e+02 8.140671e-09
8.660000e+02 8.742035e-09
8.670000e+02 9.386216e-09
8.680000e+02 1.007615e-08
8.690000e+02 1.081496e-08
8.700000e+02 1.160597e-08
8.710000e+02 1.245274e-08
8.720000e+02 1.335904e-08
8.730000e+02 1.432890e-08
8.740000e+02 1.536661e-08
8.750000e+02 1.647673e-08
8.760000e+02 1.766412e-08
8.770000e+02 1.893395e-08
8.780000e+02 2.029172e-08
8.790000e+02 2.174329e-08
8.800000e+02 2.329489e-08
8.810000e+02 2.495315e-08
8.820000e+02 2.672511e-08
8.830000e+02 2.861828e-08
8.840000e+02 3.064061e-08
8.850000e+02 3.280057e-08
8.860000e+02 3.510718e-08
8.870000e+02 3.757000e-08
8.880000e+02 4.019919e-08
8.890000e+02 4.300556e-08
8.900000e+02 4.600058e-08
8.910000e+02 4.919643e-08
8.920000e+02 5.260606e-08
8.930000e+02 5.624321e-08
8.940000e+02 6.012245e-08
8.950000e+02 6.425928e-08
8.960000e+02 6.867012e-08
8.970000e+02 7.337241e-08
8.980000e+02 7.838464e-08
8.990000e+02 8.372644e-08
9.000000e+02 8.941862e-08
9.010000e+02 9.548326e-08
9.020000e+02 1.019438e-07
9.030000e+02 1.088249e-07
9.040000e+02 1.161531e-07
9.050000e+02 1.239561e-07
9.060000e+02 1.322635e-07
9.070000e+02 1.411067e-07
9.080000e+02 1.505187e-07
9.090000e+02 1.605347e-07
9.100000e+02 1.711919e-07
9.110000e+02 1.825298e-07
9.120000e+02 1.945900e-07
9.130000e+02 2.074168e-07
9.140000e+02 2.235847e-07
9.150000e+02 5.183809e-05
9.160000e+02 2.667354e-04
9.170000e+02 7.802717e-06
9.180000e+02 6.658769e-05
9.190000e+02 7.286838e-04
9.200000e+02 1.906852e-03
9.210000e+02 3.438512e-07
9.220000e+02 5.957810e-04
9.230000e+02 8.646710e-06
9.240000e+02 1.400523e-05
9.250000e+02 1.021554e-04
9.260000e+02 9.090325e-05
9.270000e+02 1.117631e-05
9.280000e+02 8.674128e-03
9.290000e+02 9.491013e-03
9.300000e+02 2.285635e-03
9.310000e+02 1.258599e-05
9.320000e+02 7.672794e-03
9.330000e+02 5.523842e-04
9.340000e+02 1.659635e-04
9.350000e+02 2.933551e-05
9.360000e+02 2.932966e-05
9.370000e+02 6.232425e-06
9.380000e+02 2.086437e-05
9.390000e+02 7.548892e-05
9.400000e+02 5.158006e-03
9.410000e+02 7.455094e-04
9.420000e+02 2.778225e-02
9.430000e+02 1.129704e-04
9.440000e+02 3.147189e-02
9.450000e+02 2.716083e-02
9.460000e+02 1.725994e-03
9.470000e+02 4.881294e-06
9.480000e+02 8.765443e-03
9.490000e+02 1.212784e-03
9.500000e+02 3.350783e-05
9.510000e+02 1.295140e-03
9.520000e+02 2.853214e-03
9.530000e+02 2.674326e-05
9.540000e+02 5.596570e-06
9.550000e+02 2.925657e-04
9.560000e+02 3.384496e-02
9.570000e+02 1.483702e-04
9.580000e+02 3.558816e-06
9.590000e+02 1.494020e-02
9.600000e+02 6.331719e-05
9.610000e+02 2.200093e-03
9.620000e+02 8.156086e-04
9.630000e+02 2.015606e-04
9.640000e+02 3.497180e-05
9.650000e+02 1.491606e-05
9.660000e+02 3.162399e-04
9.670000e+02 6.264262e-05
9.680000e+02 4.152767e-05
9.690000e+02 1.833355e-03
9.700000e+02 1.861034e-03
9.710000e+02 8.787250e-05
9.720000e+02 4.645117e-05
9.730000e+02 2.956789e-04
9.740000e+02 1.995758e-03
9.750000e+02 6.145968e-04
9.760000e+02 1.802749e-02
9.770000e+02 8.730918e-03
9.780000e+02 3.154597e-03
9.790000e+02 1.194467e-01
9.800000e+02 1.106244e-01
9.810000e+02 2.283357e-03
9.820000e+02 4.412681e-04
9.830000e+02 6.511413e-02
9.840000e+02 4.989086e-03
9.850000e+02 1.117170e-03
9.860000e+02 1.733505e-03
9.870000e+02 7.614378e-02
9.880000e+02 4.222989e-05
9.890000e+02 1.060433e-02
9.900000e+02 2.725448e-02
9.910000e+02 4.178968e-04
9.920000e+02 2.237966e-05
9.930000e+02 2.315659e-01
9.940000e+02 4.489534e-05
9.950000e+02 1.144610e-02
9.960000e+02 1.427084e-04
9.970000e+02 1.314172e-02
9.980000e+02 3.643558e-02
9.990000e+02 7.728152e-04
1.000000e+03 3.732398e-01
1.001000e+03 3.050581e-01
1.002000e+03 2.067206e-01
1.003000e+03 8.422285e-04
1.004000e+03 7.475913e-05
1.005000e+03 2.661020e-03
1.006000e+03 1.332147e-01
1.007000e+03 2.568645e-01
1.008000e+03 6.277356e-02
1.009000e+03 1.318538e-03
1.010000e+03 6.772472e-02
1.011000e+03 1.211613e-01
1.012000e+03 8.734345e-02
1.013000e+03 7.669936e-02
1.014000e+03 6.975234e-05
1.015000e+03 1.252368e-04
1.016000e+03 3.240868e-03
1.017000e+03 7.854402e-05
1.018000e+03 1.297645e-03
1.019000e+03 1.260936e-04
1.020000e+03 1.927040e-01
1.021000e+03 2.074003e-03
1.022000e+03 3.078073e-03
1.023000e+03 2.446920e-04
1.024000e+03 3.089728e-02
1.025000e+03 1.165064e-04
1.026000e+03 2.112524e-04
1.027000e+03 8.467110e-03
1.028000e+03 1.260351e-03
1.029000e+03 1.450256e-04
1.030000e+03 1.364982e-02
1.031000e+03 2.084303e-02
1.032000e+03 2.657813e-01
1.033000e+03 1.034492e-02
1.034000e+03 3.063644e-02
1.035000e+03 8.504540e-04
1.036000e+03 2.132803e-04
1.037000e+03 2.162735e-01
1.038000e+03 1.480450e+00
1.039000e+03 2.277746e-01
1.040000e+03 2.579933e-01
1.041000e+03 2.039229e+00
1.042000e+03 8.711963e-01
1.043000e+03 8.826690e-01
1.044000e+03 4.462351e+00
1.045000e+03 6.850837e-04
1.046000e+03 2.586308e-01
1.047000e+03 6.951666e-02
1.048000e+03 1.979783e-03
1.049000e+03 7.686238e-02
1.050000e+03 2.520186e-02
1.051000e+03 1.389766e-02
1.052000e+03 1.009037e+00
1.053000e+03 2.367199e+00
1.054000e+03 4.858971e-04
1.055000e+03 3.040808e+00
1.056000e+03 3.223028e+00
1.057000e+03 1.999940e-01
1.058000e+03 1.471313e-02
1.059000e+03 9.449005e-03
1.060000e+03 3.082931e-03
1.061000e+03 3.284826e-01
1.062000e+03 7.989584e-03
1.063000e+03 2.639528e-01
1.064000e+03 1.360893e-03
1.065000e+03 8.131266e-04
1.066000e+03 4.751122e-01
1.067000e+03 8.421602e-03
1.068000e+03 7.642035e+00
1.069000e+03 2.423578e-03
1.070000e+03 1.189165e-01
1.071000e+03 2.140825e+00
1.072000e+03 5.178326e+00
1.073000e+03 1.270771e-03
1.074000e+03 2.128729e-01
1.075000e+03 1.241560e-01
1.076000e+03 5.986554e+00
1.077000e+03 9.958923e-03
1.078000e+03 1.971531e-02
1.079000e+03 8.423355e-02
1.080000e+03 2.858048e-01
1.081000e+03 1.203352e+00
1.082000e+03 6.923494e-01
1.083000e+03 3.683448e-01
1.084000e+03 1.593912e+01
1.085000e+03 9.981823e-02
1.086000e+03 1.090518e+01
1.087000e+03 2.146053e-02
1.088000e+03 2.075742e+01
1.089000e+03 2.097050e+01
1.090000e+03 7.958139e-02
1.091000e+03 1.100597e-01
1.092000e+03 1.486385e+01
1.093000e+03 1.833504e+01
1.094000e+03 1.013260e+00
1.095000e+03 2.682968e+01
1.096000e+03 2.309040e+00
1.097000e+03 4.010828e+00
1.098000e+03 2.401466e+01
1.099000e+03 2.969227e-01
1.100000e+03 7.807136e-03
1.101000e+03 1.939574e-02
1.102000e+03 1.813533e-01
1.103000e+03 2.138145e+01
1.104000e+03 3.460387e+01
1.105000e+03 2.780349e+01
1.106000e+03 8.508667e-01
1.107000e+03 1.169395e-02
1.108000e+03 5.458478e+00
1.109000e+03 1.078854e-01
1.110000e+03 4.039744e+01
1.111000e+03 1.691956e+01
1.112000e+03 2.423815e+00
1.113000e+03 2.741611e+01
1.114000e+03 1.451496e+00
1.115000e+03 1.456575e-01
1.116000e+03 6.715119e-02
1.117000e+03 1.780967e+01
1.118000e+03 1.766233e-01
1.119000e+03 3.081869e+00
1.120000e+03 8.509731e-02
1.121000e+03 1.245544e+01
1.122000e+03 5.454225e+01
1.123000e+03 2.622707e+01
1.124000e+03 3.044911e+01
1.125000e+03 1.284397e+01
1.126000e+03 9.224878e+01
1.127000e+03 1.952923e+01
1.128000e+03 4.800648e+01
1.129000e+03 7.902658e+00
1.130000e+03 4.139756e+01
1.131000e+03 5.562286e+01
1.132000e+03 1.549330e-01
1.133000e+03 8.073807e-01
1.134000e+03 8.932564e+00
1.135000e+03 4.126136e+01
1.136000e+03 1.763081e+00
1.137000e+03 3.128276e+01
1.138000e+03 7.382998e+00
1.139000e+03 5.867022e+01
1.140000e+03 5.977911e+01
1.141000e+03 5.020385e+01
1.142000e+03 6.812542e+01
1.143000e+03 1.154928e+01
1.144000e+03 6.629299e+01
1.145000e+03 8.432770e-02
1.146000e+03 7.429674e+01
1.147000e+03 5.930696e+01
1.148000e+03 5.323009e-01
1.149000e+03 3.469271e+01
1.150000e+03 2.266063e+01
1.151000e+03 7.139578e+01
1.152000e+03 4.709848e+01
1.153000e+03 6.011599e+01
1.154000e+03 7.544814e+01
1.155000e+03 3.002766e+01
1.156000e+03 6.153174e+01
1.157000e+03 6.988449e+01
1.158000e+03 1.240621e+01
1.159000e+03 6.611836e+01
1.160000e+03 1.430722e+01
1.161000e+03 5.850583e+01
1.162000e+03 2.136375e+00
1.163000e+03 6.635925e+00
1.164000e+03 4.104729e-01
1.165000e+03 3.233688e+01
1.166000e+03 1.855541e+01
1.167000e+03 1.554586e+01
1.168000e+03 7.552797e+01
1.169000e+03 7.973003e+01
1.170000e+03 1.268184e+01
1.171000e+03 3.913681e+01
1.172000e+03 1.772371e+01
1.173000e+03 3.283924e+01
1.174000e+03 4.712305e-01
1.175000e+03 2.656870e-01
1.176000e+03 1.069446e-01
1.177000e+03 9.767075e+01
1.178000e+03 9.465592e+01
1.179000e+03 8.324094e+01
1.180000e+03 3.935456e+01
1.181000e+03 8.504333e+01
1.182000e+03 7.510491e+01
1.183000e+03 4.145792e+01
1.184000e+03 3.438694e+01
1.185000e+03 4.354831e+01
1.186000e+03 2.254503e+00
1.187000e+03 5.875076e+01
1.188000e+03 2.564773e+01
1.189000e+03 7.074458e+01
1.190000e+03 6.810863e+01
1.191000e+03 5.267180e+01
1.192000e+03 5.841675e+01
1.193000e+03 4.575593e+01
1.194000e+03 5.632872e+01
1.195000e+03 5.370071e+01
1.196000e+03 2.711430e+02
1.197000e+03 4.185842e+02
1.198000e+03 6.527588e+00
1.199000e+03 3.841908e+02
1.200000e+03 1.836870e+01
1.201000e+03 3.139249e+02
1.202000e+03 9.161303e+01
1.203000e+03 2.278001e+02
1.204000e+03 1.800854e+01
1.205000e+03 1.622983e+02
1.206000e+03 1.530221e+02
1.207000e+03 3.520605e+01
1.208000e+03 8.842775e+01
1.209000e+03 7.577299e+01
1.210000e+03 4.633904e-01
1.211000e+03 3.261522e+01
1.212000e+03 1.524818e+01
1.213000e+03 8.532715e+00
1.214000e+03 2.729614e+00
1.215000e+03 4.546309e-01
1.216000e+03 3.448136e-01
1.217000e+03 1.730331e+00
1.218000e+03 7.093575e+00
1.219000e+03 1.752789e+01
1.220000e+03 1.496229e+01
1.221000e+03 6.076933e+01
1.222000e+03 8.116862e+01
1.223000e+03 8.930294e+01
1.224000e+03 1.750074e+02
1.225000e+03 1.015607e+01
1.226000e+03 3.208929e+02
1.227000e+03 3.774675e+02
1.228000e+03 6.283026e+01
1.229000e+03 3.925762e+02
1.230000e+03 2.931668e+02
1.231000e+03 3.865729e+01
1.232000e+03 8.064549e+02
1.233000e+03 9.083023e+02
1.234000e+03 8.308733e+02
1.235000e+03 8.846416e+02
1.236000e+03 9.855112e+01
1.237000e+03 1.168325e+03
1.238000e+03 1.081434e+03
1.239000e+03 5.762491e+02
1.240000e+03 6.602635e+02
1.241000e+03 5.929284e+02
1.242000e+03 1.110108e+03
1.243000e+03 1.565386e+03
1.244000e+03 1.691691e+03
1.245000e+03 1.593895e+03
1.246000e+03 1.086483e+03
1.247000e+03 1.422954e+03
1.248000e+03 1.605483e+03
1.249000e+03 2.061884e+03
1.250000e+03 1.417602e+03
1.251000e+03 2.092657e+03
1.252000e+03 1.688853e+03
1.253000e+03 2.236164e+03
1.254000e+03 1.847019e+03
1.255000e+03 9.573358e+02
1.256000e+03 1.546493e+03
1.257000e+03 1.671737e+03
1.258000e+03 8.677490e+02
1.259000e+03 1.353285e+03
1.260000e+03 2.447585e+03
1.261000e+03 1.354919e+02
1.262000e+03 2.641333e+03
1.263000e+03 2.281567e+03
1.264000e+03 1.134413e+03
1.265000e+03 5.463879e+02
1.266000e+03 2.798098e+03
1.267000e+03 1.668521e+03
