# wavelength_A flux
5.000000e+02 2.931173e-08
5.010000e+02 3.324704e-08
5.020000e+02 3.769105e-08
5.030000e+02 4.270694e-08
5.040000e+02 4.836543e-08
5.050000e+02 5.542899e-08
5.060000e+02 6.270253e-08
5.070000e+02 7.089473e-08
5.080000e+02 8.011707e-08
5.090000e+02 9.049447e-08
5.100000e+02 1.021648e-07
5.110000e+02 1.152834e-07
5.120000e+02 1.300228e-07
5.130000e+02 1.465753e-07
5.140000e+02 1.651551e-07
5.150000e+02 1.859996e-07
5.160000e+02 2.093769e-07
5.170000e+02 2.355741e-07
5.180000e+02 2.649351e-07
5.190000e+02 2.978091e-07
5.200000e+02 3.346059e-07
5.210000e+02 3.757742e-07
5.220000e+02 4.217889e-07
5.230000e+02 4.732748e-07
5.240000e+02 5.307722e-07
5.250000e+02 5.949898e-07
5.260000e+02 6.666721e-07
5.270000e+02 7.466553e-07
5.280000e+02 8.358614e-07
5.290000e+02 9.351996e-07
5.300000e+02 1.046130e-06
5.310000e+02 1.169568e-06
5.320000e+02 1.307002e-06
5.330000e+02 1.459950e-06
5.340000e+02 1.630094e-06
5.350000e+02 1.819286e-06
5.360000e+02 2.029564e-06
5.370000e+02 2.249398e-06
5.380000e+02 2.522641e-06
5.390000e+02 2.810704e-06
5.400000e+02 3.130323e-06
5.410000e+02 3.484695e-06
5.420000e+02 3.877890e-06
5.430000e+02 4.313548e-06
5.440000e+02 4.796169e-06
5.450000e+02 5.330629e-06
5.460000e+02 5.921726e-06
5.470000e+02 6.576916e-06
5.480000e+02 7.301024e-06
5.490000e+02 8.101659e-06
5.500000e+02 8.986541e-06
5.510000e+02 9.964167e-06
5.520000e+02 1.104384e-05
5.530000e+02 1.223576e-05
5.540000e+02 1.355110e-05
5.550000e+02 1.500207e-05
5.560000e+02 1.660208e-05
5.570000e+02 1.836577e-05
5.580000e+02 2.030916e-05
5.590000e+02 2.244977e-05
5.600000e+02 2.480674e-05
5.610000e+02 2.740100e-05
5.620000e+02 3.025539e-05
5.630000e+02 3.339487e-05
5.640000e+02 3.684666e-05
5.650000e+02 4.064047e-05
5.660000e+02 4.480874e-05
5.670000e+02 4.938676e-05
5.680000e+02 5.441306e-05
5.690000e+02 5.992961e-05
5.700000e+02 6.598206e-05
5.710000e+02 7.262031e-05
5.720000e+02 7.989841e-05
5.730000e+02 8.787536e-05
5.740000e+02 9.661525e-05
5.750000e+02 1.061886e-04
5.760000e+02 1.166647e-04
5.770000e+02 1.281417e-04
5.780000e+02 1.406941e-04
5.790000e+02 1.544239e-04
5.800000e+02 1.694367e-04
5.810000e+02 1.858470e-04
5.820000e+02 2.037789e-04
5.830000e+02 2.233661e-04
5.840000e+02 2.447250e-04
5.850000e+02 2.681022e-04
5.860000e+02 2.935948e-04
5.870000e+02 3.213990e-04
5.880000e+02 3.517224e-04
5.890000e+02 3.847814e-04
5.900000e+02 4.208178e-04
5.910000e+02 4.600811e-04
5.920000e+02 5.028493e-04
5.930000e+02 5.494208e-04
5.940000e+02 6.001184e-04
5.950000e+02 6.552874e-04
5.960000e+02 7.153144e-04
5.970000e+02 7.805963e-04
5.980000e+02 8.515760e-04
5.990000e+02 9.287273e-04
6.000000e+02 1.012562e-03
6.010000e+02 1.103626e-03
6.020000e+02 1.202533e-03
6.030000e+02 1.309907e-03
6.040000e+02 1.426445e-03
6.050000e+02 1.552893e-03
6.060000e+02 1.690052e-03
6.070000e+02 1.838793e-03
6.080000e+02 2.000041e-03
6.090000e+02 2.174801e-03
6.100000e+02 2.364150e-03
6.110000e+02 2.569250e-03
6.120000e+02 2.791348e-03
6.130000e+02 3.031785e-03
6.140000e+02 3.292005e-03
6.150000e+02 3.573557e-03
6.160000e+02 3.878106e-03
6.170000e+02 4.207440e-03
6.180000e+02 4.563480e-03
6.190000e+02 4.948287e-03
6.200000e+02 5.364074e-03
6.210000e+02 5.813214e-03
6.220000e+02 6.298253e-03
6.230000e+02 6.821922e-03
6.240000e+02 7.387149e-03
6.250000e+02 7.997070e-03
6.260000e+02 8.655049e-03
6.270000e+02 9.364686e-03
6.280000e+02 1.012984e-02
6.290000e+02 1.095464e-02
6.300000e+02 1.184351e-02
6.310000e+02 1.280031e-02
6.320000e+02 1.383272e-02
6.330000e+02 1.494352e-02
6.340000e+02 1.613944e-02
6.350000e+02 1.742658e-02
6.360000e+02 1.880858e-02
6.370000e+02 2.030167e-02
6.380000e+02 2.190421e-02
6.390000e+02 2.362735e-02
6.400000e+02 2.547971e-02
6.410000e+02 2.747050e-02
6.420000e+02 2.960954e-02
6.430000e+02 3.190732e-02
6.440000e+02 3.437504e-02
6.450000e+02 3.702461e-02
6.460000e+02 3.986880e-02
6.470000e+02 4.292112e-02
6.480000e+02 4.619611e-02
6.490000e+02 4.970913e-02
6.500000e+02 5.347662e-02
6.510000e+02 5.751609e-02
6.520000e+02 6.184615e-02
6.530000e+02 6.648666e-02
6.540000e+02 7.145873e-02
6.550000e+02 7.678485e-02
6.560000e+02 8.248892e-02
6.570000e+02 8.859582e-02
6.580000e+02 9.513436e-02
6.590000e+02 1.021316e-01
6.600000e+02 1.096186e-01
6.610000e+02 1.176280e-01
6.620000e+02 1.261944e-01
6.630000e+02 1.353543e-01
6.640000e+02 1.451469e-01
6.650000e+02 1.556135e-01
6.660000e+02 1.667983e-01
6.670000e+02 1.787478e-01
6.680000e+02 1.915116e-01
6.690000e+02 2.051422e-01
6.700000e+02 2.196954e-01
6.710000e+02 2.352306e-01
6.720000e+02 2.518102e-01
6.730000e+02 2.695011e-01
6.740000e+02 2.883735e-01
6.750000e+02 3.085024e-01
6.760000e+02 3.299669e-01
6.770000e+02 3.528509e-01
6.780000e+02 3.772433e-01
6.790000e+02 4.032383e-01
6.800000e+02 4.309356e-01
6.810000e+02 4.604405e-01
6.820000e+02 4.918649e-01
6.830000e+02 5.253268e-01
6.840000e+02 5.609515e-01
6.850000e+02 5.988708e-01
6.860000e+02 6.392251e-01
6.870000e+02 6.821612e-01
6.880000e+02 7.278376e-01
6.890000e+02 7.764176e-01
6.900000e+02 8.280763e-01
6.910000e+02 8.829988e-01
6.920000e+02 9.413795e-01
6.930000e+02 1.003424e+00
6.940000e+02 1.069351e+00
6.950000e+02 1.139389e+00
6.960000e+02 1.213780e+00
6.970000e+02 1.292773e+00
6.980000e+02 1.376661e+00
6.990000e+02 1.465706e+00
7.000000e+02 1.560214e+00
7.010000e+02 1.660504e+00
7.020000e+02 1.766910e+00
7.030000e+02 1.879783e+00
7.040000e+02 1.999495e+00
7.050000e+02 2.126437e+00
7.060000e+02 2.261021e+00
7.070000e+02 2.403683e+00
7.080000e+02 2.554880e+00
7.090000e+02 2.715092e+00
7.100000e+02 2.884832e+00
7.110000e+02 3.064629e+00
7.120000e+02 3.255047e+00
7.130000e+02 3.456679e+00
7.140000e+02 3.670147e+00
7.150000e+02 3.896108e+00
7.160000e+02 4.135251e+00
7.170000e+02 4.388296e+00
7.180000e+02 4.655997e+00
7.190000e+02 4.939214e+00
7.200000e+02 5.238723e+00
7.210000e+02 5.555434e+00
7.220000e+02 5.890278e+00
7.230000e+02 6.244236e+00
7.240000e+02 6.618334e+00
7.250000e+02 7.013653e+00
7.260000e+02 7.431328e+00
7.270000e+02 7.872550e+00
7.280000e+02 8.338570e+00
7.290000e+02 8.830700e+00
7.300000e+02 9.350321e+00
7.310000e+02 9.898877e+00
7.320000e+02 1.047789e+01
7.330000e+02 1.108894e+01
7.340000e+02 1.173372e+01
7.350000e+02 1.241396e+01
7.360000e+02 1.313150e+01
7.370000e+02 1.388829e+01
7.380000e+02 1.468632e+01
7.390000e+02 1.552771e+01
7.400000e+02 1.641469e+01
7.410000e+02 1.734959e+01
7.420000e+02 1.833481e+01
7.430000e+02 1.937296e+01
7.440000e+02 2.046666e+01
7.450000e+02 2.161872e+01
7.460000e+02 2.283208e+01
7.470000e+02 2.410981e+01
7.480000e+02 2.545510e+01
7.490000e+02 2.687134e+01
7.500000e+02 2.836202e+01
7.510000e+02 2.993083e+01
7.520000e+02 3.158162e+01
7.530000e+02 3.331842e+01
7.540000e+02 3.514544e+01
7.550000e+02 3.706707e+01
7.560000e+02 3.908794e+01
7.570000e+02 4.121272e+01
7.580000e+02 4.344682e+01
7.590000e+02 4.579507e+01
7.600000e+02 4.826326e+01
7.610000e+02 5.085699e+01
7.620000e+02 5.358228e+01
7.630000e+02 5.644540e+01
7.640000e+02 5.945291e+01
7.650000e+02 6.261163e+01
7.660000e+02 6.592872e+01
7.670000e+02 6.941161e+01
7.680000e+02 7.306798e+01
7.690000e+02 7.690629e+01
7.700000e+02 8.093466e+01
7.710000e+02 8.516205e+01
7.720000e+02 8.959769e+01
7.730000e+02 9.425119e+01
7.740000e+02 9.913260e+01
7.750000e+02 1.042524e+02
7.760000e+02 1.096199e+02
7.770000e+02 1.152512e+02
7.780000e+02 1.211535e+02
7.790000e+02 1.273407e+02
7.800000e+02 1.338257e+02
7.810000e+02 1.406219e+02
7.820000e+02 1.477433e+02
7.830000e+02 1.552046e+02
7.840000e+02 1.630208e+02
7.850000e+02 1.712079e+02
7.860000e+02 1.797823e+02
7.870000e+02 1.887614e+02
7.880000e+02 1.981626e+02
7.890000e+02 2.080048e+02
7.900000e+02 2.183073e+02
7.910000e+02 2.290903e+02
7.920000e+02 2.403747e+02
7.930000e+02 2.521824e+02
7.940000e+02 2.645361e+02
7.950000e+02 2.774594e+02
7.960000e+02 2.909769e+02
7.970000e+02 3.051142e+02
7.980000e+02 3.198978e+02
7.990000e+02 3.353554e+02
8.000000e+02 3.515158e+02
8.010000e+02 3.684087e+02
8.020000e+02 3.860655e+02
8.030000e+02 4.045181e+02
8.040000e+02 4.238002e+02
8.050000e+02 4.439467e+02
8.060000e+02 4.649938e+02
8.070000e+02 4.869792e+02
8.080000e+02 5.099418e+02
8.090000e+02 5.339224e+02
8.100000e+02 5.589631e+02
8.110000e+02 5.851075e+02
8.120000e+02 6.124014e+02
8.130000e+02 6.408917e+02
8.140000e+02 6.706276e+02
8.150000e+02 7.016595e+02
8.160000e+02 7.340412e+02
8.170000e+02 7.678265e+02
8.180000e+02 8.030724e+02
8.190000e+02 8.398381e+02
8.200000e+02 8.781846e+02
8.210000e+02 9.181754e+02
8.220000e+02 9.598762e+02
8.230000e+02 1.003355e+03
8.240000e+02 1.048684e+03
8.250000e+02 1.095934e+03
8.260000e+02 1.145183e+03
8.270000e+02 1.196510e+03
8.280000e+02 1.249995e+03
8.290000e+02 1.305725e+03
8.300000e+02 1.363785e+03
8.310000e+02 1.424268e+03
8.320000e+02 1.487268e+03
8.330000e+02 1.552882e+03
8.340000e+02 1.621211e+03
8.350000e+02 1.692309e+03
8.360000e+02 1.766435e+03
8.370000e+02 1.843557e+03
8.380000e+02 1.923832e+03
8.390000e+02 2.007386e+03
8.400000e+02 2.094341e+03
8.410000e+02 2.184827e+03
8.420000e+02 2.278962e+03
8.430000e+02 2.376932e+03
8.440000e+02 2.478831e+03
8.450000e+02 2.584824e+03
8.460000e+02 2.695064e+03
8.470000e+02 2.809709e+03
8.480000e+02 2.928924e+03
8.490000e+02 3.052876e+03
8.500000e+02 3.181742e+03
8.510000e+02 3.315703e+03
8.520000e+02 3.454945e+03
8.530000e+02 3.599664e+03
8.540000e+02 3.750064e+03
8.550000e+02 3.906343e+03
8.560000e+02 4.068718e+03
8.570000e+02 4.237411e+03
8.580000e+02 4.412651e+03
8.590000e+02 4.594674e+03
8.600000e+02 4.783724e+03
8.610000e+02 4.980053e+03
8.620000e+02 5.183920e+03
8.630000e+02 5.395595e+03
8.640000e+02 5.615358e+03
8.650000e+02 5.843492e+03
8.660000e+02 6.080297e+03
8.670000e+02 6.326076e+03
8.680000e+02 6.581146e+03
8.690000e+02 6.845832e+03
8.700000e+02 7.120466e+03
8.710000e+02 7.405413e+03
8.720000e+02 7.701012e+03
8.730000e+02 8.007642e+03
8.740000e+02 8.325683e+03
8.750000e+02 8.655527e+03
8.760000e+02 8.997585e+03
8.770000e+02 9.352269e+03
8.780000e+02 9.720024e+03
8.790000e+02 1.010129e+04
8.800000e+02 1.049652e+04
8.810000e+02 1.090619e+04
8.820000e+02 1.133080e+04
8.830000e+02 1.177085e+04
8.840000e+02 1.222685e+04
8.850000e+02 1.269935e+04
8.860000e+02 1.318890e+04
8.870000e+02 1.369607e+04
8.880000e+02 1.422144e+04
8.890000e+02 1.476562e+04
8.900000e+02 1.532923e+04
8.910000e+02 1.591292e+04
8.920000e+02 1.651060e+04
8.930000e+02 1.714319e+04
8.940000e+02 1.779117e+04
8.950000e+02 1.846198e+04
8.960000e+02 1.915639e+04
8.970000e+02 1.987517e+04
8.980000e+02 2.061909e+04
8.990000e+02 2.138897e+04
9.000000e+02 2.218567e+04
9.010000e+02 2.301002e+04
9.020000e+02 2.386294e+04
9.030000e+02 2.474532e+04
9.040000e+02 2.565809e+04
9.050000e+02 2.660228e+04
9.060000e+02 2.757884e+04
9.070000e+02 2.858871e+04
9.080000e+02 2.963321e+04
9.090000e+02 3.071317e+04
9.100000e+02 3.182979e+04
9.110000e+02 3.298427e+04
9.120000e+02 3.417791e+04
9.130000e+02 3.531091e+04
9.140000e+02 3.687619e+04
9.150000e+02 1.139806e+05
9.160000e+02 2.497350e+05
9.170000e+02 2.601952e+05
9.180000e+02 2.241098e+05
9.190000e+02 3.736238e+05
9.200000e+02 4.233708e+05
9.210000e+02 4.670857e+04
9.220000e+02 4.586896e+05
9.230000e+02 2.841847e+05
9.240000e+02 4.288063e+05
9.250000e+02 4.910589e+05
9.260000e+02 3.944992e+05
9.270000e+02 4.931501e+05
9.280000e+02 5.585398e+05
9.290000e+02 5.129256e+05
9.300000e+02 5.745839e+05
9.310000e+02 4.504661e+05
9.320000e+02 6.246674e+05
9.330000e+02 6.376021e+05
9.340000e+02 6.531734e+05
9.350000e+02 1.434251e+05
9.360000e+02 6.173391e+05
9.370000e+02 1.209125e+05
9.380000e+02 3.814430e+05
9.390000e+02 6.906538e+05
9.400000e+02 7.853370e+05
9.410000e+02 3.387791e+05
9.420000e+02 8.309244e+05
9.430000e+02 7.964846e+05
9.440000e+02 6.771185e+05
9.450000e+02 9.042820e+05
9.460000e+02 9.222565e+05
9.470000e+02 7.720271e+05
9.480000e+02 8.992604e+05
9.490000e+02 9.765407e+05
9.500000e+02 2.036064e+05
9.510000e+02 1.012633e+06
9.520000e+02 1.083067e+06
9.530000e+02 8.756902e+05
9.540000e+02 8.647662e+05
9.550000e+02 1.151620e+06
9.560000e+02 1.144742e+06
9.570000e+02 7.297032e+05
9.580000e+02 8.208266e+05
9.590000e+02 1.330127e+06
9.600000e+02 2.506029e+05
9.610000e+02 1.385722e+06
9.620000e+02 1.391317e+06
9.630000e+02 1.442267e+06
9.640000e+02 2.004499e+05
9.650000e+02 1.236895e+06
9.660000e+02 1.545145e+06
9.670000e+02 1.478680e+06
9.680000e+02 1.345191e+06
9.690000e+02 1.683028e+06
9.700000e+02 1.716195e+06
9.710000e+02 1.579570e+06
9.720000e+02 1.593266e+06
9.730000e+02 1.652338e+06
9.740000e+02 1.907891e+06
9.750000e+02 1.943703e+06
9.760000e+02 2.076835e+06
9.770000e+02 2.123241e+06
9.780000e+02 2.129174e+06
9.790000e+02 2.259319e+06
9.800000e+02 2.318332e+06
9.810000e+02 2.331799e+06
9.820000e+02 2.243946e+06
9.830000e+02 2.500364e+06
9.840000e+02 1.143242e+06
9.850000e+02 2.549901e+06
9.860000e+02 2.596129e+06
9.870000e+02 2.768280e+06
9.880000e+02 2.240959e+06
9.890000e+02 2.321289e+06
9.900000e+02 5.097578e+05
9.910000e+02 2.562308e+06
9.920000e+02 1.843014e+06
9.930000e+02 3.111430e+06
9.940000e+02 5.546188e+05
9.950000e+02 1.061847e+06
9.960000e+02 2.667390e+06
9.970000e+02 9.085730e+05
9.980000e+02 3.610242e+06
9.990000e+02 3.363198e+06
1.000000e+03 3.838567e+06
1.001000e+03 3.940179e+06
1.002000e+03 4.030606e+06
1.003000e+03 3.658135e+06
1.004000e+03 3.508947e+06
1.005000e+03 3.865146e+06
1.006000e+03 4.442996e+06
1.007000e+03 4.558778e+06
1.008000e+03 4.648554e+06
1.009000e+03 4.446859e+06
1.010000e+03 4.879562e+06
1.011000e+03 5.013490e+06
1.012000e+03 5.113871e+06
1.013000e+03 5.226942e+06
1.014000e+03 3.036631e+06
1.015000e+03 4.119363e+06
1.016000e+03 5.158638e+06
1.017000e+03 3.396887e+06
1.018000e+03 5.540866e+06
1.019000e+03 4.648785e+06
1.020000e+03 6.193594e+06
1.021000e+03 3.621397e+06
1.022000e+03 5.433526e+06
1.023000e+03 4.915993e+06
1.024000e+03 6.377376e+06
1.025000e+03 3.397226e+06
1.026000e+03 2.638503e+06
1.027000e+03 6.428071e+06
1.028000e+03 1.797710e+06
1.029000e+03 4.599510e+06
1.030000e+03 7.605152e+06
1.031000e+03 7.514422e+06
1.032000e+03 8.149429e+06
1.033000e+03 3.185563e+06
1.034000e+03 8.437990e+06
1.035000e+03 1.904807e+06
1.036000e+03 5.539754e+06
1.037000e+03 5.829782e+06
1.038000e+03 9.474887e+06
1.039000e+03 9.602018e+06
1.040000e+03 9.869557e+06
1.041000e+03 1.011037e+07
1.042000e+03 1.028868e+07
1.043000e+03 1.019433e+07
1.044000e+03 1.087705e+07
1.045000e+03 1.107395e+07
1.046000e+03 1.137597e+07
1.047000e+03 1.128399e+07
1.048000e+03 9.742048e+06
1.049000e+03 1.192295e+07
1.050000e+03 1.215639e+07
1.051000e+03 1.210517e+07
1.052000e+03 1.298380e+07
1.053000e+03 1.322687e+07
1.054000e+03 7.984454e+06
1.055000e+03 1.392790e+07
1.056000e+03 1.425240e+07
1.057000e+03 1.429626e+07
1.058000e+03 1.450822e+07
1.059000e+03 1.319756e+07
1.060000e+03 1.294156e+07
1.061000e+03 1.565059e+07
1.062000e+03 1.546066e+07
1.063000e+03 7.620294e+06
1.064000e+03 3.788918e+06
1.065000e+03 1.105681e+07
1.066000e+03 1.631939e+07
1.067000e+03 1.514024e+07
1.068000e+03 1.861497e+07
1.069000e+03 1.332789e+07
1.070000e+03 1.907026e+07
1.071000e+03 1.985644e+07
1.072000e+03 2.026697e+07
1.073000e+03 1.424583e+07
1.074000e+03 2.045307e+07
1.075000e+03 2.059013e+07
1.076000e+03 2.208003e+07
1.077000e+03 2.055714e+07
1.078000e+03 2.208760e+07
1.079000e+03 2.300784e+07
1.080000e+03 2.366637e+07
1.081000e+03 2.430871e+07
1.082000e+03 2.482218e+07
1.083000e+03 2.521299e+07
1.084000e+03 2.615774e+07
1.085000e+03 2.266890e+07
1.086000e+03 2.726164e+07
1.087000e+03 2.428320e+07
1.088000e+03 2.836273e+07
1.089000e+03 2.901346e+07
1.090000e+03 2.802306e+07
1.091000e+03 2.838266e+07
1.092000e+03 3.083242e+07
1.093000e+03 3.144869e+07
1.094000e+03 3.189251e+07
1.095000e+03 3.277779e+07
1.096000e+03 3.327649e+07
1.097000e+03 3.373481e+07
1.098000e+03 3.470447e+07
1.099000e+03 3.497047e+07
1.100000e+03 2.981057e+07
1.101000e+03 3.093777e+07
1.102000e+03 6.099503e+07
1.103000e+03 2.213035e+08
1.104000e+03 8.452106e+07
1.105000e+03 3.746947e+07
1.106000e+03 2.906515e+08
1.107000e+03 5.315734e+07
1.108000e+03 3.876416e+08
1.109000e+03 1.193211e+08
1.110000e+03 1.343870e+08
1.111000e+03 8.026102e+07
1.112000e+03 3.517477e+08
1.113000e+03 4.892123e+08
1.114000e+03 3.166066e+07
1.115000e+03 2.094515e+08
1.116000e+03 1.744009e+08
1.117000e+03 3.193277e+07
1.118000e+03 1.563820e+08
1.119000e+03 4.305432e+08
1.120000e+03 1.943070e+08
1.121000e+03 4.534516e+08
1.122000e+03 1.361818e+07
1.123000e+03 8.658310e+07
1.124000e+03 5.272732e+08
1.125000e+03 3.228425e+08
1.126000e+03 5.983616e+08
1.127000e+03 5.663975e+08
1.128000e+03 2.061867e+08
1.129000e+03 4.728881e+08
1.130000e+03 5.419741e+08
1.131000e+03 6.251348e+08
1.132000e+03 4.213962e+07
1.133000e+03 2.200517e+08
1.134000e+03 4.905372e+08
1.135000e+03 2.865872e+07
1.136000e+03 3.702968e+08
1.137000e+03 6.627346e+08
1.138000e+03 5.092987e+08
1.139000e+03 6.783391e+08
1.140000e+03 2.419034e+07
1.141000e+03 6.850234e+08
1.142000e+03 7.310063e+08
1.143000e+03 6.831806e+08
1.144000e+03 7.648853e+08
1.145000e+03 1.668627e+08
1.146000e+03 7.941132e+08
1.147000e+03 7.648243e+08
1.148000e+03 3.125906e+08
1.149000e+03 7.813284e+08
1.150000e+03 6.554845e+08
1.151000e+03 8.444425e+08
1.152000e+03 8.257347e+08
1.153000e+03 3.503639e+08
1.154000e+03 2.557997e+08
1.155000e+03 7.707626e+08
1.156000e+03 3.734790e+08
1.157000e+03 9.179932e+08
1.158000e+03 4.126382e+07
1.159000e+03 8.039252e+08
1.160000e+03 6.869450e+08
1.161000e+03 9.479486e+08
1.162000e+03 2.329939e+08
1.163000e+03 6.309023e+08
1.164000e+03 4.452173e+07
1.165000e+03 1.005801e+09
1.166000e+03 9.496072e+08
1.167000e+03 9.108735e+08
1.168000e+03 1.077004e+09
1.169000e+03 1.072673e+09
1.170000e+03 1.037148e+09
1.171000e+03 1.054392e+09
1.172000e+03 7.995282e+08
1.173000e+03 1.153207e+09
1.174000e+03 4.254070e+08
1.175000e+03 5.204474e+07
1.176000e+03 4.732038e+07
1.177000e+03 1.237494e+09
1.178000e+03 1.217815e+09
1.179000e+03 1.247809e+09
1.180000e+03 8.445124e+08
1.181000e+03 1.304606e+09
1.182000e+03 1.278573e+09
1.183000e+03 1.222088e+09
1.184000e+03 1.192812e+09
1.185000e+03 1.301441e+09
1.186000e+03 8.686203e+08
1.187000e+03 1.321017e+09
1.188000e+03 1.046732e+09
1.189000e+03 6.366042e+07
1.190000e+03 3.654514e+08
1.191000e+03 1.313045e+09
1.192000e+03 1.424511e+09
1.193000e+03 6.037792e+07
1.194000e+03 7.217664e+07
1.195000e+03 1.086685e+09
1.196000e+03 1.422042e+09
1.197000e+03 2.111920e+09
1.198000e+03 1.425280e+09
1.199000e+03 2.075951e+09
1.200000e+03 1.379759e+09
1.201000e+03 1.953341e+09
1.202000e+03 1.586615e+09
1.203000e+03 2.255105e+09
1.204000e+03 1.265236e+09
1.205000e+03 1.883972e+09
1.206000e+03 1.775728e+09
1.207000e+03 3.421452e+08
1.208000e+03 1.382641e+09
1.209000e+03 1.096358e+09
1.210000e+03 9.512070e+07
1.211000e+03 6.649885e+08
1.212000e+03 4.536720e+08
1.213000e+03 2.951029e+08
1.214000e+03 1.759281e+08
1.215000e+03 1.089536e+08
1.216000e+03 9.832470e+07
1.217000e+03 1.546208e+08
1.218000e+03 2.700269e+08
1.219000e+03 4.499527e+08
1.220000e+03 6.361184e+08
1.221000e+03 9.768150e+08
1.222000e+03 1.266583e+09
1.223000e+03 1.627833e+09
1.224000e+03 2.036231e+09
1.225000e+03 1.489715e+09
1.226000e+03 2.789978e+09
1.227000e+03 3.101306e+09
1.228000e+03 2.544773e+09
1.229000e+03 3.466120e+09
1.230000e+03 3.381124e+09
1.231000e+03 2.905511e+09
1.232000e+03 4.912206e+09
1.233000e+03 5.277369e+09
1.234000e+03 3.627373e+09
1.235000e+03 5.690969e+09
1.236000e+03 3.524301e+09
1.237000e+03 6.269822e+09
1.238000e+03 5.876131e+09
1.239000e+03 6.038006e+09
1.240000e+03 6.095287e+09
1.241000e+03 7.394098e+09
1.242000e+03 5.633652e+09
1.243000e+03 8.765742e+09
1.244000e+03 4.194262e+09
1.245000e+03 5.724003e+09
1.246000e+03 1.129340e+10
1.247000e+03 1.120172e+10
1.248000e+03 4.302147e+09
1.249000e+03 5.700688e+09
1.250000e+03 1.328458e+10
1.251000e+03 1.552853e+10
1.252000e+03 1.383843e+10
1.253000e+03 1.566797e+10
1.254000e+03 1.377064e+10
1.255000e+03 1.674159e+10
1.256000e+03 1.443720e+10
1.257000e+03 1.662669e+10
1.258000e+03 1.129839e+10
1.259000e+03 1.490220e+10
1.260000e+03 1.606505e+10
1.261000e+03 2.186179e+08
1.262000e+03 2.573618e+09
1.263000e+03 1.808869e+10
1.264000e+03 1.276250e+10
1.265000e+03 2.282086e+08
1.266000e+03 1.769513e+10
1.267000e+03 1.460512e+10
