# wavelength_A flux
5.000000e+02 1.967687e-10
5.010000e+02 2.253936e-10
5.020000e+02 2.580383e-10
5.030000e+02 2.952464e-10
5.040000e+02 3.376330e-10
5.050000e+02 3.954778e-10
5.060000e+02 4.516939e-10
5.070000e+02 5.156212e-10
5.080000e+02 5.882788e-10
5.090000e+02 6.708330e-10
5.100000e+02 7.645428e-10
5.110000e+02 8.708849e-10
5.120000e+02 9.914946e-10
5.130000e+02 1.128217e-09
5.140000e+02 1.283125e-09
5.150000e+02 1.458532e-09
5.160000e+02 1.657101e-09
5.170000e+02 1.881650e-09
5.180000e+02 2.135703e-09
5.190000e+02 2.422741e-09
5.200000e+02 2.746976e-09
5.210000e+02 3.113044e-09
5.220000e+02 3.525767e-09
5.230000e+02 3.992090e-09
5.240000e+02 4.517397e-09
5.250000e+02 5.109380e-09
5.260000e+02 5.776090e-09
5.270000e+02 6.526649e-09
5.280000e+02 7.371201e-09
5.290000e+02 8.319135e-09
5.300000e+02 9.388888e-09
5.310000e+02 1.058875e-08
5.320000e+02 1.193638e-08
5.330000e+02 1.344922e-08
5.340000e+02 1.514677e-08
5.350000e+02 1.705071e-08
5.360000e+02 1.918506e-08
5.370000e+02 2.130341e-08
5.380000e+02 2.425570e-08
5.390000e+02 2.725532e-08
5.400000e+02 3.061234e-08
5.410000e+02 3.436471e-08
5.420000e+02 3.856499e-08
5.430000e+02 4.325727e-08
5.440000e+02 4.849884e-08
5.450000e+02 5.435187e-08
5.460000e+02 6.087463e-08
5.470000e+02 6.817378e-08
5.480000e+02 7.630241e-08
5.490000e+02 8.536428e-08
5.500000e+02 9.546162e-08
5.510000e+02 1.067085e-07
5.520000e+02 1.192304e-07
5.530000e+02 1.331662e-07
5.540000e+02 1.486692e-07
5.550000e+02 1.659087e-07
5.560000e+02 1.850714e-07
5.570000e+02 2.063632e-07
5.580000e+02 2.300113e-07
5.590000e+02 2.562660e-07
5.600000e+02 2.854030e-07
5.610000e+02 3.177261e-07
5.620000e+02 3.535696e-07
5.630000e+02 3.933016e-07
5.640000e+02 4.373267e-07
5.650000e+02 4.860890e-07
5.660000e+02 5.400807e-07
5.670000e+02 5.998365e-07
5.680000e+02 6.659484e-07
5.690000e+02 7.390642e-07
5.700000e+02 8.198947e-07
5.710000e+02 9.092242e-07
5.720000e+02 1.007906e-06
5.730000e+02 1.116880e-06
5.740000e+02 1.237176e-06
5.750000e+02 1.369944e-06
5.760000e+02 1.516180e-06
5.770000e+02 1.677847e-06
5.780000e+02 1.855835e-06
5.790000e+02 2.051960e-06
5.800000e+02 2.267993e-06
5.810000e+02 2.505869e-06
5.820000e+02 2.767702e-06
5.830000e+02 3.055779e-06
5.840000e+02 3.371715e-06
5.850000e+02 3.720954e-06
5.860000e+02 4.104246e-06
5.870000e+02 4.525185e-06
5.880000e+02 4.987548e-06
5.890000e+02 5.495160e-06
5.900000e+02 6.052565e-06
5.910000e+02 6.664118e-06
5.920000e+02 7.334999e-06
5.930000e+02 8.070685e-06
5.940000e+02 8.877181e-06
5.950000e+02 9.760730e-06
5.960000e+02 1.072928e-05
5.970000e+02 1.178970e-05
5.980000e+02 1.295068e-05
5.990000e+02 1.422132e-05
6.000000e+02 1.561157e-05
6.010000e+02 1.712998e-05
6.020000e+02 1.879483e-05
6.030000e+02 2.061223e-05
6.040000e+02 2.259822e-05
6.050000e+02 2.476767e-05
6.060000e+02 2.713678e-05
6.070000e+02 2.972327e-05
6.080000e+02 3.254607e-05
6.090000e+02 3.562587e-05
6.100000e+02 3.898500e-05
6.110000e+02 4.264785e-05
6.120000e+02 4.664050e-05
6.130000e+02 5.099140e-05
6.140000e+02 5.573127e-05
6.150000e+02 6.089336e-05
6.160000e+02 6.651362e-05
6.170000e+02 7.263090e-05
6.180000e+02 7.928725e-05
6.190000e+02 8.652802e-05
6.200000e+02 9.440227e-05
6.210000e+02 1.029629e-04
6.220000e+02 1.122672e-04
6.230000e+02 1.223767e-04
6.240000e+02 1.333580e-04
6.250000e+02 1.452831e-04
6.260000e+02 1.582292e-04
6.270000e+02 1.722800e-04
6.280000e+02 1.875254e-04
6.290000e+02 2.040625e-04
6.300000e+02 2.219955e-04
6.310000e+02 2.414296e-04
6.320000e+02 2.625087e-04
6.330000e+02 2.853397e-04
6.340000e+02 3.100723e-04
6.350000e+02 3.368557e-04
6.360000e+02 3.654647e-04
6.370000e+02 3.972393e-04
6.380000e+02 4.312015e-04
6.390000e+02 4.679416e-04
6.400000e+02 5.076765e-04
6.410000e+02 5.506388e-04
6.420000e+02 5.970790e-04
6.430000e+02 6.472653e-04
6.440000e+02 7.014859e-04
6.450000e+02 7.600499e-04
6.460000e+02 8.232899e-04
6.470000e+02 8.915605e-04
6.480000e+02 9.652451e-04
6.490000e+02 1.044751e-03
6.500000e+02 1.130517e-03
6.510000e+02 1.223015e-03
6.520000e+02 1.322746e-03
6.530000e+02 1.430251e-03
6.540000e+02 1.546106e-03
6.550000e+02 1.670929e-03
6.560000e+02 1.805383e-03
6.570000e+02 1.950134e-03
6.580000e+02 2.106060e-03
6.590000e+02 2.273851e-03
6.600000e+02 2.454405e-03
6.610000e+02 2.648671e-03
6.620000e+02 2.857615e-03
6.630000e+02 3.082302e-03
6.640000e+02 3.323862e-03
6.650000e+02 3.583490e-03
6.660000e+02 3.862505e-03
6.670000e+02 4.162253e-03
6.680000e+02 4.484211e-03
6.690000e+02 4.829945e-03
6.700000e+02 5.201127e-03
6.710000e+02 5.599539e-03
6.720000e+02 6.027071e-03
6.730000e+02 6.485780e-03
6.740000e+02 6.977797e-03
6.750000e+02 7.505432e-03
6.760000e+02 8.071140e-03
6.770000e+02 8.677534e-03
6.780000e+02 9.327394e-03
6.790000e+02 1.002369e-02
6.800000e+02 1.076956e-02
6.810000e+02 1.156838e-02
6.820000e+02 1.242372e-02
6.830000e+02 1.333938e-02
6.840000e+02 1.431939e-02
6.850000e+02 1.536801e-02
6.860000e+02 1.648997e-02
6.870000e+02 1.768986e-02
6.880000e+02 1.897323e-02
6.890000e+02 2.034523e-02
6.900000e+02 2.181181e-02
6.910000e+02 2.337917e-02
6.920000e+02 2.505388e-02
6.930000e+02 2.684292e-02
6.940000e+02 2.875370e-02
6.950000e+02 3.079411e-02
6.960000e+02 3.297248e-02
6.970000e+02 3.529720e-02
6.980000e+02 3.777909e-02
6.990000e+02 4.042668e-02
7.000000e+02 4.325103e-02
7.010000e+02 4.626333e-02
7.020000e+02 4.947545e-02
7.030000e+02 5.289996e-02
7.040000e+02 5.655021e-02
7.050000e+02 6.044031e-02
7.060000e+02 6.458516e-02
7.070000e+02 6.900076e-02
7.080000e+02 7.370370e-02
7.090000e+02 7.871142e-02
7.100000e+02 8.404380e-02
7.110000e+02 8.971961e-02
7.120000e+02 9.576023e-02
7.130000e+02 1.021879e-01
7.140000e+02 1.090261e-01
7.150000e+02 1.162998e-01
7.160000e+02 1.240352e-01
7.170000e+02 1.322596e-01
7.180000e+02 1.410021e-01
7.190000e+02 1.502975e-01
7.200000e+02 1.601738e-01
7.210000e+02 1.706674e-01
7.220000e+02 1.818148e-01
7.230000e+02 1.936547e-01
7.240000e+02 2.062277e-01
7.250000e+02 2.195769e-01
7.260000e+02 2.337474e-01
7.270000e+02 2.487878e-01
7.280000e+02 2.647480e-01
7.290000e+02 2.816814e-01
7.300000e+02 2.996443e-01
7.310000e+02 3.186959e-01
7.320000e+02 3.388987e-01
7.330000e+02 3.603184e-01
7.340000e+02 3.830246e-01
7.350000e+02 4.070903e-01
7.360000e+02 4.325922e-01
7.370000e+02 4.596125e-01
7.380000e+02 4.882356e-01
7.390000e+02 5.185519e-01
7.400000e+02 5.506541e-01
7.410000e+02 5.846481e-01
7.420000e+02 6.206301e-01
7.430000e+02 6.587204e-01
7.440000e+02 6.990275e-01
7.450000e+02 7.416762e-01
7.460000e+02 7.867953e-01
7.470000e+02 8.345198e-01
7.480000e+02 8.849920e-01
7.490000e+02 9.383615e-01
7.500000e+02 9.947858e-01
7.510000e+02 1.054430e+00
7.520000e+02 1.117468e+00
7.530000e+02 1.184081e+00
7.540000e+02 1.254462e+00
7.550000e+02 1.328812e+00
7.560000e+02 1.407341e+00
7.570000e+02 1.490237e+00
7.580000e+02 1.577841e+00
7.590000e+02 1.670282e+00
7.600000e+02 1.767872e+00
7.610000e+02 1.870865e+00
7.620000e+02 1.979547e+00
7.630000e+02 2.094213e+00
7.640000e+02 2.215177e+00
7.650000e+02 2.342763e+00
7.660000e+02 2.477317e+00
7.670000e+02 2.619195e+00
7.680000e+02 2.768759e+00
7.690000e+02 2.926448e+00
7.700000e+02 3.092632e+00
7.710000e+02 3.267757e+00
7.720000e+02 3.452279e+00
7.730000e+02 3.646672e+00
7.740000e+02 3.851434e+00
7.750000e+02 4.067087e+00
7.760000e+02 4.293693e+00
7.770000e+02 4.533278e+00
7.780000e+02 4.784988e+00
7.790000e+02 5.049932e+00
7.800000e+02 5.328766e+00
7.810000e+02 5.622180e+00
7.820000e+02 5.930888e+00
7.830000e+02 6.255641e+00
7.840000e+02 6.597232e+00
7.850000e+02 6.956477e+00
7.860000e+02 7.334227e+00
7.870000e+02 7.731428e+00
7.880000e+02 8.148955e+00
7.890000e+02 8.587818e+00
7.900000e+02 9.049045e+00
7.910000e+02 9.533708e+00
7.920000e+02 1.004293e+01
7.930000e+02 1.057788e+01
7.940000e+02 1.113977e+01
7.950000e+02 1.172991e+01
7.960000e+02 1.234960e+01
7.970000e+02 1.300026e+01
7.980000e+02 1.368333e+01
7.990000e+02 1.440034e+01
8.000000e+02 1.515287e+01
8.010000e+02 1.594254e+01
8.020000e+02 1.677118e+01
8.030000e+02 1.764050e+01
8.040000e+02 1.855240e+01
8.050000e+02 1.950886e+01
8.060000e+02 2.051192e+01
8.070000e+02 2.156370e+01
8.080000e+02 2.266645e+01
8.090000e+02 2.382247e+01
8.100000e+02 2.503419e+01
8.110000e+02 2.630414e+01
8.120000e+02 2.763493e+01
8.130000e+02 2.902931e+01
8.140000e+02 3.049014e+01
8.150000e+02 3.202035e+01
8.160000e+02 3.362316e+01
8.170000e+02 3.530165e+01
8.180000e+02 3.705930e+01
8.190000e+02 3.889954e+01
8.200000e+02 4.082603e+01
8.210000e+02 4.284259e+01
8.220000e+02 4.495315e+01
8.230000e+02 4.716182e+01
8.240000e+02 4.947292e+01
8.250000e+02 5.189087e+01
8.260000e+02 5.442032e+01
8.270000e+02 5.706609e+01
8.280000e+02 5.983321e+01
8.290000e+02 6.272689e+01
8.300000e+02 6.575256e+01
8.310000e+02 6.891589e+01
8.320000e+02 7.222275e+01
8.330000e+02 7.567923e+01
8.340000e+02 7.929169e+01
8.350000e+02 8.306004e+01
8.360000e+02 8.701081e+01
8.370000e+02 9.113224e+01
8.380000e+02 9.543620e+01
8.390000e+02 9.993394e+01
8.400000e+02 1.046303e+02
8.410000e+02 1.095347e+02
8.420000e+02 1.146538e+02
8.430000e+02 1.200023e+02
8.440000e+02 1.255838e+02
8.450000e+02 1.314098e+02
8.460000e+02 1.374904e+02
8.470000e+02 1.438361e+02
8.480000e+02 1.504576e+02
8.490000e+02 1.573662e+02
8.500000e+02 1.645735e+02
8.510000e+02 1.720917e+02
8.520000e+02 1.799329e+02
8.530000e+02 1.881110e+02
8.540000e+02 1.966397e+02
8.550000e+02 2.055314e+02
8.560000e+02 2.148016e+02
8.570000e+02 2.244654e+02
8.580000e+02 2.345381e+02
8.590000e+02 2.450364e+02
8.600000e+02 2.559768e+02
8.610000e+02 2.673768e+02
8.620000e+02 2.792544e+02
8.630000e+02 2.916280e+02
8.640000e+02 3.045180e+02
8.650000e+02 3.179427e+02
8.660000e+02 3.319258e+02
8.670000e+02 3.464863e+02
8.680000e+02 3.616473e+02
8.690000e+02 3.774322e+02
8.700000e+02 3.938648e+02
8.710000e+02 4.109699e+02
8.720000e+02 4.287734e+02
8.730000e+02 4.473018e+02
8.740000e+02 4.665827e+02
8.750000e+02 4.866447e+02
8.760000e+02 5.075172e+02
8.770000e+02 5.292296e+02
8.780000e+02 5.518177e+02
8.790000e+02 5.753099e+02
8.800000e+02 5.997417e+02
8.810000e+02 6.251481e+02
8.820000e+02 6.515654e+02
8.830000e+02 6.790310e+02
8.840000e+02 7.075837e+02
8.850000e+02 7.372641e+02
8.860000e+02 7.681133e+02
8.870000e+02 8.001746e+02
8.880000e+02 8.334921e+02
8.890000e+02 8.681119e+02
8.900000e+02 9.040814e+02
8.910000e+02 9.414496e+02
8.920000e+02 9.791288e+02
8.930000e+02 1.020587e+03
8.940000e+02 1.062463e+03
8.950000e+02 1.105950e+03
8.960000e+02 1.151108e+03
8.970000e+02 1.197996e+03
8.980000e+02 1.246675e+03
8.990000e+02 1.297209e+03
9.000000e+02 1.349664e+03
9.010000e+02 1.404109e+03
9.020000e+02 1.460612e+03
9.030000e+02 1.519248e+03
9.040000e+02 1.580078e+03
9.050000e+02 1.643214e+03
9.060000e+02 1.708709e+03
9.070000e+02 1.776618e+03
9.080000e+02 1.847115e+03
9.090000e+02 1.920203e+03
9.100000e+02 1.996002e+03
9.110000e+02 2.074611e+03
9.120000e+02 2.156160e+03
9.130000e+02 2.213385e+03
9.140000e+02 2.369801e+03
9.150000e+02 1.261275e+04
9.160000e+02 2.814648e+04
9.170000e+02 2.916150e+04
9.180000e+02 2.955268e+04
9.190000e+02 3.150217e+04
9.200000e+02 3.260330e+04
9.210000e+02 2.975962e+03
9.220000e+02 3.472521e+04
9.230000e+02 3.493263e+04
9.240000e+02 3.473818e+04
9.250000e+02 3.771943e+04
9.260000e+02 3.895659e+04
9.270000e+02 4.059445e+04
9.280000e+02 4.195205e+04
9.290000e+02 4.314170e+04
9.300000e+02 4.417077e+04
9.310000e+02 4.543552e+04
9.320000e+02 4.750513e+04
9.330000e+02 4.890496e+04
9.340000e+02 5.050741e+04
9.350000e+02 1.299098e+04
9.360000e+02 5.143311e+04
9.370000e+02 1.010821e+04
9.380000e+02 2.788871e+04
9.390000e+02 5.866891e+04
9.400000e+02 6.069272e+04
9.410000e+02 2.437805e+04
9.420000e+02 6.450933e+04
9.430000e+02 6.640707e+04
9.440000e+02 5.068865e+04
9.450000e+02 7.059242e+04
9.460000e+02 7.272941e+04
9.470000e+02 5.728812e+04
9.480000e+02 6.085380e+04
9.490000e+02 7.892244e+04
9.500000e+02 1.523639e+04
9.510000e+02 8.246986e+04
9.520000e+02 8.702201e+04
9.530000e+02 8.825688e+04
9.540000e+02 7.854848e+04
9.550000e+02 9.513815e+04
9.560000e+02 7.125827e+04
9.570000e+02 6.797991e+04
9.580000e+02 1.011771e+05
9.590000e+02 1.074990e+05
9.600000e+02 2.224854e+04
9.610000e+02 1.137684e+05
9.620000e+02 1.172988e+05
9.630000e+02 1.208044e+05
9.640000e+02 1.502493e+04
9.650000e+02 1.180892e+05
9.660000e+02 1.317422e+05
9.670000e+02 1.344723e+05
9.680000e+02 1.380243e+05
9.690000e+02 1.428497e+05
9.700000e+02 1.474396e+05
9.710000e+02 1.501966e+05
9.720000e+02 1.444498e+05
9.730000e+02 1.454724e+05
9.740000e+02 1.635154e+05
9.750000e+02 1.699596e+05
9.760000e+02 1.753610e+05
9.770000e+02 1.805607e+05
9.780000e+02 1.853228e+05
9.790000e+02 1.912176e+05
9.800000e+02 1.966289e+05
9.810000e+02 2.022069e+05
9.820000e+02 2.071172e+05
9.830000e+02 2.138585e+05
9.840000e+02 1.003581e+05
9.850000e+02 2.259741e+05
9.860000e+02 2.322326e+05
9.870000e+02 2.390284e+05
9.880000e+02 2.426375e+05
9.890000e+02 2.133245e+05
9.900000e+02 4.225393e+04
9.910000e+02 2.637093e+05
9.920000e+02 2.373503e+05
9.930000e+02 2.670495e+05
9.940000e+02 4.996711e+04
9.950000e+02 9.552346e+04
9.960000e+02 2.067468e+05
9.970000e+02 7.069278e+04
9.980000e+02 3.222242e+05
9.990000e+02 3.251605e+05
1.000000e+03 3.408847e+05
1.001000e+03 3.502500e+05
1.002000e+03 3.596641e+05
1.003000e+03 3.539035e+05
1.004000e+03 3.763813e+05
1.005000e+03 3.658857e+05
1.006000e+03 4.002146e+05
1.007000e+03 4.100398e+05
1.008000e+03 4.212859e+05
1.009000e+03 4.271316e+05
1.010000e+03 4.447164e+05
1.011000e+03 4.565422e+05
1.012000e+03 4.685787e+05
1.013000e+03 4.809371e+05
1.014000e+03 4.713143e+05
1.015000e+03 4.956719e+05
1.016000e+03 5.178047e+05
1.017000e+03 5.123437e+05
1.018000e+03 5.454283e+05
1.019000e+03 5.534318e+05
1.020000e+03 5.740905e+05
1.021000e+03 3.207378e+05
1.022000e+03 5.456371e+05
1.023000e+03 5.993119e+05
1.024000e+03 5.620036e+05
1.025000e+03 4.595193e+05
1.026000e+03 2.351642e+05
1.027000e+03 5.941673e+05
1.028000e+03 1.868322e+05
1.029000e+03 6.885739e+05
1.030000e+03 7.294379e+05
1.031000e+03 7.587208e+05
1.032000e+03 7.772419e+05
1.033000e+03 3.613487e+05
1.034000e+03 8.230137e+05
1.035000e+03 1.922635e+05
1.036000e+03 7.801049e+05
1.037000e+03 1.869672e+05
1.038000e+03 9.121319e+05
1.039000e+03 9.286448e+05
1.040000e+03 9.590089e+05
1.041000e+03 9.721182e+05
1.042000e+03 1.003455e+06
1.043000e+03 9.963042e+05
1.044000e+03 1.058494e+06
1.045000e+03 1.084562e+06
1.046000e+03 1.113589e+06
1.047000e+03 1.140077e+06
1.048000e+03 1.158181e+06
1.049000e+03 1.159725e+06
1.050000e+03 1.227390e+06
1.051000e+03 1.256948e+06
1.052000e+03 1.289872e+06
1.053000e+03 1.315078e+06
1.054000e+03 1.293338e+06
1.055000e+03 1.362496e+06
1.056000e+03 1.421330e+06
1.057000e+03 1.455045e+06
1.058000e+03 1.489637e+06
1.059000e+03 1.520196e+06
1.060000e+03 1.552537e+06
1.061000e+03 1.601948e+06
1.062000e+03 1.638594e+06
1.063000e+03 5.918944e+05
1.064000e+03 3.920982e+05
1.065000e+03 1.712336e+06
1.066000e+03 1.363457e+06
1.067000e+03 1.820818e+06
1.068000e+03 1.897920e+06
1.069000e+03 1.884542e+06
1.070000e+03 1.979566e+06
1.071000e+03 2.037216e+06
1.072000e+03 2.085297e+06
1.073000e+03 2.086707e+06
1.074000e+03 2.183067e+06
1.075000e+03 2.233304e+06
1.076000e+03 2.288702e+06
1.077000e+03 2.330267e+06
1.078000e+03 2.393726e+06
1.079000e+03 2.447257e+06
1.080000e+03 2.508661e+06
1.081000e+03 2.567796e+06
1.082000e+03 2.626181e+06
1.083000e+03 2.686062e+06
1.084000e+03 2.748807e+06
1.085000e+03 2.085373e+06
1.086000e+03 2.878230e+06
1.087000e+03 2.929316e+06
1.088000e+03 3.003160e+06
1.089000e+03 3.079325e+06
1.090000e+03 3.142886e+06
1.091000e+03 3.210598e+06
1.092000e+03 3.293114e+06
1.093000e+03 3.365414e+06
1.094000e+03 3.442934e+06
1.095000e+03 3.519705e+06
1.096000e+03 3.598097e+06
1.097000e+03 3.628594e+06
1.098000e+03 3.721086e+06
1.099000e+03 3.843051e+06
1.100000e+03 3.804494e+06
1.101000e+03 3.668476e+06
1.102000e+03 8.051476e+06
1.103000e+03 2.507177e+07
1.104000e+03 1.028713e+07
1.105000e+03 4.034968e+06
1.106000e+03 5.614219e+07
1.107000e+03 3.617425e+07
1.108000e+03 5.808522e+07
1.109000e+03 3.753155e+07
1.110000e+03 1.710330e+07
1.111000e+03 9.284708e+06
1.112000e+03 5.414441e+07
1.113000e+03 6.466792e+07
1.114000e+03 3.352692e+06
1.115000e+03 6.044076e+07
1.116000e+03 6.086806e+07
1.117000e+03 3.755940e+06
1.118000e+03 4.636016e+07
1.119000e+03 7.044635e+07
1.120000e+03 6.578958e+07
1.121000e+03 6.757970e+07
1.122000e+03 1.504316e+06
1.123000e+03 7.647052e+06
1.124000e+03 7.673517e+07
1.125000e+03 4.403836e+07
1.126000e+03 7.977436e+07
1.127000e+03 7.840938e+07
1.128000e+03 3.818574e+07
1.129000e+03 8.118752e+07
1.130000e+03 7.297179e+07
1.131000e+03 8.674434e+07
1.132000e+03 4.327960e+06
1.133000e+03 7.132624e+07
1.134000e+03 8.630463e+07
1.135000e+03 2.537160e+06
1.136000e+03 9.022226e+07
1.137000e+03 9.552786e+07
1.138000e+03 9.601422e+07
1.139000e+03 9.649717e+07
1.140000e+03 2.787656e+06
1.141000e+03 1.020851e+08
1.142000e+03 1.028023e+08
1.143000e+03 1.051418e+08
1.144000e+03 1.073646e+08
1.145000e+03 7.747682e+07
1.146000e+03 1.108767e+08
1.147000e+03 1.111382e+08
1.148000e+03 1.049796e+08
1.149000e+03 1.161057e+08
1.150000e+03 1.161334e+08
1.151000e+03 1.194503e+08
1.152000e+03 1.218015e+08
1.153000e+03 4.324965e+07
1.154000e+03 1.111658e+07
1.155000e+03 1.022479e+08
1.156000e+03 3.138164e+07
1.157000e+03 1.317534e+08
1.158000e+03 4.338587e+06
1.159000e+03 1.134655e+08
1.160000e+03 1.346740e+08
1.161000e+03 1.410445e+08
1.162000e+03 4.128951e+07
1.163000e+03 1.417124e+08
1.164000e+03 6.070864e+06
1.165000e+03 1.503429e+08
1.166000e+03 1.522219e+08
1.167000e+03 1.534618e+08
1.168000e+03 1.589017e+08
1.169000e+03 1.576447e+08
1.170000e+03 1.643668e+08
1.171000e+03 1.673831e+08
1.172000e+03 1.672640e+08
1.173000e+03 1.734622e+08
1.174000e+03 1.586466e+08
1.175000e+03 7.259440e+06
1.176000e+03 6.267280e+06
1.177000e+03 1.855385e+08
1.178000e+03 1.827196e+08
1.179000e+03 1.918358e+08
1.180000e+03 1.553761e+08
1.181000e+03 1.973101e+08
1.182000e+03 2.016371e+08
1.183000e+03 2.042306e+08
1.184000e+03 2.070312e+08
1.185000e+03 2.083694e+08
1.186000e+03 2.080880e+08
1.187000e+03 2.160379e+08
1.188000e+03 2.155909e+08
1.189000e+03 7.985488e+06
1.190000e+03 3.114998e+07
1.191000e+03 2.220200e+08
1.192000e+03 2.243876e+08
1.193000e+03 7.532416e+06
1.194000e+03 9.212944e+06
1.195000e+03 1.821824e+08
1.196000e+03 2.304193e+08
1.197000e+03 3.239660e+08
1.198000e+03 3.191674e+08
1.199000e+03 3.182593e+08
1.200000e+03 2.840327e+08
1.201000e+03 2.998615e+08
1.202000e+03 2.945327e+08
1.203000e+03 3.552235e+08
1.204000e+03 3.156281e+08
1.205000e+03 3.001782e+08
1.206000e+03 2.756307e+08
1.207000e+03 5.008763e+07
1.208000e+03 2.085385e+08
1.209000e+03 1.599340e+08
1.210000e+03 1.348184e+07
1.211000e+03 9.459929e+07
1.212000e+03 6.102710e+07
1.213000e+03 3.846726e+07
1.214000e+03 2.234143e+07
1.215000e+03 1.402176e+07
1.216000e+03 1.274407e+07
1.217000e+03 1.972612e+07
1.218000e+03 3.502525e+07
1.219000e+03 6.100088e+07
1.220000e+03 9.743310e+07
1.221000e+03 1.432347e+08
1.222000e+03 1.953962e+08
1.223000e+03 2.524124e+08
1.224000e+03 3.131402e+08
1.225000e+03 3.656853e+08
1.226000e+03 4.383608e+08
1.227000e+03 4.978339e+08
1.228000e+03 5.594525e+08
1.229000e+03 6.293963e+08
1.230000e+03 6.849765e+08
1.231000e+03 7.361326e+08
1.232000e+03 8.203444e+08
1.233000e+03 8.805592e+08
1.234000e+03 5.567665e+08
1.235000e+03 9.942977e+08
1.236000e+03 1.006987e+09
1.237000e+03 1.103978e+09
1.238000e+03 1.151905e+09
1.239000e+03 1.201294e+09
1.240000e+03 1.133358e+09
1.241000e+03 1.996569e+09
1.242000e+03 1.114380e+09
1.243000e+03 1.672307e+09
1.244000e+03 7.045545e+08
1.245000e+03 1.044353e+09
1.246000e+03 3.195134e+09
1.247000e+03 3.250917e+09
1.248000e+03 7.588346e+08
1.249000e+03 9.544755e+08
1.250000e+03 3.886637e+09
1.251000e+03 4.118166e+09
1.252000e+03 4.164092e+09
1.253000e+03 4.471599e+09
1.254000e+03 4.482340e+09
1.255000e+03 4.743114e+09
1.256000e+03 4.736896e+09
1.257000e+03 5.055540e+09
1.258000e+03 4.694580e+09
1.259000e+03 4.948567e+09
1.260000e+03 4.025547e+09
1.261000e+03 3.089373e+07
1.262000e+03 4.704904e+08
1.263000e+03 5.629626e+09
1.264000e+03 4.784175e+09
1.265000e+03 3.172506e+07
1.266000e+03 5.989708e+09
1.267000e+03 6.046818e+09
