# wavelength_A flux
5.000000e+02 2.896826e-12
5.010000e+02 3.345869e-12
5.020000e+02 3.862227e-12
5.030000e+02 4.455643e-12
5.040000e+02 5.137223e-12
5.050000e+02 6.136100e-12
5.060000e+02 7.065125e-12
5.070000e+02 8.130141e-12
5.080000e+02 9.350367e-12
5.090000e+02 1.074811e-11
5.100000e+02 1.234722e-11
5.110000e+02 1.417645e-11
5.120000e+02 1.626756e-11
5.130000e+02 1.865676e-11
5.140000e+02 2.138510e-11
5.150000e+02 2.449858e-11
5.160000e+02 2.805110e-11
5.170000e+02 3.209907e-11
5.180000e+02 3.671547e-11
5.190000e+02 4.197104e-11
5.200000e+02 4.795342e-11
5.210000e+02 5.475941e-11
5.220000e+02 6.248883e-11
5.230000e+02 7.129420e-11
5.240000e+02 8.128617e-11
5.250000e+02 9.263085e-11
5.260000e+02 1.055040e-10
5.270000e+02 1.201050e-10
5.280000e+02 1.366572e-10
5.290000e+02 1.553595e-10
5.300000e+02 1.766523e-10
5.310000e+02 2.006956e-10
5.320000e+02 2.278993e-10
5.330000e+02 2.586613e-10
5.340000e+02 2.934315e-10
5.350000e+02 3.327133e-10
5.360000e+02 3.770671e-10
5.370000e+02 4.190003e-10
5.380000e+02 4.836073e-10
5.390000e+02 5.472762e-10
5.400000e+02 6.190956e-10
5.410000e+02 6.999062e-10
5.420000e+02 7.910290e-10
5.430000e+02 8.935223e-10
5.440000e+02 1.008828e-09
5.450000e+02 1.138489e-09
5.460000e+02 1.283958e-09
5.470000e+02 1.447958e-09
5.480000e+02 1.631820e-09
5.490000e+02 1.838213e-09
5.500000e+02 2.069772e-09
5.510000e+02 2.329470e-09
5.520000e+02 2.620586e-09
5.530000e+02 2.946784e-09
5.540000e+02 3.312132e-09
5.550000e+02 3.721154e-09
5.560000e+02 4.178873e-09
5.570000e+02 4.690871e-09
5.580000e+02 5.263341e-09
5.590000e+02 5.903155e-09
5.600000e+02 6.617936e-09
5.610000e+02 7.416135e-09
5.620000e+02 8.307116e-09
5.630000e+02 9.301258e-09
5.640000e+02 1.041005e-08
5.650000e+02 1.164620e-08
5.660000e+02 1.302379e-08
5.670000e+02 1.455836e-08
5.680000e+02 1.626720e-08
5.690000e+02 1.816922e-08
5.700000e+02 2.028544e-08
5.710000e+02 2.263916e-08
5.720000e+02 2.525588e-08
5.730000e+02 2.816391e-08
5.740000e+02 3.139441e-08
5.750000e+02 3.498257e-08
5.760000e+02 3.895576e-08
5.770000e+02 4.338336e-08
5.780000e+02 4.828446e-08
5.790000e+02 5.371862e-08
5.800000e+02 5.974154e-08
5.810000e+02 6.641449e-08
5.820000e+02 7.380469e-08
5.830000e+02 8.198518e-08
5.840000e+02 9.100113e-08
5.850000e+02 1.010491e-07
5.860000e+02 1.121373e-07
5.870000e+02 1.243857e-07
5.880000e+02 1.379208e-07
5.890000e+02 1.528684e-07
5.900000e+02 1.693836e-07
5.910000e+02 1.876084e-07
5.920000e+02 2.077239e-07
5.930000e+02 2.299118e-07
5.940000e+02 2.543793e-07
5.950000e+02 2.813366e-07
5.960000e+02 3.110740e-07
5.970000e+02 3.438165e-07
5.980000e+02 3.798731e-07
5.990000e+02 4.195660e-07
6.000000e+02 4.632469e-07
6.010000e+02 5.110509e-07
6.020000e+02 5.641459e-07
6.030000e+02 6.222398e-07
6.040000e+02 6.860907e-07
6.050000e+02 7.562363e-07
6.060000e+02 8.332740e-07
6.070000e+02 9.178574e-07
6.080000e+02 1.010691e-06
6.090000e+02 1.112547e-06
6.100000e+02 1.224264e-06
6.110000e+02 1.346769e-06
6.120000e+02 1.481048e-06
6.130000e+02 1.628189e-06
6.140000e+02 1.789375e-06
6.150000e+02 1.965889e-06
6.160000e+02 2.159130e-06
6.170000e+02 2.370617e-06
6.180000e+02 2.601999e-06
6.190000e+02 2.855071e-06
6.200000e+02 3.131782e-06
6.210000e+02 3.434247e-06
6.220000e+02 3.764761e-06
6.230000e+02 4.125818e-06
6.240000e+02 4.520119e-06
6.250000e+02 4.950599e-06
6.260000e+02 5.420435e-06
6.270000e+02 5.933071e-06
6.280000e+02 6.492252e-06
6.290000e+02 7.102009e-06
6.300000e+02 7.766736e-06
6.310000e+02 8.490953e-06
6.320000e+02 9.280443e-06
6.330000e+02 1.014009e-05
6.340000e+02 1.107620e-05
6.350000e+02 1.209519e-05
6.360000e+02 1.317996e-05
6.370000e+02 1.441059e-05
6.380000e+02 1.572280e-05
6.390000e+02 1.714961e-05
6.400000e+02 1.870063e-05
6.410000e+02 2.038617e-05
6.420000e+02 2.221741e-05
6.430000e+02 2.420640e-05
6.440000e+02 2.636613e-05
6.450000e+02 2.871061e-05
6.460000e+02 3.125499e-05
6.470000e+02 3.401552e-05
6.480000e+02 3.700980e-05
6.490000e+02 4.025675e-05
6.500000e+02 4.377673e-05
6.510000e+02 4.759172e-05
6.520000e+02 5.172534e-05
6.530000e+02 5.620300e-05
6.540000e+02 6.105214e-05
6.550000e+02 6.630216e-05
6.560000e+02 7.198476e-05
6.570000e+02 7.813171e-05
6.580000e+02 8.478645e-05
6.590000e+02 9.198152e-05
6.600000e+02 9.976060e-05
6.610000e+02 1.081717e-04
6.620000e+02 1.172610e-04
6.630000e+02 1.270817e-04
6.640000e+02 1.376902e-04
6.650000e+02 1.491460e-04
6.660000e+02 1.615158e-04
6.670000e+02 1.748671e-04
6.680000e+02 1.892752e-04
6.690000e+02 2.048198e-04
6.700000e+02 2.215865e-04
6.710000e+02 2.396669e-04
6.720000e+02 2.591591e-04
6.730000e+02 2.801694e-04
6.740000e+02 3.028093e-04
6.750000e+02 3.272001e-04
6.760000e+02 3.534708e-04
6.770000e+02 3.817597e-04
6.780000e+02 4.122148e-04
6.790000e+02 4.449942e-04
6.800000e+02 4.802674e-04
6.810000e+02 5.182150e-04
6.820000e+02 5.590308e-04
6.830000e+02 6.029214e-04
6.840000e+02 6.501075e-04
6.850000e+02 7.008169e-04
6.860000e+02 7.553269e-04
6.870000e+02 8.138742e-04
6.880000e+02 8.767760e-04
6.890000e+02 9.443176e-04
6.900000e+02 1.016833e-03
6.910000e+02 1.094672e-03
6.920000e+02 1.178207e-03
6.930000e+02 1.267835e-03
6.940000e+02 1.363980e-03
6.950000e+02 1.467092e-03
6.960000e+02 1.577654e-03
6.970000e+02 1.696146e-03
6.980000e+02 1.823209e-03
6.990000e+02 1.959329e-03
7.000000e+02 2.105160e-03
7.010000e+02 2.261360e-03
7.020000e+02 2.428630e-03
7.030000e+02 2.607720e-03
7.040000e+02 2.799423e-03
7.050000e+02 3.004585e-03
7.060000e+02 3.224094e-03
7.070000e+02 3.458944e-03
7.080000e+02 3.710115e-03
7.090000e+02 3.978657e-03
7.100000e+02 4.265849e-03
7.110000e+02 4.572783e-03
7.120000e+02 4.900799e-03
7.130000e+02 5.251274e-03
7.140000e+02 5.625672e-03
7.150000e+02 6.025536e-03
7.160000e+02 6.452549e-03
7.170000e+02 6.908394e-03
7.180000e+02 7.394923e-03
7.190000e+02 7.914354e-03
7.200000e+02 8.468466e-03
7.210000e+02 9.059591e-03
7.220000e+02 9.690079e-03
7.230000e+02 1.036242e-02
7.240000e+02 1.107926e-02
7.250000e+02 1.184339e-02
7.260000e+02 1.265760e-02
7.270000e+02 1.352559e-02
7.280000e+02 1.445013e-02
7.290000e+02 1.543492e-02
7.300000e+02 1.648371e-02
7.310000e+02 1.760044e-02
7.320000e+02 1.878929e-02
7.330000e+02 2.005468e-02
7.340000e+02 2.140132e-02
7.350000e+02 2.283412e-02
7.360000e+02 2.435833e-02
7.370000e+02 2.597956e-02
7.380000e+02 2.770359e-02
7.390000e+02 2.953662e-02
7.400000e+02 3.148500e-02
7.410000e+02 3.355629e-02
7.420000e+02 3.575683e-02
7.430000e+02 3.809551e-02
7.440000e+02 4.057952e-02
7.450000e+02 4.321781e-02
7.460000e+02 4.601947e-02
7.470000e+02 4.899409e-02
7.480000e+02 5.215180e-02
7.490000e+02 5.550331e-02
7.500000e+02 5.905989e-02
7.510000e+02 6.283345e-02
7.520000e+02 6.683654e-02
7.530000e+02 7.108241e-02
7.540000e+02 7.558503e-02
7.550000e+02 8.035907e-02
7.560000e+02 8.542015e-02
7.570000e+02 9.077982e-02
7.580000e+02 9.646946e-02
7.590000e+02 1.024927e-01
7.600000e+02 1.088749e-01
7.610000e+02 1.156346e-01
7.620000e+02 1.227936e-01
7.630000e+02 1.303742e-01
7.640000e+02 1.383998e-01
7.650000e+02 1.468950e-01
7.660000e+02 1.558869e-01
7.670000e+02 1.654019e-01
7.680000e+02 1.754679e-01
7.690000e+02 1.861192e-01
7.700000e+02 1.973837e-01
7.710000e+02 2.092964e-01
7.720000e+02 2.218926e-01
7.730000e+02 2.352094e-01
7.740000e+02 2.492859e-01
7.750000e+02 2.641631e-01
7.760000e+02 2.798185e-01
7.770000e+02 2.964943e-01
7.780000e+02 3.140413e-01
7.790000e+02 3.325750e-01
7.800000e+02 3.521478e-01
7.810000e+02 3.728152e-01
7.820000e+02 3.946348e-01
7.830000e+02 4.176672e-01
7.840000e+02 4.419772e-01
7.850000e+02 4.676307e-01
7.860000e+02 4.946964e-01
7.870000e+02 5.232559e-01
7.880000e+02 5.533767e-01
7.890000e+02 5.851440e-01
7.900000e+02 6.186428e-01
7.910000e+02 6.539623e-01
7.920000e+02 6.911960e-01
7.930000e+02 7.304421e-01
7.940000e+02 7.718032e-01
7.950000e+02 8.153873e-01
7.960000e+02 8.613074e-01
7.970000e+02 9.096813e-01
7.980000e+02 9.606335e-01
7.990000e+02 1.014293e+00
8.000000e+02 1.070798e+00
8.010000e+02 1.130282e+00
8.020000e+02 1.192914e+00
8.030000e+02 1.258832e+00
8.040000e+02 1.328203e+00
8.050000e+02 1.401201e+00
8.060000e+02 1.478004e+00
8.070000e+02 1.558800e+00
8.080000e+02 1.643783e+00
8.090000e+02 1.733159e+00
8.100000e+02 1.827143e+00
8.110000e+02 1.925958e+00
8.120000e+02 2.029838e+00
8.130000e+02 2.139032e+00
8.140000e+02 2.253792e+00
8.150000e+02 2.374385e+00
8.160000e+02 2.501097e+00
8.170000e+02 2.634202e+00
8.180000e+02 2.774048e+00
8.190000e+02 2.920912e+00
8.200000e+02 3.075144e+00
8.210000e+02 3.237089e+00
8.220000e+02 3.407114e+00
8.230000e+02 3.585598e+00
8.240000e+02 3.772939e+00
8.250000e+02 3.969550e+00
8.260000e+02 4.175863e+00
8.270000e+02 4.392330e+00
8.280000e+02 4.619421e+00
8.290000e+02 4.857628e+00
8.300000e+02 5.107467e+00
8.310000e+02 5.369469e+00
8.320000e+02 5.644193e+00
8.330000e+02 5.932222e+00
8.340000e+02 6.234162e+00
8.350000e+02 6.550033e+00
8.360000e+02 6.882301e+00
8.370000e+02 7.229915e+00
8.380000e+02 7.593794e+00
8.390000e+02 7.975646e+00
8.400000e+02 8.375332e+00
8.410000e+02 8.793961e+00
8.420000e+02 9.232207e+00
8.430000e+02 9.691476e+00
8.440000e+02 1.017216e+01
8.450000e+02 1.067539e+01
8.460000e+02 1.120216e+01
8.470000e+02 1.175352e+01
8.480000e+02 1.233052e+01
8.490000e+02 1.293431e+01
8.500000e+02 1.356605e+01
8.510000e+02 1.422695e+01
8.520000e+02 1.491825e+01
8.530000e+02 1.564137e+01
8.540000e+02 1.639769e+01
8.550000e+02 1.718846e+01
8.560000e+02 1.801524e+01
8.570000e+02 1.887963e+01
8.580000e+02 1.978318e+01
8.590000e+02 2.072761e+01
8.600000e+02 2.171461e+01
8.610000e+02 2.274601e+01
8.620000e+02 2.382368e+01
8.630000e+02 2.494948e+01
8.640000e+02 2.612570e+01
8.650000e+02 2.735403e+01
8.660000e+02 2.863722e+01
8.670000e+02 2.997707e+01
8.680000e+02 3.137611e+01
8.690000e+02 3.283678e+01
8.700000e+02 3.436164e+01
8.710000e+02 3.595333e+01
8.720000e+02 3.761461e+01
8.730000e+02 3.934833e+01
8.740000e+02 4.115746e+01
8.750000e+02 4.304508e+01
8.760000e+02 4.501437e+01
8.770000e+02 4.706838e+01
8.780000e+02 4.921142e+01
8.790000e+02 5.144618e+01
8.800000e+02 5.377665e+01
8.810000e+02 5.620670e+01
8.820000e+02 5.874030e+01
8.830000e+02 6.138161e+01
8.840000e+02 6.413490e+01
8.850000e+02 6.700464e+01
8.860000e+02 6.999543e+01
8.870000e+02 7.311207e+01
8.880000e+02 7.635950e+01
8.890000e+02 7.974297e+01
8.900000e+02 8.326770e+01
8.910000e+02 8.693926e+01
8.920000e+02 9.063970e+01
8.930000e+02 9.474601e+01
8.940000e+02 9.889326e+01
8.950000e+02 1.032115e+02
8.960000e+02 1.077076e+02
8.970000e+02 1.123880e+02
8.980000e+02 1.172601e+02
8.990000e+02 1.223310e+02
9.000000e+02 1.276085e+02
9.010000e+02 1.331004e+02
9.020000e+02 1.388149e+02
9.030000e+02 1.447603e+02
9.040000e+02 1.509436e+02
9.050000e+02 1.573787e+02
9.060000e+02 1.640719e+02
9.070000e+02 1.710273e+02
9.080000e+02 1.782700e+02
9.090000e+02 1.857962e+02
9.100000e+02 1.936215e+02
9.110000e+02 2.017580e+02
9.120000e+02 2.102217e+02
9.130000e+02 2.151909e+02
9.140000e+02 2.342126e+02
9.150000e+02 1.406884e+03
9.160000e+02 3.288413e+03
9.170000e+02 3.407520e+03
9.180000e+02 3.516218e+03
9.190000e+02 3.653528e+03
9.200000e+02 3.780699e+03
9.210000e+02 2.944121e+02
9.220000e+02 4.035527e+03
9.230000e+02 4.160928e+03
9.240000e+02 4.152715e+03
9.250000e+02 4.410335e+03
9.260000e+02 4.606536e+03
9.270000e+02 4.773092e+03
9.280000e+02 4.942214e+03
9.290000e+02 4.753961e+03
9.300000e+02 5.146613e+03
9.310000e+02 5.416821e+03
9.320000e+02 5.644451e+03
9.330000e+02 5.817090e+03
9.340000e+02 5.998807e+03
9.350000e+02 1.780266e+03
9.360000e+02 6.405260e+03
9.370000e+02 1.289590e+03
9.380000e+02 1.859868e+03
9.390000e+02 7.093204e+03
9.400000e+02 7.330296e+03
9.410000e+02 2.889722e+03
9.420000e+02 7.823187e+03
9.430000e+02 7.949144e+03
9.440000e+02 6.318653e+03
9.450000e+02 8.606834e+03
9.460000e+02 8.893092e+03
9.470000e+02 3.876169e+03
9.480000e+02 6.464164e+03
9.490000e+02 9.704972e+03
9.500000e+02 1.798870e+03
9.510000e+02 1.024698e+04
9.520000e+02 1.076902e+04
9.530000e+02 1.098114e+04
9.540000e+02 8.612918e+03
9.550000e+02 1.184982e+04
9.560000e+02 6.186592e+03
9.570000e+02 9.228320e+03
9.580000e+02 1.293498e+04
9.590000e+02 1.349116e+04
9.600000e+02 2.982321e+03
9.610000e+02 1.414660e+04
9.620000e+02 1.477214e+04
9.630000e+02 1.528728e+04
9.640000e+02 1.687539e+03
9.650000e+02 1.493904e+04
9.660000e+02 1.677152e+04
9.670000e+02 1.708341e+04
9.680000e+02 1.775781e+04
9.690000e+02 1.828553e+04
9.700000e+02 1.890311e+04
9.710000e+02 1.934171e+04
9.720000e+02 1.851516e+04
9.730000e+02 1.863562e+04
9.740000e+02 2.103657e+04
9.750000e+02 2.200907e+04
9.760000e+02 2.271476e+04
9.770000e+02 2.345919e+04
9.780000e+02 2.411134e+04
9.790000e+02 2.493323e+04
9.800000e+02 2.568440e+04
9.810000e+02 2.647732e+04
9.820000e+02 2.723110e+04
9.830000e+02 2.808991e+04
9.840000e+02 1.410804e+04
9.850000e+02 2.981980e+04
9.860000e+02 3.071176e+04
9.870000e+02 3.164015e+04
9.880000e+02 3.243501e+04
9.890000e+02 2.951303e+04
9.900000e+02 5.424562e+03
9.910000e+02 3.528429e+04
9.920000e+02 3.103430e+04
9.930000e+02 3.543438e+04
9.940000e+02 6.695078e+03
9.950000e+02 1.372559e+04
9.960000e+02 2.693130e+04
9.970000e+02 8.903324e+03
9.980000e+02 4.354715e+04
9.990000e+02 4.394676e+04
1.000000e+03 4.621758e+04
1.001000e+03 4.756707e+04
1.002000e+03 4.893929e+04
1.003000e+03 4.893112e+04
1.004000e+03 5.170817e+04
1.005000e+03 5.066141e+04
1.006000e+03 5.484937e+04
1.007000e+03 5.577282e+04
1.008000e+03 5.782373e+04
1.009000e+03 5.891800e+04
1.010000e+03 6.138965e+04
1.011000e+03 6.313127e+04
1.012000e+03 6.491424e+04
1.013000e+03 6.674984e+04
1.014000e+03 6.778894e+04
1.015000e+03 6.990784e+04
1.016000e+03 7.240604e+04
1.017000e+03 7.375080e+04
1.018000e+03 7.646584e+04
1.019000e+03 7.834366e+04
1.020000e+03 8.063202e+04
1.021000e+03 4.342677e+04
1.022000e+03 7.784316e+04
1.023000e+03 8.533832e+04
1.024000e+03 6.788544e+04
1.025000e+03 6.538568e+04
1.026000e+03 3.189191e+04
1.027000e+03 7.815934e+04
1.028000e+03 2.844612e+04
1.029000e+03 1.008342e+05
1.030000e+03 1.025656e+05
1.031000e+03 1.086074e+05
1.032000e+03 1.100615e+05
1.033000e+03 5.896839e+04
1.034000e+03 1.185051e+05
1.035000e+03 2.838843e+04
1.036000e+03 1.108631e+05
1.037000e+03 2.117655e+04
1.038000e+03 1.321812e+05
1.039000e+03 1.345987e+05
1.040000e+03 1.394670e+05
1.041000e+03 1.407621e+05
1.042000e+03 1.467438e+05
1.043000e+03 1.461632e+05
1.044000e+03 1.549636e+05
1.045000e+03 1.590048e+05
1.046000e+03 1.635926e+05
1.047000e+03 1.678716e+05
1.048000e+03 1.718463e+05
1.049000e+03 1.671905e+05
1.050000e+03 1.815979e+05
1.051000e+03 1.864154e+05
1.052000e+03 1.914033e+05
1.053000e+03 1.954195e+05
1.054000e+03 1.960462e+05
1.055000e+03 1.802554e+05
1.056000e+03 2.122886e+05
1.057000e+03 2.177889e+05
1.058000e+03 2.233687e+05
1.059000e+03 2.290638e+05
1.060000e+03 2.347892e+05
1.061000e+03 2.413175e+05
1.062000e+03 2.474868e+05
1.063000e+03 7.779096e+04
1.064000e+03 5.753877e+04
1.065000e+03 2.656860e+05
1.066000e+03 1.613928e+05
1.067000e+03 2.789896e+05
1.068000e+03 2.888948e+05
1.069000e+03 2.789625e+05
1.070000e+03 3.026519e+05
1.071000e+03 3.115913e+05
1.072000e+03 3.194651e+05
1.073000e+03 3.257251e+05
1.074000e+03 3.357514e+05
1.075000e+03 3.441572e+05
1.076000e+03 3.528656e+05
1.077000e+03 3.610180e+05
1.078000e+03 3.706502e+05
1.079000e+03 3.794548e+05
1.080000e+03 3.894504e+05
1.081000e+03 3.991550e+05
1.082000e+03 4.088605e+05
1.083000e+03 4.187936e+05
1.084000e+03 4.292608e+05
1.085000e+03 2.987946e+05
1.086000e+03 4.509038e+05
1.087000e+03 4.613859e+05
1.088000e+03 4.718102e+05
1.089000e+03 4.847153e+05
1.090000e+03 4.961546e+05
1.091000e+03 5.034013e+05
1.092000e+03 5.208071e+05
1.093000e+03 5.330512e+05
1.094000e+03 5.463086e+05
1.095000e+03 5.593209e+05
1.096000e+03 5.727996e+05
1.097000e+03 5.251733e+05
1.098000e+03 5.635408e+05
1.099000e+03 6.146457e+05
1.100000e+03 5.054818e+05
1.101000e+03 5.886711e+05
1.102000e+03 1.300460e+06
1.103000e+03 3.789778e+06
1.104000e+03 1.904374e+06
1.105000e+03 6.440890e+05
1.106000e+03 1.136034e+07
1.107000e+03 9.810834e+06
1.108000e+03 1.071628e+07
1.109000e+03 5.033639e+06
1.110000e+03 3.607720e+06
1.111000e+03 1.577639e+06
1.112000e+03 8.712491e+06
1.113000e+03 1.303127e+07
1.114000e+03 5.327990e+05
1.115000e+03 1.271680e+07
1.116000e+03 1.319349e+07
1.117000e+03 6.821400e+05
1.118000e+03 7.404676e+06
1.119000e+03 1.439209e+07
1.120000e+03 1.431411e+07
1.121000e+03 1.407866e+07
1.122000e+03 2.359010e+05
1.123000e+03 9.594820e+05
1.124000e+03 1.571742e+07
1.125000e+03 9.113251e+06
1.126000e+03 1.635276e+07
1.127000e+03 1.597018e+07
1.128000e+03 9.365036e+06
1.129000e+03 1.644035e+07
1.130000e+03 1.067094e+07
1.131000e+03 1.791687e+07
1.132000e+03 7.054860e+05
1.133000e+03 1.409227e+07
1.134000e+03 1.482064e+07
1.135000e+03 3.638340e+05
1.136000e+03 1.929883e+07
1.137000e+03 1.991628e+07
1.138000e+03 2.022981e+07
1.139000e+03 2.007934e+07
1.140000e+03 4.648180e+05
1.141000e+03 2.139773e+07
1.142000e+03 2.161312e+07
1.143000e+03 2.211764e+07
1.144000e+03 2.255983e+07
1.145000e+03 1.794961e+07
1.146000e+03 2.334361e+07
1.147000e+03 2.338961e+07
1.148000e+03 2.345940e+07
1.149000e+03 2.457351e+07
1.150000e+03 2.482206e+07
1.151000e+03 2.529503e+07
1.152000e+03 2.589968e+07
1.153000e+03 8.934455e+06
1.154000e+03 1.834918e+06
1.155000e+03 1.557273e+07
1.156000e+03 2.685982e+06
1.157000e+03 2.796291e+07
1.158000e+03 6.759528e+05
1.159000e+03 1.667570e+07
1.160000e+03 2.889563e+07
1.161000e+03 3.030715e+07
1.162000e+03 8.133122e+06
1.163000e+03 3.105899e+07
1.164000e+03 1.165516e+06
1.165000e+03 3.245997e+07
1.166000e+03 3.290894e+07
1.167000e+03 3.345693e+07
1.168000e+03 3.438524e+07
1.169000e+03 3.181509e+07
1.170000e+03 3.565564e+07
1.171000e+03 3.642049e+07
1.172000e+03 3.688852e+07
1.173000e+03 3.774241e+07
1.174000e+03 3.710234e+07
1.175000e+03 1.420808e+06
1.176000e+03 1.162912e+06
1.177000e+03 4.056411e+07
1.178000e+03 4.024447e+07
1.179000e+03 4.203120e+07
1.180000e+03 3.599278e+07
1.181000e+03 4.334981e+07
1.182000e+03 4.428361e+07
1.183000e+03 4.496558e+07
1.184000e+03 4.563730e+07
1.185000e+03 4.580680e+07
1.186000e+03 4.668476e+07
1.187000e+03 4.760762e+07
1.188000e+03 4.797054e+07
1.189000e+03 1.418700e+06
1.190000e+03 3.570652e+06
1.191000e+03 4.886476e+07
1.192000e+03 4.918662e+07
1.193000e+03 1.301398e+06
1.194000e+03 1.672876e+06
1.195000e+03 4.151160e+07
1.196000e+03 5.056577e+07
1.197000e+03 7.029338e+07
1.198000e+03 7.038781e+07
1.199000e+03 6.878399e+07
1.200000e+03 6.143938e+07
1.201000e+03 6.437095e+07
1.202000e+03 6.353994e+07
1.203000e+03 7.472152e+07
1.204000e+03 6.783513e+07
1.205000e+03 6.252604e+07
1.206000e+03 5.752759e+07
1.207000e+03 8.995952e+06
1.208000e+03 4.210163e+07
1.209000e+03 3.195408e+07
1.210000e+03 2.649158e+06
1.211000e+03 1.821551e+07
1.212000e+03 1.104656e+07
1.213000e+03 7.135785e+06
1.214000e+03 4.106098e+06
1.215000e+03 2.554842e+06
1.216000e+03 2.297046e+06
1.217000e+03 3.629769e+06
1.218000e+03 6.511756e+06
1.219000e+03 1.154176e+07
1.220000e+03 1.888421e+07
1.221000e+03 2.832380e+07
1.222000e+03 3.941712e+07
1.223000e+03 5.164578e+07
1.224000e+03 6.505802e+07
1.225000e+03 7.839861e+07
1.226000e+03 9.306570e+07
1.227000e+03 1.049627e+08
1.228000e+03 1.222640e+08
1.229000e+03 1.371941e+08
1.230000e+03 1.487856e+08
1.231000e+03 1.656029e+08
1.232000e+03 1.807884e+08
1.233000e+03 1.952721e+08
1.234000e+03 1.270616e+08
1.235000e+03 2.227620e+08
1.236000e+03 2.343418e+08
1.237000e+03 2.493724e+08
1.238000e+03 2.622204e+08
1.239000e+03 2.747757e+08
1.240000e+03 2.637031e+08
1.241000e+03 4.507677e+08
1.242000e+03 2.724332e+08
1.243000e+03 3.736735e+08
1.244000e+03 1.773604e+08
1.245000e+03 2.554348e+08
1.246000e+03 6.974055e+08
1.247000e+03 6.890927e+08
1.248000e+03 1.920864e+08
1.249000e+03 2.315775e+08
1.250000e+03 8.624226e+08
1.251000e+03 8.996108e+08
1.252000e+03 9.321983e+08
1.253000e+03 9.893273e+08
1.254000e+03 1.016404e+09
1.255000e+03 1.058418e+09
1.256000e+03 1.085886e+09
1.257000e+03 1.143248e+09
1.258000e+03 1.142744e+09
1.259000e+03 1.147914e+09
1.260000e+03 8.649024e+08
1.261000e+03 5.979352e+06
1.262000e+03 1.236364e+08
1.263000e+03 1.288013e+09
1.264000e+03 1.130196e+09
1.265000e+03 6.050832e+06
1.266000e+03 1.397224e+09
1.267000e+03 1.497460e+09
