# wavelength_A flux
5.000000e+02 4.265079e-21
5.010000e+02 5.141471e-21
5.020000e+02 6.193240e-21
5.030000e+02 7.454533e-21
5.040000e+02 8.965920e-21
5.050000e+02 8.293722e-21
5.060000e+02 9.971079e-21
5.070000e+02 1.197874e-20
5.080000e+02 1.437997e-20
5.090000e+02 1.724982e-20
5.100000e+02 2.067767e-20
5.110000e+02 2.476771e-20
5.120000e+02 2.964586e-20
5.130000e+02 3.545926e-20
5.140000e+02 4.238231e-20
5.150000e+02 5.062777e-20
5.160000e+02 6.041851e-20
5.170000e+02 7.209280e-20
5.180000e+02 8.588835e-20
5.190000e+02 1.022971e-19
5.200000e+02 1.217570e-19
5.210000e+02 1.448222e-19
5.220000e+02 1.723427e-19
5.230000e+02 2.044696e-19
5.240000e+02 2.426923e-19
5.250000e+02 2.878659e-19
5.260000e+02 3.412338e-19
5.270000e+02 4.042281e-19
5.280000e+02 4.785356e-19
5.290000e+02 5.677419e-19
5.300000e+02 6.693288e-19
5.310000e+02 7.908193e-19
5.320000e+02 9.337563e-19
5.330000e+02 1.101828e-18
5.340000e+02 1.299328e-18
5.350000e+02 1.531273e-18
5.360000e+02 1.803620e-18
5.370000e+02 2.442382e-18
5.380000e+02 2.497464e-18
5.390000e+02 2.935542e-18
5.400000e+02 3.448246e-18
5.410000e+02 4.052894e-18
5.420000e+02 4.750987e-18
5.430000e+02 5.570769e-18
5.440000e+02 6.528739e-18
5.450000e+02 7.646856e-18
5.460000e+02 8.971304e-18
5.470000e+02 1.047163e-17
5.480000e+02 1.224336e-17
5.490000e+02 1.430608e-17
5.500000e+02 1.670683e-17
5.510000e+02 1.949901e-17
5.520000e+02 2.274478e-17
5.530000e+02 2.651560e-17
5.540000e+02 3.089392e-17
5.550000e+02 3.597477e-17
5.560000e+02 4.186754e-17
5.570000e+02 4.869820e-17
5.580000e+02 5.661161e-17
5.590000e+02 6.577436e-17
5.600000e+02 7.637788e-17
5.610000e+02 8.864203e-17
5.620000e+02 1.028192e-16
5.630000e+02 1.191989e-16
5.640000e+02 1.381133e-16
5.650000e+02 1.599467e-16
5.660000e+02 1.851234e-16
5.670000e+02 2.141552e-16
5.680000e+02 2.476063e-16
5.690000e+02 2.861330e-16
5.700000e+02 3.304832e-16
5.710000e+02 3.815033e-16
5.720000e+02 4.401746e-16
5.730000e+02 5.076068e-16
5.740000e+02 5.850690e-16
5.750000e+02 6.738792e-16
5.760000e+02 7.770218e-16
5.770000e+02 8.929740e-16
5.780000e+02 1.027163e-15
5.790000e+02 1.180929e-15
5.800000e+02 1.357042e-15
5.810000e+02 1.558659e-15
5.820000e+02 1.789391e-15
5.830000e+02 2.053518e-15
5.840000e+02 2.363365e-15
5.850000e+02 2.701573e-15
5.860000e+02 3.092911e-15
5.870000e+02 3.541729e-15
5.880000e+02 4.053930e-15
5.890000e+02 4.638958e-15
5.900000e+02 5.303997e-15
5.910000e+02 6.062745e-15
5.920000e+02 6.926574e-15
5.930000e+02 7.909933e-15
5.940000e+02 9.028720e-15
5.950000e+02 1.030101e-14
5.960000e+02 1.174718e-14
5.970000e+02 1.339029e-14
5.980000e+02 1.525629e-14
5.990000e+02 1.737448e-14
6.000000e+02 1.977786e-14
6.010000e+02 2.253792e-14
6.020000e+02 2.559370e-14
6.030000e+02 2.909534e-14
6.040000e+02 3.306111e-14
6.050000e+02 3.755119e-14
6.060000e+02 4.263287e-14
6.070000e+02 4.838033e-14
6.080000e+02 5.487943e-14
6.090000e+02 6.222483e-14
6.100000e+02 7.052433e-14
6.110000e+02 7.989429e-14
6.120000e+02 9.047227e-14
6.130000e+02 1.024076e-13
6.140000e+02 1.158689e-13
6.150000e+02 1.310450e-13
6.160000e+02 1.481473e-13
6.170000e+02 1.674123e-13
6.180000e+02 1.891047e-13
6.190000e+02 2.135209e-13
6.200000e+02 2.409908e-13
6.210000e+02 2.718849e-13
6.220000e+02 3.066158e-13
6.230000e+02 3.456449e-13
6.240000e+02 3.894857e-13
6.250000e+02 4.387133e-13
6.260000e+02 4.939673e-13
6.270000e+02 5.559618e-13
6.280000e+02 6.254910e-13
6.290000e+02 7.034419e-13
6.300000e+02 7.908048e-13
6.310000e+02 8.939065e-13
6.320000e+02 9.982544e-13
6.330000e+02 1.121278e-12
6.340000e+02 1.258205e-12
6.350000e+02 1.411950e-12
6.360000e+02 1.583523e-12
6.370000e+02 1.775352e-12
6.380000e+02 1.989772e-12
6.390000e+02 2.229260e-12
6.400000e+02 2.496649e-12
6.410000e+02 2.795080e-12
6.420000e+02 3.128037e-12
6.430000e+02 3.499379e-12
6.440000e+02 3.913383e-12
6.450000e+02 4.374792e-12
6.460000e+02 4.888829e-12
6.470000e+02 5.461321e-12
6.480000e+02 6.098671e-12
6.490000e+02 6.807989e-12
6.500000e+02 7.597345e-12
6.510000e+02 8.474767e-12
6.520000e+02 9.450447e-12
6.530000e+02 1.053481e-11
6.540000e+02 1.173963e-11
6.550000e+02 1.307749e-11
6.560000e+02 1.456294e-11
6.570000e+02 1.621592e-11
6.580000e+02 1.804070e-11
6.590000e+02 2.006940e-11
6.600000e+02 2.231953e-11
6.610000e+02 2.481178e-11
6.620000e+02 2.757413e-11
6.630000e+02 3.063380e-11
6.640000e+02 3.402171e-11
6.650000e+02 3.777276e-11
6.660000e+02 4.192158e-11
6.670000e+02 4.651200e-11
6.680000e+02 5.158824e-11
6.690000e+02 5.719997e-11
6.700000e+02 6.340171e-11
6.710000e+02 7.025332e-11
6.720000e+02 7.782049e-11
6.730000e+02 8.617533e-11
6.740000e+02 9.539694e-11
6.750000e+02 1.055721e-10
6.760000e+02 1.167958e-10
6.770000e+02 1.291725e-10
6.780000e+02 1.428162e-10
6.790000e+02 1.578522e-10
6.800000e+02 1.744174e-10
6.810000e+02 1.926619e-10
6.820000e+02 2.127499e-10
6.830000e+02 2.348605e-10
6.840000e+02 2.591909e-10
6.850000e+02 2.859649e-10
6.860000e+02 3.153895e-10
6.870000e+02 3.477549e-10
6.880000e+02 3.833149e-10
6.890000e+02 4.223929e-10
6.900000e+02 4.653175e-10
6.910000e+02 5.124534e-10
6.920000e+02 5.641994e-10
6.930000e+02 6.209898e-10
6.940000e+02 6.832985e-10
6.950000e+02 7.516421e-10
6.960000e+02 8.265839e-10
6.970000e+02 9.088687e-10
6.980000e+02 9.987724e-10
6.990000e+02 1.097416e-09
7.000000e+02 1.205462e-09
7.010000e+02 1.323773e-09
7.020000e+02 1.453289e-09
7.030000e+02 1.595033e-09
7.040000e+02 1.750115e-09
7.050000e+02 1.919744e-09
7.060000e+02 2.105257e-09
7.070000e+02 2.308018e-09
7.080000e+02 2.529642e-09
7.090000e+02 2.771926e-09
7.100000e+02 3.036306e-09
7.110000e+02 3.325163e-09
7.120000e+02 3.640524e-09
7.130000e+02 3.984730e-09
7.140000e+02 4.360320e-09
7.150000e+02 4.770072e-09
7.160000e+02 5.216903e-09
7.170000e+02 5.704328e-09
7.180000e+02 6.236051e-09
7.190000e+02 6.813961e-09
7.200000e+02 7.444496e-09
7.210000e+02 8.131278e-09
7.220000e+02 8.879136e-09
7.230000e+02 9.693294e-09
7.240000e+02 1.057941e-08
7.250000e+02 1.154359e-08
7.260000e+02 1.259256e-08
7.270000e+02 1.373319e-08
7.280000e+02 1.497349e-08
7.290000e+02 1.632174e-08
7.300000e+02 1.778695e-08
7.310000e+02 1.937890e-08
7.320000e+02 2.110813e-08
7.330000e+02 2.298601e-08
7.340000e+02 2.502484e-08
7.350000e+02 2.723788e-08
7.360000e+02 2.963973e-08
7.370000e+02 3.224493e-08
7.380000e+02 3.507103e-08
7.390000e+02 3.813568e-08
7.400000e+02 4.145978e-08
7.410000e+02 4.505959e-08
7.420000e+02 4.896400e-08
7.430000e+02 5.319022e-08
7.440000e+02 5.776981e-08
7.450000e+02 6.272901e-08
7.460000e+02 6.809809e-08
7.470000e+02 7.390957e-08
7.480000e+02 8.019847e-08
7.490000e+02 8.700248e-08
7.500000e+02 9.436211e-08
7.510000e+02 1.023209e-07
7.520000e+02 1.109258e-07
7.530000e+02 1.202272e-07
7.540000e+02 1.302791e-07
7.550000e+02 1.411397e-07
7.560000e+02 1.528715e-07
7.570000e+02 1.655832e-07
7.580000e+02 1.792223e-07
7.590000e+02 1.939992e-07
7.600000e+02 2.099307e-07
7.610000e+02 2.271271e-07
7.620000e+02 2.456789e-07
7.630000e+02 2.656906e-07
7.640000e+02 2.872701e-07
7.650000e+02 3.105370e-07
7.660000e+02 3.356126e-07
7.670000e+02 3.626376e-07
7.680000e+02 3.917826e-07
7.690000e+02 4.231346e-07
7.700000e+02 4.568981e-07
7.710000e+02 4.932712e-07
7.720000e+02 5.324268e-07
7.730000e+02 5.745719e-07
7.740000e+02 6.199241e-07
7.750000e+02 6.687172e-07
7.760000e+02 7.222185e-07
7.770000e+02 7.776458e-07
7.780000e+02 8.383329e-07
7.790000e+02 9.035741e-07
7.800000e+02 9.736943e-07
7.810000e+02 1.049042e-06
7.820000e+02 1.129994e-06
7.830000e+02 1.216948e-06
7.840000e+02 1.310330e-06
7.850000e+02 1.410596e-06
7.860000e+02 1.518251e-06
7.870000e+02 1.633714e-06
7.880000e+02 1.757682e-06
7.890000e+02 1.890687e-06
7.900000e+02 2.033358e-06
7.910000e+02 2.186369e-06
7.920000e+02 2.350437e-06
7.930000e+02 2.526329e-06
7.940000e+02 2.714862e-06
7.950000e+02 2.916904e-06
7.960000e+02 3.133383e-06
7.970000e+02 3.365288e-06
7.980000e+02 3.613669e-06
7.990000e+02 3.879651e-06
8.000000e+02 4.164424e-06
8.010000e+02 4.469344e-06
8.020000e+02 4.795519e-06
8.030000e+02 5.144635e-06
8.040000e+02 5.518142e-06
8.050000e+02 5.917674e-06
8.060000e+02 6.344964e-06
8.070000e+02 6.801859e-06
8.080000e+02 7.290324e-06
8.090000e+02 7.812445e-06
8.100000e+02 8.370442e-06
8.110000e+02 8.966674e-06
8.120000e+02 9.603654e-06
8.130000e+02 1.028403e-05
8.140000e+02 1.101064e-05
8.150000e+02 1.178653e-05
8.160000e+02 1.261479e-05
8.170000e+02 1.349895e-05
8.180000e+02 1.444244e-05
8.190000e+02 1.544922e-05
8.200000e+02 1.652330e-05
8.210000e+02 1.766897e-05
8.220000e+02 1.889081e-05
8.230000e+02 2.019365e-05
8.240000e+02 2.158263e-05
8.250000e+02 2.306319e-05
8.260000e+02 2.464111e-05
8.270000e+02 2.632251e-05
8.280000e+02 2.811388e-05
8.290000e+02 3.002209e-05
8.300000e+02 3.205441e-05
8.310000e+02 3.421858e-05
8.320000e+02 3.652276e-05
8.330000e+02 3.897561e-05
8.340000e+02 4.158629e-05
8.350000e+02 4.440466e-05
8.360000e+02 4.732294e-05
8.370000e+02 5.046527e-05
8.380000e+02 5.381605e-05
8.390000e+02 5.736747e-05
8.400000e+02 6.114999e-05
8.410000e+02 6.517138e-05
8.420000e+02 6.945813e-05
8.430000e+02 7.398919e-05
8.440000e+02 7.881697e-05
8.450000e+02 8.394638e-05
8.460000e+02 8.939542e-05
8.470000e+02 9.518310e-05
8.480000e+02 1.013295e-04
8.490000e+02 1.078559e-04
8.500000e+02 1.147847e-04
8.510000e+02 1.221396e-04
8.520000e+02 1.299477e-04
8.530000e+02 1.382290e-04
8.540000e+02 1.470116e-04
8.550000e+02 1.563348e-04
8.560000e+02 1.662239e-04
8.570000e+02 1.767115e-04
8.580000e+02 1.878369e-04
8.590000e+02 1.996226e-04
8.600000e+02 2.121210e-04
8.610000e+02 2.253688e-04
8.620000e+02 2.394065e-04
8.630000e+02 2.542838e-04
8.640000e+02 2.700405e-04
8.650000e+02 2.867411e-04
8.660000e+02 3.044136e-04
8.670000e+02 3.231363e-04
8.680000e+02 3.429601e-04
8.690000e+02 3.639469e-04
8.700000e+02 3.861617e-04
8.710000e+02 4.096729e-04
8.720000e+02 4.345527e-04
8.730000e+02 4.608771e-04
8.740000e+02 4.887260e-04
8.750000e+02 5.181835e-04
8.760000e+02 5.493381e-04
8.770000e+02 5.822947e-04
8.780000e+02 6.171164e-04
8.790000e+02 6.539412e-04
8.800000e+02 6.928660e-04
8.810000e+02 7.340049e-04
8.820000e+02 7.774777e-04
8.830000e+02 8.234108e-04
8.840000e+02 8.719366e-04
8.850000e+02 9.231945e-04
8.860000e+02 9.773317e-04
8.870000e+02 1.034500e-03
8.880000e+02 1.094864e-03
8.890000e+02 1.158592e-03
8.900000e+02 1.225862e-03
8.910000e+02 1.296863e-03
8.920000e+02 1.387065e-03
8.930000e+02 1.450853e-03
8.940000e+02 1.534267e-03
8.950000e+02 1.622260e-03
8.960000e+02 1.715070e-03
8.970000e+02 1.812949e-03
8.980000e+02 1.916162e-03
8.990000e+02 2.024984e-03
9.000000e+02 2.139706e-03
9.010000e+02 2.260630e-03
9.020000e+02 2.388078e-03
9.030000e+02 2.522387e-03
9.040000e+02 2.663897e-03
9.050000e+02 2.813025e-03
9.060000e+02 2.970038e-03
9.070000e+02 3.135745e-03
9.080000e+02 3.309666e-03
9.090000e+02 3.493109e-03
9.100000e+02 3.686253e-03
9.110000e+02 3.889458e-03
9.120000e+02 4.102672e-03
9.130000e+02 4.693055e-03
9.140000e+02 2.635397e-03
9.150000e+02 1.791652e-01
9.160000e+02 3.035046e-01
9.170000e+02 2.446509e-01
9.180000e+02 3.240947e-01
9.190000e+02 3.508327e-01
9.200000e+02 3.667053e-01
9.210000e+02 7.173347e-03
9.220000e+02 3.923657e-01
9.230000e+02 3.994094e-01
9.240000e+02 3.989316e-01
9.250000e+02 4.040026e-01
9.260000e+02 4.580743e-01
9.270000e+02 3.475662e-01
9.280000e+02 5.083132e-01
9.290000e+02 5.244537e-01
9.300000e+02 5.287802e-01
9.310000e+02 3.986406e-01
9.320000e+02 5.980988e-01
9.330000e+02 6.212408e-01
9.340000e+02 6.466516e-01
9.350000e+02 6.887019e-04
9.360000e+02 4.132473e-01
9.370000e+02 5.444875e-04
9.380000e+02 4.682939e-02
9.390000e+02 6.285609e-01
9.400000e+02 8.182385e-01
9.410000e+02 4.942253e-03
9.420000e+02 8.865761e-01
9.430000e+02 8.474025e-01
9.440000e+02 5.312045e-01
9.450000e+02 9.941634e-01
9.460000e+02 1.018545e+00
9.470000e+02 1.462897e-01
9.480000e+02 2.742974e-01
9.490000e+02 1.115208e+00
9.500000e+02 1.071572e-03
9.510000e+02 1.175773e+00
9.520000e+02 1.292954e+00
9.530000e+02 5.810643e-01
9.540000e+02 1.881416e-01
9.550000e+02 1.316666e+00
9.560000e+02 2.734399e-01
9.570000e+02 8.255506e-02
9.580000e+02 5.580819e-02
9.590000e+02 1.775731e+00
9.600000e+02 1.737833e-03
9.610000e+02 1.875507e+00
9.620000e+02 1.876174e+00
9.630000e+02 1.738989e+00
9.640000e+02 2.002215e-02
9.650000e+02 4.491342e-01
9.660000e+02 2.033179e+00
9.670000e+02 1.399180e+00
9.680000e+02 1.017994e+00
9.690000e+02 2.441428e+00
9.700000e+02 2.547167e+00
9.710000e+02 1.564584e+00
9.720000e+02 1.132424e+00
9.730000e+02 1.708360e+00
9.740000e+02 2.837633e+00
9.750000e+02 2.737943e+00
9.760000e+02 3.410717e+00
9.770000e+02 3.541529e+00
9.780000e+02 3.520473e+00
9.790000e+02 3.892384e+00
9.800000e+02 4.035377e+00
9.810000e+02 3.997527e+00
9.820000e+02 3.419430e+00
9.830000e+02 4.529748e+00
9.840000e+02 9.245249e-02
9.850000e+02 4.206600e+00
9.860000e+02 4.471665e+00
9.870000e+02 5.289667e+00
9.880000e+02 9.518385e-01
9.890000e+02 3.906900e+00
9.900000e+02 1.107619e-02
9.910000e+02 2.671492e+00
9.920000e+02 1.175096e-01
9.930000e+02 4.768114e+00
9.940000e+02 2.193546e-02
9.950000e+02 7.010324e-02
9.960000e+02 2.369040e+00
9.970000e+02 1.070929e-02
9.980000e+02 7.634865e+00
9.990000e+02 1.919196e+00
1.000000e+03 7.834099e+00
1.001000e+03 9.057710e+00
1.002000e+03 9.387639e+00
1.003000e+03 6.656845e+00
1.004000e+03 1.778876e+00
1.005000e+03 7.983762e+00
1.006000e+03 1.088200e+01
1.007000e+03 1.128244e+01
1.008000e+03 1.155273e+01
1.009000e+03 8.726224e+00
1.010000e+03 1.253127e+01
1.011000e+03 1.305448e+01
1.012000e+03 1.346655e+01
1.013000e+03 1.393040e+01
1.014000e+03 2.360754e-01
1.015000e+03 1.630292e+00
1.016000e+03 1.176419e+01
1.017000e+03 2.285080e-01
1.018000e+03 1.194332e+01
1.019000e+03 1.835073e+00
1.020000e+03 1.748613e+01
1.021000e+03 2.824745e-01
1.022000e+03 6.197715e+00
1.023000e+03 3.062156e+00
1.024000e+03 9.160590e+00
1.025000e+03 1.442222e-01
1.026000e+03 1.138072e-01
1.027000e+03 8.567251e+00
1.028000e+03 3.866768e-02
1.029000e+03 4.025288e-01
1.030000e+03 2.161207e+01
1.031000e+03 2.337083e+01
1.032000e+03 2.269584e+01
1.033000e+03 1.508045e-01
1.034000e+03 2.741274e+01
1.035000e+03 7.493019e-02
1.036000e+03 7.204475e-01
1.037000e+03 3.246307e+01
1.038000e+03 3.407229e+01
1.039000e+03 3.382311e+01
1.040000e+03 3.646003e+01
1.041000e+03 3.470164e+01
1.042000e+03 3.918006e+01
1.043000e+03 2.859280e+01
1.044000e+03 4.217883e+01
1.045000e+03 4.298327e+01
1.046000e+03 4.494072e+01
1.047000e+03 4.408451e+01
1.048000e+03 1.600353e+01
1.049000e+03 4.144266e+01
1.050000e+03 4.603779e+01
1.051000e+03 4.306272e+01
1.052000e+03 5.537600e+01
1.053000e+03 5.731669e+01
1.054000e+03 1.004704e+00
1.055000e+03 5.600912e+01
1.056000e+03 6.384311e+01
1.057000e+03 6.374789e+01
1.058000e+03 5.732254e+01
1.059000e+03 4.498290e+01
1.060000e+03 2.345999e+01
1.061000e+03 7.426953e+01
1.062000e+03 5.538863e+01
1.063000e+03 2.385983e-01
1.064000e+03 3.976059e-01
1.065000e+03 1.836235e+00
1.066000e+03 1.254420e+01
1.067000e+03 4.005083e+01
1.068000e+03 9.567475e+01
1.069000e+03 1.483003e+01
1.070000e+03 9.731646e+01
1.071000e+03 1.056664e+02
1.072000e+03 1.092433e+02
1.073000e+03 4.615990e+00
1.074000e+03 1.107976e+02
1.075000e+03 1.105778e+02
1.076000e+03 1.237974e+02
1.077000e+03 1.128593e+00
1.078000e+03 9.922195e+01
1.079000e+03 1.254048e+02
1.080000e+03 1.295623e+02
1.081000e+03 1.448315e+02
1.082000e+03 1.477811e+02
1.083000e+03 1.494375e+02
1.084000e+03 1.567858e+02
1.085000e+03 3.114450e+01
1.086000e+03 1.708459e+02
1.087000e+03 9.510689e+01
1.088000e+03 1.786673e+02
1.089000e+03 1.863920e+02
1.090000e+03 1.594308e+02
1.091000e+03 1.670719e+02
1.092000e+03 1.941368e+02
1.093000e+03 2.088911e+02
1.094000e+03 2.115550e+02
1.095000e+03 2.226497e+02
1.096000e+03 4.700989e+01
1.097000e+03 2.208311e+02
1.098000e+03 2.334273e+02
1.099000e+03 2.315123e+02
1.100000e+03 5.045525e+01
1.101000e+03 1.067319e+02
1.102000e+03 3.650682e+02
1.103000e+03 9.125485e+02
1.104000e+03 5.250551e+02
1.105000e+03 2.783293e+02
1.106000e+03 1.237943e+03
1.107000e+03 6.545496e+01
1.108000e+03 1.386779e+03
1.109000e+03 5.632766e+02
1.110000e+03 5.546146e+02
1.111000e+03 5.480457e+02
1.112000e+03 1.404766e+03
1.113000e+03 1.433187e+03
1.114000e+03 2.317435e+02
1.115000e+03 8.391676e+02
1.116000e+03 6.875517e+02
1.117000e+03 2.540930e+02
1.118000e+03 6.941526e+02
1.119000e+03 1.659247e+03
1.120000e+03 7.315641e+02
1.121000e+03 1.716367e+03
1.122000e+03 1.345068e+01
1.123000e+03 5.997313e+02
1.124000e+03 1.852713e+03
1.125000e+03 1.316224e+03
1.126000e+03 1.931304e+03
1.127000e+03 1.879147e+03
1.128000e+03 9.586138e+02
1.129000e+03 1.947318e+03
1.130000e+03 1.851356e+03
1.131000e+03 2.000228e+03
1.132000e+03 1.456592e+01
1.133000e+03 1.418310e+03
1.134000e+03 2.046128e+03
1.135000e+03 3.328735e+00
1.136000e+03 1.916795e+03
1.137000e+03 2.307045e+03
1.138000e+03 2.261119e+03
1.139000e+03 2.373983e+03
1.140000e+03 7.718884e+01
1.141000e+03 2.473453e+03
1.142000e+03 2.517945e+03
1.143000e+03 2.383000e+03
1.144000e+03 2.541293e+03
1.145000e+03 3.805936e+02
1.146000e+03 2.690777e+03
1.147000e+03 2.687094e+03
1.148000e+03 1.668776e+03
1.149000e+03 2.779570e+03
1.150000e+03 2.820604e+03
1.151000e+03 2.896995e+03
1.152000e+03 2.968390e+03
1.153000e+03 1.421330e+03
1.154000e+03 2.924846e+03
1.155000e+03 3.080023e+03
1.156000e+03 1.954568e+03
1.157000e+03 3.123707e+03
1.158000e+03 2.121660e+02
1.159000e+03 3.144372e+03
1.160000e+03 3.271854e+03
1.161000e+03 3.424088e+03
1.162000e+03 1.153917e+03
1.163000e+03 3.226686e+03
1.164000e+03 6.093506e+00
1.165000e+03 3.649015e+03
1.166000e+03 3.709043e+03
1.167000e+03 3.783547e+03
1.168000e+03 3.903526e+03
1.169000e+03 3.842017e+03
1.170000e+03 4.006999e+03
1.171000e+03 4.130836e+03
1.172000e+03 4.136472e+03
1.173000e+03 4.321498e+03
1.174000e+03 1.741014e+03
1.175000e+03 9.086426e+00
1.176000e+03 1.802661e+01
1.177000e+03 4.684680e+03
1.178000e+03 4.744459e+03
1.179000e+03 4.852703e+03
1.180000e+03 4.178992e+03
1.181000e+03 5.007370e+03
1.182000e+03 5.125230e+03
1.183000e+03 5.196866e+03
1.184000e+03 5.275313e+03
1.185000e+03 5.398012e+03
1.186000e+03 4.198081e+03
1.187000e+03 5.535866e+03
1.188000e+03 5.387507e+03
1.189000e+03 2.391323e+02
1.190000e+03 2.915417e+03
1.191000e+03 5.796720e+03
1.192000e+03 5.835448e+03
1.193000e+03 1.846978e+02
1.194000e+03 3.288047e+02
1.195000e+03 5.481893e+03
1.196000e+03 5.948820e+03
1.197000e+03 1.196543e+04
1.198000e+03 9.787438e+03
1.199000e+03 1.123554e+04
1.200000e+03 8.848501e+03
1.201000e+03 1.016723e+04
1.202000e+03 9.758442e+03
1.203000e+03 1.433692e+04
1.204000e+03 1.101507e+04
1.205000e+03 1.098876e+04
1.206000e+03 1.033209e+04
1.207000e+03 2.474399e+02
1.208000e+03 6.038110e+03
1.209000e+03 3.770729e+03
1.210000e+03 3.913135e+01
1.211000e+03 1.374629e+03
1.212000e+03 5.967669e+02
1.213000e+03 2.251160e+02
1.214000e+03 6.622023e+01
1.215000e+03 3.462847e+01
1.216000e+03 9.686275e+01
1.217000e+03 4.636500e+01
1.218000e+03 1.731145e+02
1.219000e+03 5.249081e+02
1.220000e+03 1.294289e+03
1.221000e+03 2.598232e+03
1.222000e+03 4.704632e+03
1.223000e+03 7.213479e+03
1.224000e+03 9.625637e+03
1.225000e+03 1.081247e+04
1.226000e+03 1.747976e+04
1.227000e+03 2.094669e+04
1.228000e+03 2.386103e+04
1.229000e+03 2.903706e+04
1.230000e+03 1.673651e+04
1.231000e+03 2.893569e+04
1.232000e+03 3.995761e+04
1.233000e+03 4.377423e+04
1.234000e+03 2.226850e+04
1.235000e+03 5.032139e+04
1.236000e+03 4.887112e+04
1.237000e+03 5.634153e+04
1.238000e+03 5.917829e+04
1.239000e+03 6.117179e+04
1.240000e+03 1.515268e+04
1.241000e+03 6.662390e+04
1.242000e+03 6.688953e+04
1.243000e+03 7.359540e+04
1.244000e+03 6.256160e+04
1.245000e+03 7.180221e+04
1.246000e+03 8.376766e+04
1.247000e+03 8.536928e+04
1.248000e+03 4.261895e+04
1.249000e+03 7.810637e+04
1.250000e+03 7.789461e+04
1.251000e+03 9.714362e+04
1.252000e+03 9.524270e+04
1.253000e+03 1.018213e+05
1.254000e+03 1.025466e+05
1.255000e+03 8.067475e+04
1.256000e+03 1.062542e+05
1.257000e+03 9.206613e+04
1.258000e+03 1.054872e+05
1.259000e+03 1.144726e+05
1.260000e+03 1.116756e+05
1.261000e+03 7.625645e+02
1.262000e+03 7.644192e+04
1.263000e+03 1.109896e+05
1.264000e+03 1.221660e+05
1.265000e+03 1.318750e+03
1.266000e+03 1.317085e+05
1.267000e+03 1.329446e+05
