# wavelength_A flux
5.000000e+02 5.690011e-06
5.010000e+02 6.384940e-06
5.020000e+02 7.161435e-06
5.030000e+02 8.028716e-06
5.040000e+02 8.996781e-06
5.050000e+02 1.037498e-05
5.060000e+02 1.161310e-05
5.070000e+02 1.299296e-05
5.080000e+02 1.453009e-05
5.090000e+02 1.624246e-05
5.100000e+02 1.814753e-05
5.110000e+02 2.026684e-05
5.120000e+02 2.262348e-05
5.130000e+02 2.524287e-05
5.140000e+02 2.815305e-05
5.150000e+02 3.138454e-05
5.160000e+02 3.497239e-05
5.170000e+02 3.895062e-05
5.180000e+02 4.336720e-05
5.190000e+02 4.826158e-05
5.200000e+02 5.368534e-05
5.210000e+02 5.969145e-05
5.220000e+02 6.633484e-05
5.230000e+02 7.370524e-05
5.240000e+02 8.184960e-05
5.250000e+02 9.085818e-05
5.260000e+02 1.008150e-04
5.270000e+02 1.118169e-04
5.280000e+02 1.239688e-04
5.290000e+02 1.373496e-04
5.300000e+02 1.521924e-04
5.310000e+02 1.685276e-04
5.320000e+02 1.865423e-04
5.330000e+02 2.063996e-04
5.340000e+02 2.282806e-04
5.350000e+02 2.523818e-04
5.360000e+02 2.789163e-04
5.370000e+02 3.034461e-04
5.380000e+02 3.402427e-04
5.390000e+02 3.755928e-04
5.400000e+02 4.144480e-04
5.410000e+02 4.571086e-04
5.420000e+02 5.040506e-04
5.430000e+02 5.555695e-04
5.440000e+02 6.121186e-04
5.450000e+02 6.741730e-04
5.460000e+02 7.420919e-04
5.470000e+02 8.168884e-04
5.480000e+02 8.987081e-04
5.490000e+02 9.883697e-04
5.500000e+02 1.086581e-03
5.510000e+02 1.194101e-03
5.520000e+02 1.311776e-03
5.530000e+02 1.440580e-03
5.540000e+02 1.581472e-03
5.550000e+02 1.735533e-03
5.560000e+02 1.903938e-03
5.570000e+02 2.087957e-03
5.580000e+02 2.288971e-03
5.590000e+02 2.508474e-03
5.600000e+02 2.748087e-03
5.610000e+02 3.009564e-03
5.620000e+02 3.294806e-03
5.630000e+02 3.605870e-03
5.640000e+02 3.944980e-03
5.650000e+02 4.314542e-03
5.660000e+02 4.717170e-03
5.670000e+02 5.155505e-03
5.680000e+02 5.632909e-03
5.690000e+02 6.152516e-03
5.700000e+02 6.717863e-03
5.710000e+02 7.332773e-03
5.720000e+02 8.001443e-03
5.730000e+02 8.728309e-03
5.740000e+02 9.518179e-03
5.750000e+02 1.037645e-02
5.760000e+02 1.130696e-02
5.770000e+02 1.232009e-02
5.780000e+02 1.341819e-02
5.790000e+02 1.460964e-02
5.800000e+02 1.590199e-02
5.810000e+02 1.730245e-02
5.820000e+02 1.882148e-02
5.830000e+02 2.046743e-02
5.840000e+02 2.224335e-02
5.850000e+02 2.418105e-02
5.860000e+02 2.627454e-02
5.870000e+02 2.853883e-02
5.880000e+02 3.098899e-02
5.890000e+02 3.363906e-02
5.900000e+02 3.650615e-02
5.910000e+02 3.960552e-02
5.920000e+02 4.295563e-02
5.930000e+02 4.657573e-02
5.940000e+02 5.048468e-02
5.950000e+02 5.470518e-02
5.960000e+02 5.926808e-02
5.970000e+02 6.419006e-02
5.980000e+02 6.950133e-02
5.990000e+02 7.523111e-02
6.000000e+02 8.141069e-02
6.010000e+02 8.807152e-02
6.020000e+02 9.525560e-02
6.030000e+02 1.029952e-01
6.040000e+02 1.113333e-01
6.050000e+02 1.203141e-01
6.060000e+02 1.299838e-01
6.070000e+02 1.403916e-01
6.080000e+02 1.515946e-01
6.090000e+02 1.636448e-01
6.100000e+02 1.766099e-01
6.110000e+02 1.905524e-01
6.120000e+02 2.055419e-01
6.130000e+02 2.216529e-01
6.140000e+02 2.389649e-01
6.150000e+02 2.575631e-01
6.160000e+02 2.775376e-01
6.170000e+02 2.989851e-01
6.180000e+02 3.220084e-01
6.190000e+02 3.467170e-01
6.200000e+02 3.732281e-01
6.210000e+02 4.016661e-01
6.220000e+02 4.321635e-01
6.230000e+02 4.648615e-01
6.240000e+02 4.999106e-01
6.250000e+02 5.374706e-01
6.260000e+02 5.777119e-01
6.270000e+02 6.208156e-01
6.280000e+02 6.669746e-01
6.290000e+02 7.163935e-01
6.300000e+02 7.692903e-01
6.310000e+02 8.258891e-01
6.320000e+02 8.864571e-01
6.330000e+02 9.512276e-01
6.340000e+02 1.020500e+00
6.350000e+02 1.094536e+00
6.360000e+02 1.171577e+00
6.370000e+02 1.258298e+00
6.380000e+02 1.348683e+00
6.390000e+02 1.445230e+00
6.400000e+02 1.548336e+00
6.410000e+02 1.658422e+00
6.420000e+02 1.775934e+00
6.430000e+02 1.901347e+00
6.440000e+02 2.035161e+00
6.450000e+02 2.177905e+00
6.460000e+02 2.330150e+00
6.470000e+02 2.492481e+00
6.480000e+02 2.665544e+00
6.490000e+02 2.850005e+00
6.500000e+02 3.046564e+00
6.510000e+02 3.255976e+00
6.520000e+02 3.479033e+00
6.530000e+02 3.716576e+00
6.540000e+02 3.969491e+00
6.550000e+02 4.238718e+00
6.560000e+02 4.525249e+00
6.570000e+02 4.830010e+00
6.580000e+02 5.154457e+00
6.590000e+02 5.499306e+00
6.600000e+02 5.866146e+00
6.610000e+02 6.256180e+00
6.620000e+02 6.670769e+00
6.630000e+02 7.111375e+00
6.640000e+02 7.579548e+00
6.650000e+02 8.076887e+00
6.660000e+02 8.605157e+00
6.670000e+02 9.166121e+00
6.680000e+02 9.761705e+00
6.690000e+02 1.039392e+01
6.700000e+02 1.106487e+01
6.710000e+02 1.177685e+01
6.720000e+02 1.253100e+01
6.730000e+02 1.333331e+01
6.740000e+02 1.418289e+01
6.750000e+02 1.508371e+01
6.760000e+02 1.603866e+01
6.770000e+02 1.705079e+01
6.780000e+02 1.812334e+01
6.790000e+02 1.925969e+01
6.800000e+02 2.046342e+01
6.810000e+02 2.173773e+01
6.820000e+02 2.308766e+01
6.830000e+02 2.451685e+01
6.840000e+02 2.602967e+01
6.850000e+02 2.763070e+01
6.860000e+02 2.932458e+01
6.870000e+02 3.111654e+01
6.880000e+02 3.301265e+01
6.890000e+02 3.501748e+01
6.900000e+02 3.713750e+01
6.910000e+02 3.937876e+01
6.920000e+02 4.174774e+01
6.930000e+02 4.425133e+01
6.940000e+02 4.689672e+01
6.950000e+02 4.969145e+01
6.960000e+02 5.264346e+01
6.970000e+02 5.575987e+01
6.980000e+02 5.905294e+01
6.990000e+02 6.252829e+01
7.000000e+02 6.619669e+01
7.010000e+02 7.006824e+01
7.020000e+02 7.415347e+01
7.030000e+02 7.846136e+01
7.040000e+02 8.300766e+01
7.050000e+02 8.780249e+01
7.060000e+02 9.285860e+01
7.070000e+02 9.818944e+01
7.080000e+02 1.038089e+02
7.090000e+02 1.097315e+02
7.100000e+02 1.159732e+02
7.110000e+02 1.225494e+02
7.120000e+02 1.294772e+02
7.130000e+02 1.367743e+02
7.140000e+02 1.444591e+02
7.150000e+02 1.525509e+02
7.160000e+02 1.610699e+02
7.170000e+02 1.700366e+02
7.180000e+02 1.794720e+02
7.190000e+02 1.894067e+02
7.200000e+02 1.998560e+02
7.210000e+02 2.108485e+02
7.220000e+02 2.224104e+02
7.230000e+02 2.345628e+02
7.240000e+02 2.473477e+02
7.250000e+02 2.607890e+02
7.260000e+02 2.749181e+02
7.270000e+02 2.897679e+02
7.280000e+02 3.053730e+02
7.290000e+02 3.217693e+02
7.300000e+02 3.389935e+02
7.310000e+02 3.570833e+02
7.320000e+02 3.760848e+02
7.330000e+02 3.960378e+02
7.340000e+02 4.169870e+02
7.350000e+02 4.389788e+02
7.360000e+02 4.620609e+02
7.370000e+02 4.862864e+02
7.380000e+02 5.117058e+02
7.390000e+02 5.383750e+02
7.400000e+02 5.663499e+02
7.410000e+02 5.956947e+02
7.420000e+02 6.264662e+02
7.430000e+02 6.587154e+02
7.440000e+02 6.925444e+02
7.450000e+02 7.280067e+02
7.460000e+02 7.651755e+02
7.470000e+02 8.041280e+02
7.480000e+02 8.449439e+02
7.490000e+02 8.877065e+02
7.500000e+02 9.325024e+02
7.510000e+02 9.794222e+02
7.520000e+02 1.028560e+03
7.530000e+02 1.080013e+03
7.540000e+02 1.133883e+03
7.550000e+02 1.190276e+03
7.560000e+02 1.249304e+03
7.570000e+02 1.311063e+03
7.580000e+02 1.375724e+03
7.590000e+02 1.443354e+03
7.600000e+02 1.514117e+03
7.610000e+02 1.588082e+03
7.620000e+02 1.665490e+03
7.630000e+02 1.746437e+03
7.640000e+02 1.831076e+03
7.650000e+02 1.919562e+03
7.660000e+02 2.012062e+03
7.670000e+02 2.108741e+03
7.680000e+02 2.209765e+03
7.690000e+02 2.315334e+03
7.700000e+02 2.425641e+03
7.710000e+02 2.540875e+03
7.720000e+02 2.661243e+03
7.730000e+02 2.786925e+03
7.740000e+02 2.918203e+03
7.750000e+02 3.055277e+03
7.760000e+02 3.198193e+03
7.770000e+02 3.347777e+03
7.780000e+02 3.503707e+03
7.790000e+02 3.666322e+03
7.800000e+02 3.836132e+03
7.810000e+02 4.013312e+03
7.820000e+02 4.198156e+03
7.830000e+02 4.390971e+03
7.840000e+02 4.592085e+03
7.850000e+02 4.801820e+03
7.860000e+02 5.020524e+03
7.870000e+02 5.248574e+03
7.880000e+02 5.486302e+03
7.890000e+02 5.734107e+03
7.900000e+02 5.992379e+03
7.910000e+02 6.261561e+03
7.920000e+02 6.542046e+03
7.930000e+02 6.834287e+03
7.940000e+02 7.138741e+03
7.950000e+02 7.455884e+03
7.960000e+02 7.786206e+03
7.970000e+02 8.130077e+03
7.980000e+02 8.488296e+03
7.990000e+02 8.861274e+03
8.000000e+02 9.249577e+03
8.010000e+02 9.653777e+03
8.020000e+02 1.007451e+04
8.030000e+02 1.051237e+04
8.040000e+02 1.096803e+04
8.050000e+02 1.144213e+04
8.060000e+02 1.193539e+04
8.070000e+02 1.244852e+04
8.080000e+02 1.298226e+04
8.090000e+02 1.353738e+04
8.100000e+02 1.411467e+04
8.110000e+02 1.471477e+04
8.120000e+02 1.533887e+04
8.130000e+02 1.598774e+04
8.140000e+02 1.666221e+04
8.150000e+02 1.736320e+04
8.160000e+02 1.809181e+04
8.170000e+02 1.884890e+04
8.180000e+02 1.963559e+04
8.190000e+02 2.045291e+04
8.200000e+02 2.130198e+04
8.210000e+02 2.218394e+04
8.220000e+02 2.309996e+04
8.230000e+02 2.405126e+04
8.240000e+02 2.503913e+04
8.250000e+02 2.606483e+04
8.260000e+02 2.712972e+04
8.270000e+02 2.823516e+04
8.280000e+02 2.938262e+04
8.290000e+02 3.057355e+04
8.300000e+02 3.180949e+04
8.310000e+02 3.309198e+04
8.320000e+02 3.442268e+04
8.330000e+02 3.580325e+04
8.340000e+02 3.723542e+04
8.350000e+02 3.871624e+04
8.360000e+02 4.026144e+04
8.370000e+02 4.185959e+04
8.380000e+02 4.351647e+04
8.390000e+02 4.523461e+04
8.400000e+02 4.701582e+04
8.410000e+02 4.886228e+04
8.420000e+02 5.077496e+04
8.430000e+02 5.276024e+04
8.440000e+02 5.481625e+04
8.450000e+02 5.694684e+04
8.460000e+02 5.915371e+04
8.470000e+02 6.144101e+04
8.480000e+02 6.381060e+04
8.490000e+02 6.626522e+04
8.500000e+02 6.880769e+04
8.510000e+02 7.144090e+04
8.520000e+02 7.416772e+04
8.530000e+02 7.699152e+04
8.540000e+02 7.991488e+04
8.550000e+02 8.294184e+04
8.560000e+02 8.607541e+04
8.570000e+02 8.931904e+04
8.580000e+02 9.267626e+04
8.590000e+02 9.615084e+04
8.600000e+02 9.974646e+04
8.610000e+02 1.034670e+05
8.620000e+02 1.073165e+05
8.630000e+02 1.112990e+05
8.640000e+02 1.154190e+05
8.650000e+02 1.196804e+05
8.660000e+02 1.240883e+05
8.670000e+02 1.286468e+05
8.680000e+02 1.333607e+05
8.690000e+02 1.382351e+05
8.700000e+02 1.432744e+05
8.710000e+02 1.484852e+05
8.720000e+02 1.538715e+05
8.730000e+02 1.594390e+05
8.740000e+02 1.651936e+05
8.750000e+02 1.711409e+05
8.760000e+02 1.772868e+05
8.770000e+02 1.836371e+05
8.780000e+02 1.901993e+05
8.790000e+02 1.969758e+05
8.800000e+02 2.039791e+05
8.810000e+02 2.112133e+05
8.820000e+02 2.186853e+05
8.830000e+02 2.264026e+05
8.840000e+02 2.343722e+05
8.850000e+02 2.426019e+05
8.860000e+02 2.510994e+05
8.870000e+02 2.598729e+05
8.880000e+02 2.689304e+05
8.890000e+02 2.782804e+05
8.900000e+02 2.879316e+05
8.910000e+02 2.978929e+05
8.920000e+02 3.075961e+05
8.930000e+02 3.187825e+05
8.940000e+02 3.297298e+05
8.950000e+02 3.410250e+05
8.960000e+02 3.526791e+05
8.970000e+02 3.647016e+05
8.980000e+02 3.771034e+05
8.990000e+02 3.898956e+05
9.000000e+02 4.030883e+05
9.010000e+02 4.166953e+05
9.020000e+02 4.307273e+05
9.030000e+02 4.451964e+05
9.040000e+02 4.601082e+05
9.050000e+02 4.754964e+05
9.060000e+02 4.913537e+05
9.070000e+02 5.076911e+05
9.080000e+02 5.245485e+05
9.090000e+02 5.419144e+05
9.100000e+02 5.598036e+05
9.110000e+02 5.782499e+05
9.120000e+02 5.972717e+05
9.130000e+02 6.067121e+05
9.140000e+02 6.467457e+05
9.150000e+02 2.253574e+06
9.160000e+02 1.062503e+07
9.170000e+02 1.163298e+07
9.180000e+02 1.004553e+07
9.190000e+02 1.484880e+07
9.200000e+02 1.605421e+07
9.210000e+02 7.630264e+05
9.220000e+02 1.709388e+07
9.230000e+02 1.245696e+07
9.240000e+02 1.424941e+07
9.250000e+02 1.815415e+07
9.260000e+02 1.599602e+07
9.270000e+02 1.928429e+07
9.280000e+02 1.990334e+07
9.290000e+02 1.623570e+07
9.300000e+02 2.046684e+07
9.310000e+02 1.857843e+07
9.320000e+02 2.198834e+07
9.330000e+02 2.253226e+07
9.340000e+02 2.312672e+07
9.350000e+02 6.944646e+06
9.360000e+02 2.413817e+07
9.370000e+02 4.669763e+06
9.380000e+02 1.468474e+07
9.390000e+02 2.596500e+07
9.400000e+02 2.667869e+07
9.410000e+02 1.586851e+07
9.420000e+02 2.798117e+07
9.430000e+02 2.867182e+07
9.440000e+02 1.702401e+07
9.450000e+02 3.003404e+07
9.460000e+02 3.070034e+07
9.470000e+02 2.215955e+07
9.480000e+02 3.062715e+07
9.490000e+02 3.217338e+07
9.500000e+02 6.792113e+06
9.510000e+02 3.220506e+07
9.520000e+02 3.530175e+07
9.530000e+02 3.588322e+07
9.540000e+02 2.929915e+07
9.550000e+02 3.789209e+07
9.560000e+02 3.712461e+07
9.570000e+02 3.092217e+07
9.580000e+02 4.010568e+07
9.590000e+02 4.170905e+07
9.600000e+02 8.676572e+06
9.610000e+02 4.371565e+07
9.620000e+02 4.455708e+07
9.630000e+02 4.574372e+07
9.640000e+02 3.118076e+06
9.650000e+02 4.245399e+07
9.660000e+02 4.891712e+07
9.670000e+02 4.979778e+07
9.680000e+02 5.051743e+07
9.690000e+02 5.181877e+07
9.700000e+02 5.320871e+07
9.710000e+02 5.374776e+07
9.720000e+02 4.818045e+07
9.730000e+02 4.732114e+07
9.740000e+02 5.713906e+07
9.750000e+02 5.942630e+07
9.760000e+02 6.100362e+07
9.770000e+02 6.239208e+07
9.780000e+02 6.367583e+07
9.790000e+02 6.528862e+07
9.800000e+02 6.672458e+07
9.810000e+02 6.822742e+07
9.820000e+02 6.909094e+07
9.830000e+02 7.121430e+07
9.840000e+02 2.124119e+07
9.850000e+02 7.438806e+07
9.860000e+02 7.599268e+07
9.870000e+02 7.761300e+07
9.880000e+02 7.867737e+07
9.890000e+02 5.263793e+07
9.900000e+02 7.593446e+06
9.910000e+02 8.360848e+07
9.920000e+02 7.755687e+07
9.930000e+02 8.238371e+07
9.940000e+02 1.199660e+07
9.950000e+02 1.680533e+07
9.960000e+02 2.285820e+07
9.970000e+02 1.827126e+07
9.980000e+02 9.770323e+07
9.990000e+02 9.750935e+07
1.000000e+03 1.023177e+08
1.001000e+03 1.044907e+08
1.002000e+03 1.066129e+08
1.003000e+03 9.413632e+07
1.004000e+03 1.110019e+08
1.005000e+03 9.788014e+07
1.006000e+03 1.158644e+08
1.007000e+03 1.182363e+08
1.008000e+03 1.205514e+08
1.009000e+03 1.175907e+08
1.010000e+03 1.256994e+08
1.011000e+03 1.282683e+08
1.012000e+03 1.308343e+08
1.013000e+03 1.335141e+08
1.014000e+03 1.347280e+08
1.015000e+03 1.354424e+08
1.016000e+03 1.413154e+08
1.017000e+03 1.431361e+08
1.018000e+03 1.470813e+08
1.019000e+03 1.495001e+08
1.020000e+03 1.524897e+08
1.021000e+03 1.157048e+08
1.022000e+03 1.500498e+08
1.023000e+03 1.562654e+08
1.024000e+03 1.489520e+08
1.025000e+03 1.020756e+08
1.026000e+03 3.980519e+07
1.027000e+03 1.458802e+08
1.028000e+03 4.775462e+07
1.029000e+03 1.777894e+08
1.030000e+03 1.818327e+08
1.031000e+03 1.899250e+08
1.032000e+03 1.925775e+08
1.033000e+03 1.055426e+08
1.034000e+03 2.029852e+08
1.035000e+03 4.194656e+07
1.036000e+03 2.050435e+08
1.037000e+03 2.327240e+07
1.038000e+03 2.199318e+08
1.039000e+03 2.218837e+08
1.040000e+03 2.288430e+08
1.041000e+03 2.324067e+08
1.042000e+03 2.304434e+08
1.043000e+03 2.383346e+08
1.044000e+03 2.462848e+08
1.045000e+03 2.515796e+08
1.046000e+03 2.570224e+08
1.047000e+03 2.617880e+08
1.048000e+03 2.638122e+08
1.049000e+03 2.669660e+08
1.050000e+03 2.774110e+08
1.051000e+03 2.826461e+08
1.052000e+03 2.881702e+08
1.053000e+03 2.868620e+08
1.054000e+03 2.959131e+08
1.055000e+03 3.046683e+08
1.056000e+03 3.106752e+08
1.057000e+03 3.162769e+08
1.058000e+03 3.221894e+08
1.059000e+03 3.279072e+08
1.060000e+03 3.339505e+08
1.061000e+03 3.408720e+08
1.062000e+03 3.471399e+08
1.063000e+03 1.961165e+08
1.064000e+03 6.801370e+07
1.065000e+03 3.687891e+08
1.066000e+03 3.597517e+08
1.067000e+03 3.643236e+08
1.068000e+03 3.928002e+08
1.069000e+03 3.967459e+08
1.070000e+03 3.989445e+08
1.071000e+03 4.152276e+08
1.072000e+03 4.227368e+08
1.073000e+03 4.280920e+08
1.074000e+03 4.381074e+08
1.075000e+03 4.457340e+08
1.076000e+03 4.543441e+08
1.077000e+03 4.614026e+08
1.078000e+03 4.706073e+08
1.079000e+03 4.770154e+08
1.080000e+03 4.873562e+08
1.081000e+03 4.966670e+08
1.082000e+03 5.052462e+08
1.083000e+03 5.141689e+08
1.084000e+03 4.939990e+08
1.085000e+03 4.064871e+08
1.086000e+03 5.426341e+08
1.087000e+03 5.510796e+08
1.088000e+03 5.596356e+08
1.089000e+03 5.715711e+08
1.090000e+03 5.805869e+08
1.091000e+03 5.915142e+08
1.092000e+03 6.022900e+08
1.093000e+03 6.122152e+08
1.094000e+03 6.235529e+08
1.095000e+03 6.333675e+08
1.096000e+03 6.451958e+08
1.097000e+03 6.507577e+08
1.098000e+03 6.577741e+08
1.099000e+03 6.784486e+08
1.100000e+03 6.789550e+08
1.101000e+03 6.379346e+08
1.102000e+03 1.469494e+09
1.103000e+03 4.819634e+09
1.104000e+03 1.755446e+09
1.105000e+03 6.904402e+08
1.106000e+03 1.122528e+10
1.107000e+03 8.983541e+09
1.108000e+03 1.158473e+10
1.109000e+03 6.427045e+09
1.110000e+03 1.560340e+09
1.111000e+03 1.592333e+09
1.112000e+03 1.057028e+10
1.113000e+03 1.240575e+10
1.114000e+03 5.293706e+08
1.115000e+03 1.185233e+10
1.116000e+03 1.221898e+10
1.117000e+03 5.522371e+08
1.118000e+03 1.006193e+10
1.119000e+03 1.313905e+10
1.120000e+03 1.298288e+10
1.121000e+03 9.934534e+09
1.122000e+03 1.557074e+08
1.123000e+03 1.412972e+09
1.124000e+03 1.394403e+10
1.125000e+03 4.975689e+09
1.126000e+03 1.441038e+10
1.127000e+03 1.385782e+10
1.128000e+03 6.289221e+09
1.129000e+03 1.455312e+10
1.130000e+03 1.136635e+10
1.131000e+03 1.540853e+10
1.132000e+03 4.603310e+08
1.133000e+03 1.320957e+10
1.134000e+03 1.522314e+10
1.135000e+03 2.758175e+08
1.136000e+03 1.569673e+10
1.137000e+03 1.653334e+10
1.138000e+03 1.671430e+10
1.139000e+03 1.654036e+10
1.140000e+03 3.008850e+08
1.141000e+03 1.745308e+10
1.142000e+03 1.631086e+10
1.143000e+03 1.778072e+10
1.144000e+03 1.809236e+10
1.145000e+03 1.343235e+10
1.146000e+03 1.848209e+10
1.147000e+03 1.835125e+10
1.148000e+03 1.805740e+10
1.149000e+03 1.915747e+10
1.150000e+03 1.830095e+10
1.151000e+03 1.945492e+10
1.152000e+03 1.959986e+10
1.153000e+03 4.079493e+09
1.154000e+03 7.198904e+08
1.155000e+03 1.543119e+10
1.156000e+03 5.714863e+09
1.157000e+03 2.095759e+10
1.158000e+03 4.837716e+08
1.159000e+03 1.784823e+10
1.160000e+03 2.098431e+10
1.161000e+03 2.213021e+10
1.162000e+03 2.801132e+09
1.163000e+03 2.161951e+10
1.164000e+03 8.404111e+08
1.165000e+03 2.314592e+10
1.166000e+03 2.293028e+10
1.167000e+03 2.159616e+10
1.168000e+03 2.400656e+10
1.169000e+03 2.342714e+10
1.170000e+03 2.457671e+10
1.171000e+03 2.484763e+10
1.172000e+03 2.358366e+10
1.173000e+03 2.535300e+10
1.174000e+03 2.386479e+10
1.175000e+03 8.765317e+08
1.176000e+03 6.402478e+08
1.177000e+03 2.609897e+10
1.178000e+03 2.339047e+10
1.179000e+03 2.691711e+10
1.180000e+03 2.002800e+10
1.181000e+03 2.676323e+10
1.182000e+03 2.768269e+10
1.183000e+03 2.784741e+10
1.184000e+03 2.804894e+10
1.185000e+03 2.695091e+10
1.186000e+03 2.817105e+10
1.187000e+03 2.850308e+10
1.188000e+03 2.735763e+10
1.189000e+03 6.946447e+08
1.190000e+03 4.703775e+09
1.191000e+03 2.785437e+10
1.192000e+03 2.797132e+10
1.193000e+03 5.839135e+08
1.194000e+03 7.950684e+08
1.195000e+03 1.458567e+10
1.196000e+03 2.737614e+10
1.197000e+03 3.079737e+10
1.198000e+03 3.094434e+10
1.199000e+03 2.994682e+10
1.200000e+03 2.625836e+10
1.201000e+03 2.743534e+10
1.202000e+03 2.681790e+10
1.203000e+03 2.754569e+10
1.204000e+03 2.468515e+10
1.205000e+03 2.294396e+10
1.206000e+03 1.819097e+10
1.207000e+03 8.289626e+09
1.208000e+03 1.511009e+10
1.209000e+03 1.139681e+10
1.210000e+03 1.251008e+09
1.211000e+03 6.821410e+09
1.212000e+03 4.524330e+09
1.213000e+03 2.790639e+09
1.214000e+03 1.607865e+09
1.215000e+03 9.830182e+08
1.216000e+03 8.778872e+08
1.217000e+03 1.397700e+09
1.218000e+03 2.497520e+09
1.219000e+03 4.317286e+09
1.220000e+03 6.835115e+09
1.221000e+03 9.946085e+09
1.222000e+03 1.349873e+10
1.223000e+03 1.737121e+10
1.224000e+03 2.144848e+10
1.225000e+03 2.551989e+10
1.226000e+03 2.959058e+10
1.227000e+03 3.375591e+10
1.228000e+03 3.816803e+10
1.229000e+03 4.210921e+10
1.230000e+03 4.604867e+10
1.231000e+03 4.993261e+10
1.232000e+03 5.397459e+10
1.233000e+03 5.759230e+10
1.234000e+03 3.645519e+10
1.235000e+03 6.422273e+10
1.236000e+03 6.700594e+10
1.237000e+03 7.053772e+10
1.238000e+03 7.347673e+10
1.239000e+03 7.638201e+10
1.240000e+03 7.142600e+10
1.241000e+03 1.317160e+11
1.242000e+03 6.829676e+10
1.243000e+03 1.054974e+11
1.244000e+03 4.124103e+10
1.245000e+03 6.306605e+10
1.246000e+03 2.103274e+11
1.247000e+03 2.254667e+11
1.248000e+03 4.469790e+10
1.249000e+03 5.729676e+10
1.250000e+03 2.639837e+11
1.251000e+03 2.727255e+11
1.252000e+03 2.698955e+11
1.253000e+03 3.014847e+11
1.254000e+03 3.047694e+11
1.255000e+03 3.173201e+11
1.256000e+03 3.204432e+11
1.257000e+03 3.431148e+11
1.258000e+03 3.339276e+11
1.259000e+03 3.261218e+11
1.260000e+03 2.621540e+11
1.261000e+03 1.940021e+09
1.262000e+03 2.608395e+10
1.263000e+03 3.829923e+11
1.264000e+03 3.241511e+11
1.265000e+03 1.825939e+09
1.266000e+03 4.001493e+11
1.267000e+03 4.264991e+11
