# wavelength_A flux
5.000000e+02 4.598611e-04
5.010000e+02 5.117662e-04
5.020000e+02 5.692817e-04
5.030000e+02 6.329818e-04
5.040000e+02 7.035033e-04
5.050000e+02 5.747232e-04
5.060000e+02 6.383991e-04
5.070000e+02 7.088222e-04
5.080000e+02 7.866795e-04
5.090000e+02 8.744689e-04
5.100000e+02 9.671217e-04
5.110000e+02 1.071989e-03
5.120000e+02 1.187730e-03
5.130000e+02 1.315423e-03
5.140000e+02 1.456170e-03
5.150000e+02 1.611539e-03
5.160000e+02 1.782438e-03
5.170000e+02 1.971822e-03
5.180000e+02 2.178268e-03
5.190000e+02 2.406510e-03
5.200000e+02 2.657686e-03
5.210000e+02 2.934011e-03
5.220000e+02 3.242288e-03
5.230000e+02 3.571564e-03
5.240000e+02 3.938602e-03
5.250000e+02 4.340164e-03
5.260000e+02 4.781891e-03
5.270000e+02 5.266284e-03
5.280000e+02 5.797680e-03
5.290000e+02 6.398872e-03
5.300000e+02 7.019268e-03
5.310000e+02 7.719032e-03
5.320000e+02 8.484980e-03
5.330000e+02 9.324007e-03
5.340000e+02 1.024229e-02
5.350000e+02 1.124697e-02
5.360000e+02 1.234657e-02
5.370000e+02 1.632211e-02
5.380000e+02 1.486322e-02
5.390000e+02 1.629286e-02
5.400000e+02 1.785668e-02
5.410000e+02 1.958453e-02
5.420000e+02 2.143357e-02
5.430000e+02 2.346484e-02
5.440000e+02 2.568283e-02
5.450000e+02 2.810165e-02
5.460000e+02 3.080693e-02
5.470000e+02 3.360965e-02
5.480000e+02 3.674252e-02
5.490000e+02 4.017857e-02
5.500000e+02 4.388795e-02
5.510000e+02 4.792139e-02
5.520000e+02 5.230931e-02
5.530000e+02 5.708106e-02
5.540000e+02 6.226781e-02
5.550000e+02 6.790396e-02
5.560000e+02 7.402605e-02
5.570000e+02 8.067369e-02
5.580000e+02 8.789062e-02
5.590000e+02 9.572233e-02
5.600000e+02 1.042152e-01
5.610000e+02 1.134293e-01
5.620000e+02 1.234125e-01
5.630000e+02 1.342398e-01
5.640000e+02 1.459717e-01
5.650000e+02 1.586788e-01
5.660000e+02 1.724382e-01
5.670000e+02 1.873347e-01
5.680000e+02 2.034517e-01
5.690000e+02 2.208929e-01
5.700000e+02 2.397608e-01
5.710000e+02 2.601517e-01
5.720000e+02 2.822123e-01
5.730000e+02 3.060182e-01
5.740000e+02 3.317568e-01
5.750000e+02 3.594497e-01
5.760000e+02 3.900734e-01
5.770000e+02 4.218372e-01
5.780000e+02 4.567839e-01
5.790000e+02 4.944825e-01
5.800000e+02 5.351440e-01
5.810000e+02 5.789877e-01
5.820000e+02 6.262709e-01
5.830000e+02 6.773183e-01
5.840000e+02 7.360475e-01
5.850000e+02 7.921158e-01
5.860000e+02 8.547541e-01
5.870000e+02 9.231236e-01
5.880000e+02 9.966969e-01
5.890000e+02 1.076050e+00
5.900000e+02 1.161174e+00
5.910000e+02 1.252753e+00
5.920000e+02 1.351233e+00
5.930000e+02 1.457078e+00
5.940000e+02 1.570814e+00
5.950000e+02 1.694497e+00
5.960000e+02 1.824017e+00
5.970000e+02 1.964818e+00
5.980000e+02 2.115937e+00
5.990000e+02 2.278093e+00
6.000000e+02 2.452032e+00
6.010000e+02 2.638664e+00
6.020000e+02 2.838597e+00
6.030000e+02 3.052995e+00
6.040000e+02 3.282627e+00
6.050000e+02 3.528737e+00
6.060000e+02 3.792728e+00
6.070000e+02 4.074748e+00
6.080000e+02 4.376995e+00
6.090000e+02 4.700498e+00
6.100000e+02 5.046702e+00
6.110000e+02 5.417068e+00
6.120000e+02 5.813220e+00
6.130000e+02 6.236829e+00
6.140000e+02 6.689491e+00
6.150000e+02 7.173329e+00
6.160000e+02 7.690530e+00
6.170000e+02 8.243056e+00
6.180000e+02 8.833361e+00
6.190000e+02 9.463521e+00
6.200000e+02 1.013625e+01
6.210000e+02 1.085426e+01
6.220000e+02 1.162045e+01
6.230000e+02 1.243729e+01
6.240000e+02 1.330909e+01
6.250000e+02 1.423876e+01
6.260000e+02 1.522991e+01
6.270000e+02 1.628633e+01
6.280000e+02 1.741212e+01
6.290000e+02 1.861183e+01
6.300000e+02 1.988933e+01
6.310000e+02 2.125007e+01
6.320000e+02 2.269780e+01
6.330000e+02 2.423992e+01
6.340000e+02 2.588118e+01
6.350000e+02 2.762799e+01
6.360000e+02 3.058327e+01
6.370000e+02 3.146127e+01
6.380000e+02 3.356246e+01
6.390000e+02 3.579638e+01
6.400000e+02 3.817093e+01
6.410000e+02 4.069256e+01
6.420000e+02 4.337395e+01
6.430000e+02 4.622117e+01
6.440000e+02 4.924596e+01
6.450000e+02 5.246026e+01
6.460000e+02 5.586714e+01
6.470000e+02 5.949231e+01
6.480000e+02 6.332851e+01
6.490000e+02 6.740117e+01
6.500000e+02 7.172052e+01
6.510000e+02 7.630439e+01
6.520000e+02 8.116667e+01
6.530000e+02 8.631969e+01
6.540000e+02 9.178102e+01
6.550000e+02 9.756910e+01
6.560000e+02 1.037018e+02
6.570000e+02 1.102277e+02
6.580000e+02 1.170766e+02
6.590000e+02 1.243642e+02
6.600000e+02 1.320787e+02
6.610000e+02 1.402437e+02
6.620000e+02 1.488855e+02
6.630000e+02 1.580324e+02
6.640000e+02 1.677023e+02
6.650000e+02 1.779379e+02
6.660000e+02 1.887556e+02
6.670000e+02 2.001975e+02
6.680000e+02 2.122928e+02
6.690000e+02 2.250774e+02
6.700000e+02 2.385932e+02
6.710000e+02 2.529002e+02
6.720000e+02 2.948657e+02
6.730000e+02 2.838730e+02
6.740000e+02 3.006928e+02
6.750000e+02 3.184516e+02
6.760000e+02 3.371986e+02
6.770000e+02 3.569854e+02
6.780000e+02 3.778659e+02
6.790000e+02 3.999040e+02
6.800000e+02 4.231457e+02
6.810000e+02 4.476539e+02
6.820000e+02 4.735055e+02
6.830000e+02 5.007636e+02
6.840000e+02 5.294962e+02
6.850000e+02 5.597867e+02
6.860000e+02 5.916995e+02
6.870000e+02 6.255468e+02
6.880000e+02 6.608221e+02
6.890000e+02 6.981891e+02
6.900000e+02 7.374690e+02
6.910000e+02 7.788206e+02
6.920000e+02 8.223872e+02
6.930000e+02 8.682466e+02
6.940000e+02 9.165112e+02
6.950000e+02 9.673255e+02
6.960000e+02 1.020747e+03
6.970000e+02 1.077580e+03
6.980000e+02 1.136083e+03
6.990000e+02 1.198239e+03
7.000000e+02 1.263627e+03
7.010000e+02 1.332349e+03
7.020000e+02 1.404582e+03
7.030000e+02 1.480496e+03
7.040000e+02 1.560264e+03
7.050000e+02 1.644071e+03
7.060000e+02 1.732123e+03
7.070000e+02 1.824572e+03
7.080000e+02 1.921668e+03
7.090000e+02 2.023681e+03
7.100000e+02 2.130693e+03
7.110000e+02 2.243041e+03
7.120000e+02 2.360951e+03
7.130000e+02 2.484678e+03
7.140000e+02 2.614492e+03
7.150000e+02 2.750672e+03
7.160000e+02 2.893508e+03
7.170000e+02 3.043551e+03
7.180000e+02 3.201781e+03
7.190000e+02 3.365053e+03
7.200000e+02 3.537699e+03
7.210000e+02 3.718632e+03
7.220000e+02 3.908313e+03
7.230000e+02 4.106983e+03
7.240000e+02 4.315132e+03
7.250000e+02 4.533231e+03
7.260000e+02 4.761547e+03
7.270000e+02 5.000703e+03
7.280000e+02 5.251118e+03
7.290000e+02 5.513286e+03
7.300000e+02 5.801440e+03
7.310000e+02 6.075062e+03
7.320000e+02 6.381709e+03
7.330000e+02 6.690103e+03
7.340000e+02 7.019154e+03
7.350000e+02 7.364087e+03
7.360000e+02 7.723862e+03
7.370000e+02 8.100038e+03
7.380000e+02 8.493749e+03
7.390000e+02 8.905362e+03
7.400000e+02 9.335868e+03
7.410000e+02 9.785411e+03
7.420000e+02 1.025569e+04
7.430000e+02 1.074678e+04
7.440000e+02 1.125997e+04
7.450000e+02 1.179608e+04
7.460000e+02 1.235608e+04
7.470000e+02 1.294116e+04
7.480000e+02 1.355200e+04
7.490000e+02 1.418948e+04
7.500000e+02 1.485565e+04
7.510000e+02 1.555027e+04
7.520000e+02 1.627567e+04
7.530000e+02 1.703295e+04
7.540000e+02 1.782292e+04
7.550000e+02 1.864761e+04
7.560000e+02 1.950696e+04
7.570000e+02 2.040604e+04
7.580000e+02 2.133925e+04
7.590000e+02 2.231671e+04
7.600000e+02 2.335404e+04
7.610000e+02 2.441479e+04
7.620000e+02 2.552119e+04
7.630000e+02 2.667459e+04
7.640000e+02 2.787654e+04
7.650000e+02 2.912887e+04
7.660000e+02 3.043366e+04
7.670000e+02 3.179325e+04
7.680000e+02 3.321415e+04
7.690000e+02 3.468436e+04
7.700000e+02 3.622068e+04
7.710000e+02 3.782052e+04
7.720000e+02 3.948715e+04
7.730000e+02 4.122122e+04
7.740000e+02 4.302653e+04
7.750000e+02 4.490556e+04
7.760000e+02 4.688890e+04
7.770000e+02 4.889648e+04
7.780000e+02 5.101338e+04
7.790000e+02 5.321625e+04
7.800000e+02 5.550708e+04
7.810000e+02 5.789020e+04
7.820000e+02 6.036907e+04
7.830000e+02 6.294712e+04
7.840000e+02 6.562695e+04
7.850000e+02 6.841392e+04
7.860000e+02 7.131104e+04
7.870000e+02 7.432366e+04
7.880000e+02 7.745336e+04
7.890000e+02 8.070573e+04
7.900000e+02 8.409105e+04
7.910000e+02 8.759798e+04
7.920000e+02 9.124525e+04
7.930000e+02 9.503461e+04
7.940000e+02 9.897134e+04
7.950000e+02 1.030571e+05
7.960000e+02 1.073051e+05
7.970000e+02 1.117126e+05
7.980000e+02 1.162928e+05
7.990000e+02 1.210394e+05
8.000000e+02 1.259701e+05
8.010000e+02 1.310887e+05
8.020000e+02 1.363987e+05
8.030000e+02 1.419133e+05
8.040000e+02 1.476278e+05
8.050000e+02 1.535612e+05
8.060000e+02 1.597151e+05
8.070000e+02 1.660983e+05
8.080000e+02 1.727186e+05
8.090000e+02 1.795818e+05
8.100000e+02 1.867010e+05
8.110000e+02 1.940861e+05
8.120000e+02 2.017484e+05
8.130000e+02 2.096682e+05
8.140000e+02 2.178905e+05
8.150000e+02 2.264331e+05
8.160000e+02 2.352434e+05
8.170000e+02 2.444035e+05
8.180000e+02 2.538872e+05
8.190000e+02 2.637104e+05
8.200000e+02 2.738867e+05
8.210000e+02 2.844273e+05
8.220000e+02 2.953441e+05
8.230000e+02 3.066550e+05
8.240000e+02 3.183559e+05
8.250000e+02 3.304776e+05
8.260000e+02 3.430282e+05
8.270000e+02 3.560202e+05
8.280000e+02 3.694688e+05
8.290000e+02 3.833887e+05
8.300000e+02 3.977974e+05
8.310000e+02 4.127056e+05
8.320000e+02 4.281322e+05
8.330000e+02 4.441050e+05
8.340000e+02 4.606097e+05
8.350000e+02 4.786189e+05
8.360000e+02 4.955037e+05
8.370000e+02 5.136342e+05
8.380000e+02 5.325202e+05
8.390000e+02 5.520580e+05
8.400000e+02 5.722844e+05
8.410000e+02 5.931933e+05
8.420000e+02 6.155818e+05
8.430000e+02 6.371002e+05
8.440000e+02 6.601756e+05
8.450000e+02 6.840243e+05
8.460000e+02 7.086812e+05
8.470000e+02 7.341376e+05
8.480000e+02 7.604586e+05
8.490000e+02 7.876452e+05
8.500000e+02 8.157219e+05
8.510000e+02 8.447352e+05
8.520000e+02 8.747319e+05
8.530000e+02 9.056975e+05
8.540000e+02 9.376439e+05
8.550000e+02 9.706506e+05
8.560000e+02 1.004732e+06
8.570000e+02 1.039919e+06
8.580000e+02 1.076259e+06
8.590000e+02 1.113751e+06
8.600000e+02 1.152501e+06
8.610000e+02 1.192452e+06
8.620000e+02 1.233666e+06
8.630000e+02 1.276219e+06
8.640000e+02 1.320122e+06
8.650000e+02 1.365436e+06
8.660000e+02 1.412150e+06
8.670000e+02 1.460358e+06
8.680000e+02 1.510094e+06
8.690000e+02 1.561385e+06
8.700000e+02 1.614555e+06
8.710000e+02 1.668836e+06
8.720000e+02 1.725098e+06
8.730000e+02 1.783103e+06
8.740000e+02 1.842907e+06
8.750000e+02 1.904546e+06
8.760000e+02 1.968109e+06
8.770000e+02 2.033633e+06
8.780000e+02 2.101145e+06
8.790000e+02 2.170734e+06
8.800000e+02 2.242545e+06
8.810000e+02 2.316440e+06
8.820000e+02 2.392611e+06
8.830000e+02 2.471048e+06
8.840000e+02 2.551872e+06
8.850000e+02 2.635192e+06
8.860000e+02 2.720971e+06
8.870000e+02 2.809211e+06
8.880000e+02 2.900186e+06
8.890000e+02 2.993874e+06
8.900000e+02 3.090350e+06
8.910000e+02 3.189715e+06
8.920000e+02 3.561419e+06
8.930000e+02 3.397291e+06
8.940000e+02 3.505692e+06
8.950000e+02 3.617395e+06
8.960000e+02 3.732112e+06
8.970000e+02 3.850317e+06
8.980000e+02 3.971965e+06
8.990000e+02 4.097344e+06
9.000000e+02 4.226168e+06
9.010000e+02 4.358705e+06
9.020000e+02 4.495073e+06
9.030000e+02 4.635546e+06
9.040000e+02 4.783200e+06
9.050000e+02 4.928333e+06
9.060000e+02 5.080984e+06
9.070000e+02 5.240408e+06
9.080000e+02 5.399510e+06
9.090000e+02 5.565570e+06
9.100000e+02 5.736356e+06
9.110000e+02 5.911810e+06
9.120000e+02 6.091908e+06
9.130000e+02 6.675910e+06
9.140000e+02 6.286342e+06
9.150000e+02 1.837227e+07
9.160000e+02 5.763327e+07
9.170000e+02 5.711078e+08
9.180000e+02 3.973185e+08
9.190000e+02 1.081685e+09
9.200000e+02 1.474778e+09
9.210000e+02 1.050662e+07
9.220000e+02 1.714032e+09
9.230000e+02 5.356653e+08
9.240000e+02 3.951062e+08
9.250000e+02 1.722909e+09
9.260000e+02 8.804912e+08
9.270000e+02 1.864976e+09
9.280000e+02 2.075295e+09
9.290000e+02 5.308604e+08
9.300000e+02 1.833533e+09
9.310000e+02 1.057949e+09
9.320000e+02 2.252072e+09
9.330000e+02 2.252108e+09
9.340000e+02 2.420891e+09
9.350000e+02 2.475072e+09
9.360000e+02 2.421779e+09
9.370000e+02 6.312940e+08
9.380000e+02 4.643376e+08
9.390000e+02 2.546360e+09
9.400000e+02 2.705453e+09
9.410000e+02 2.700934e+09
9.420000e+02 2.801609e+09
9.430000e+02 2.846352e+09
9.440000e+02 4.244705e+08
9.450000e+02 2.902403e+09
9.460000e+02 3.013980e+09
9.470000e+02 6.307174e+08
9.480000e+02 3.073937e+09
9.490000e+02 2.649188e+09
9.500000e+02 2.200995e+08
9.510000e+02 1.888136e+09
9.520000e+02 3.364772e+09
9.530000e+02 3.376859e+09
9.540000e+02 1.182835e+09
9.550000e+02 3.605620e+09
9.560000e+02 3.711312e+09
9.570000e+02 3.327451e+09
9.580000e+02 3.504606e+09
9.590000e+02 3.895758e+09
9.600000e+02 9.483069e+08
9.610000e+02 4.106410e+09
9.620000e+02 3.830883e+09
9.630000e+02 4.253558e+09
9.640000e+02 2.518426e+07
9.650000e+02 2.307003e+09
9.660000e+02 4.472722e+09
9.670000e+02 4.497474e+09
9.680000e+02 4.108235e+09
9.690000e+02 4.533570e+09
9.700000e+02 4.618052e+09
9.710000e+02 4.354936e+09
9.720000e+02 2.188369e+09
9.730000e+02 1.959615e+09
9.740000e+02 4.417359e+09
9.750000e+02 5.015412e+09
9.760000e+02 5.262864e+09
9.770000e+02 5.348685e+09
9.780000e+02 5.465421e+09
9.790000e+02 5.607578e+09
9.800000e+02 5.727036e+09
9.810000e+02 5.834458e+09
9.820000e+02 5.277167e+09
9.830000e+02 6.015686e+09
9.840000e+02 3.341578e+08
9.850000e+02 6.249545e+09
9.860000e+02 6.348327e+09
9.870000e+02 6.363104e+09
9.880000e+02 5.944054e+09
9.890000e+02 8.097236e+08
9.900000e+02 5.727720e+07
9.910000e+02 6.480489e+09
9.920000e+02 5.123025e+09
9.930000e+02 5.750165e+09
9.940000e+02 5.010719e+08
9.950000e+02 1.326350e+08
9.960000e+02 1.665935e+08
9.970000e+02 2.034606e+08
9.980000e+02 7.532797e+09
9.990000e+02 6.856122e+09
1.000000e+03 8.030019e+09
1.001000e+03 8.169416e+09
1.002000e+03 8.242522e+09
1.003000e+03 2.697954e+09
1.004000e+03 8.571836e+09
1.005000e+03 3.573842e+09
1.006000e+03 8.839049e+09
1.007000e+03 8.983948e+09
1.008000e+03 9.062261e+09
1.009000e+03 5.530832e+09
1.010000e+03 9.380762e+09
1.011000e+03 9.523712e+09
1.012000e+03 9.603245e+09
1.013000e+03 9.787035e+09
1.014000e+03 9.936922e+09
1.015000e+03 8.046466e+09
1.016000e+03 1.001636e+10
1.017000e+03 1.026589e+10
1.018000e+03 1.034525e+10
1.019000e+03 1.039900e+10
1.020000e+03 1.034494e+10
1.021000e+03 9.505895e+09
1.022000e+03 1.010463e+10
1.023000e+03 9.168453e+09
1.024000e+03 6.550373e+09
1.025000e+03 1.779650e+09
1.026000e+03 3.311087e+08
1.027000e+03 4.803434e+09
1.028000e+03 3.078949e+09
1.029000e+03 1.101273e+10
1.030000e+03 1.025422e+10
1.031000e+03 1.285173e+10
1.032000e+03 1.161254e+10
1.033000e+03 8.858894e+09
1.034000e+03 1.405472e+10
1.035000e+03 2.292951e+09
1.036000e+03 1.375480e+10
1.037000e+03 1.632978e+08
1.038000e+03 1.514928e+10
1.039000e+03 1.400680e+10
1.040000e+03 1.587453e+10
1.041000e+03 1.594700e+10
1.042000e+03 9.824381e+09
1.043000e+03 1.656328e+10
1.044000e+03 1.588582e+10
1.045000e+03 1.696536e+10
1.046000e+03 1.735754e+10
1.047000e+03 1.767387e+10
1.048000e+03 1.539164e+10
1.049000e+03 1.742569e+10
1.050000e+03 1.863972e+10
1.051000e+03 1.892191e+10
1.052000e+03 1.919833e+10
1.053000e+03 1.410295e+10
1.054000e+03 1.974084e+10
1.055000e+03 2.005017e+10
1.056000e+03 2.037882e+10
1.057000e+03 2.049432e+10
1.058000e+03 2.089413e+10
1.059000e+03 2.125771e+10
1.060000e+03 2.159239e+10
1.061000e+03 2.191020e+10
1.062000e+03 2.221152e+10
1.063000e+03 1.509155e+10
1.064000e+03 2.382504e+09
1.065000e+03 2.833281e+10
1.066000e+03 2.883927e+10
1.067000e+03 1.396927e+10
1.068000e+03 2.979545e+10
1.069000e+03 3.026697e+10
1.070000e+03 2.153830e+10
1.071000e+03 3.153153e+10
1.072000e+03 3.187181e+10
1.073000e+03 3.244681e+10
1.074000e+03 3.278105e+10
1.075000e+03 3.271398e+10
1.076000e+03 3.378098e+10
1.077000e+03 3.415123e+10
1.078000e+03 3.462231e+10
1.079000e+03 3.320448e+10
1.080000e+03 3.462220e+10
1.081000e+03 3.620655e+10
1.082000e+03 3.646980e+10
1.083000e+03 3.704411e+10
1.084000e+03 1.351836e+09
1.085000e+03 1.556235e+10
1.086000e+03 3.872406e+10
1.087000e+03 3.898640e+10
1.088000e+03 3.843574e+10
1.089000e+03 3.989052e+10
1.090000e+03 3.996053e+10
1.091000e+03 4.137571e+10
1.092000e+03 4.198375e+10
1.093000e+03 4.215698e+10
1.094000e+03 4.319129e+10
1.095000e+03 4.223184e+10
1.096000e+03 4.425966e+10
1.097000e+03 4.155258e+10
1.098000e+03 3.652427e+10
1.099000e+03 4.509541e+10
1.100000e+03 4.082639e+10
1.101000e+03 4.286122e+10
1.102000e+03 8.812107e+10
1.103000e+03 2.378347e+11
1.104000e+03 8.075490e+10
1.105000e+03 4.523318e+10
1.106000e+03 4.476608e+11
1.107000e+03 3.675772e+11
1.108000e+03 4.606078e+11
1.109000e+03 8.231394e+10
1.110000e+03 1.078476e+10
1.111000e+03 9.849297e+10
1.112000e+03 3.628351e+11
1.113000e+03 4.766821e+11
1.114000e+03 3.152573e+10
1.115000e+03 3.931897e+11
1.116000e+03 4.554813e+11
1.117000e+03 3.256189e+10
1.118000e+03 2.552922e+11
1.119000e+03 4.525299e+11
1.120000e+03 4.763979e+11
1.121000e+03 1.079004e+11
1.122000e+03 1.309966e+09
1.123000e+03 8.264692e+10
1.124000e+03 4.563115e+11
1.125000e+03 4.569789e+10
1.126000e+03 4.783986e+11
1.127000e+03 3.847529e+11
1.128000e+03 2.538032e+11
1.129000e+03 4.923256e+11
1.130000e+03 1.128585e+11
1.131000e+03 5.229315e+11
1.132000e+03 2.849210e+09
1.133000e+03 3.933611e+11
1.134000e+03 4.477157e+11
1.135000e+03 1.842381e+09
1.136000e+03 4.187187e+11
1.137000e+03 5.461321e+11
1.138000e+03 5.802899e+11
1.139000e+03 5.680630e+11
1.140000e+03 5.568004e+09
1.141000e+03 5.956543e+11
1.142000e+03 2.872284e+11
1.143000e+03 5.746271e+11
1.144000e+03 5.897676e+11
1.145000e+03 2.381764e+11
1.146000e+03 5.590069e+11
1.147000e+03 5.407688e+11
1.148000e+03 5.566664e+11
1.149000e+03 6.045190e+11
1.150000e+03 3.751918e+11
1.151000e+03 5.818489e+11
1.152000e+03 5.366704e+11
1.153000e+03 3.348501e+10
1.154000e+03 4.024697e+09
1.155000e+03 2.894789e+11
1.156000e+03 2.495125e+11
1.157000e+03 6.299762e+11
1.158000e+03 1.175581e+10
1.159000e+03 5.003054e+11
1.160000e+03 5.750180e+11
1.161000e+03 6.588014e+11
1.162000e+03 1.340257e+10
1.163000e+03 4.211848e+11
1.164000e+03 3.135384e+10
1.165000e+03 6.624615e+11
1.166000e+03 5.503030e+11
1.167000e+03 3.103298e+11
1.168000e+03 6.594864e+11
1.169000e+03 6.297022e+11
1.170000e+03 6.655455e+11
1.171000e+03 6.642059e+11
1.172000e+03 3.825848e+11
1.173000e+03 6.387854e+11
1.174000e+03 5.195445e+11
1.175000e+03 3.406411e+10
1.176000e+03 1.407782e+10
1.177000e+03 5.399108e+11
1.178000e+03 3.373292e+11
1.179000e+03 6.164502e+11
1.180000e+03 2.933810e+11
1.181000e+03 4.952927e+11
1.182000e+03 6.082732e+11
1.183000e+03 5.938694e+11
1.184000e+03 5.909676e+11
1.185000e+03 4.270984e+11
1.186000e+03 5.667133e+11
1.187000e+03 5.567175e+11
1.188000e+03 3.899117e+11
1.189000e+03 9.500541e+09
1.190000e+03 1.765901e+11
1.191000e+03 4.480568e+11
1.192000e+03 4.533324e+11
1.193000e+03 3.931898e+09
1.194000e+03 1.185071e+10
1.195000e+03 8.286985e+10
1.196000e+03 3.830684e+11
1.197000e+03 3.296384e+11
1.198000e+03 3.430244e+11
1.199000e+03 3.172605e+11
1.200000e+03 2.508918e+11
1.201000e+03 2.662801e+11
1.202000e+03 2.551103e+11
1.203000e+03 2.311175e+11
1.204000e+03 1.969703e+11
1.205000e+03 1.765976e+11
1.206000e+03 1.083711e+11
1.207000e+03 1.138203e+11
1.208000e+03 1.001977e+11
1.209000e+03 7.046405e+10
1.210000e+03 2.195578e+10
1.211000e+03 3.993259e+10
1.212000e+03 2.576883e+10
1.213000e+03 1.543505e+10
1.214000e+03 8.756230e+09
1.215000e+03 5.196503e+09
1.216000e+03 4.547728e+09
1.217000e+03 7.534870e+09
1.218000e+03 1.364460e+10
1.219000e+03 2.398935e+10
1.220000e+03 3.904782e+10
1.221000e+03 5.880374e+10
1.222000e+03 8.295888e+10
1.223000e+03 1.111297e+11
1.224000e+03 1.428269e+11
1.225000e+03 1.776473e+11
1.226000e+03 2.107676e+11
1.227000e+03 2.547485e+11
1.228000e+03 2.986597e+11
1.229000e+03 3.390326e+11
1.230000e+03 3.830990e+11
1.231000e+03 4.361406e+11
1.232000e+03 4.859701e+11
1.233000e+03 5.362349e+11
1.234000e+03 2.718213e+11
1.235000e+03 6.318153e+11
1.236000e+03 6.904705e+11
1.237000e+03 7.352629e+11
1.238000e+03 7.931330e+11
1.239000e+03 8.484123e+11
1.240000e+03 8.628796e+11
1.241000e+03 1.085498e+12
1.242000e+03 9.295707e+11
1.243000e+03 1.117586e+12
1.244000e+03 5.616557e+11
1.245000e+03 9.863091e+11
1.246000e+03 1.381471e+12
1.247000e+03 1.634259e+12
1.248000e+03 8.643864e+11
1.249000e+03 1.023879e+12
1.250000e+03 1.915311e+12
1.251000e+03 1.880831e+12
1.252000e+03 1.802479e+12
1.253000e+03 2.222169e+12
1.254000e+03 2.248373e+12
1.255000e+03 2.255208e+12
1.256000e+03 2.358817e+12
1.257000e+03 2.655242e+12
1.258000e+03 2.571623e+12
1.259000e+03 2.309217e+12
1.260000e+03 1.746023e+12
1.261000e+03 1.394921e+10
1.262000e+03 6.208978e+11
1.263000e+03 3.038144e+12
1.264000e+03 2.304477e+12
1.265000e+03 1.101762e+10
1.266000e+03 3.104547e+12
1.267000e+03 3.952327e+12
