# wavelength_A flux
5.000000e+02 1.415311e-43
5.010000e+02 1.891753e-43
5.020000e+02 2.522337e-43
5.030000e+02 3.349103e-43
5.040000e+02 4.456129e-43
5.050000e+02 5.955518e-43
5.060000e+02 7.903323e-43
5.070000e+02 1.046770e-42
5.080000e+02 1.385884e-42
5.090000e+02 1.831497e-42
5.100000e+02 2.401826e-42
5.110000e+02 3.189355e-42
5.120000e+02 4.202494e-42
5.130000e+02 5.530925e-42
5.140000e+02 7.269936e-42
5.150000e+02 9.548448e-42
5.160000e+02 1.252481e-41
5.170000e+02 1.641341e-41
5.180000e+02 2.148611e-41
5.190000e+02 2.809603e-41
5.200000e+02 3.670281e-41
5.210000e+02 4.789498e-41
5.220000e+02 6.243345e-41
5.230000e+02 8.130754e-41
5.240000e+02 1.057756e-40
5.250000e+02 1.374660e-40
5.260000e+02 1.784708e-40
5.270000e+02 2.314749e-40
5.280000e+02 2.999199e-40
5.290000e+02 3.882171e-40
5.300000e+02 5.020124e-40
5.310000e+02 6.485265e-40
5.320000e+02 8.369830e-40
5.330000e+02 1.079154e-39
5.340000e+02 1.390050e-39
5.350000e+02 1.788791e-39
5.360000e+02 2.299710e-39
5.370000e+02 2.947724e-39
5.380000e+02 3.790229e-39
5.390000e+02 4.859026e-39
5.400000e+02 6.223378e-39
5.410000e+02 7.963361e-39
5.420000e+02 1.018053e-38
5.430000e+02 1.300297e-38
5.440000e+02 1.659271e-38
5.450000e+02 2.115423e-38
5.460000e+02 2.694538e-38
5.470000e+02 3.429104e-38
5.480000e+02 4.360019e-38
5.490000e+02 5.538724e-38
5.500000e+02 7.029861e-38
5.510000e+02 8.914592e-38
5.520000e+02 1.129473e-37
5.530000e+02 1.429791e-37
5.540000e+02 1.808393e-37
5.550000e+02 2.285278e-37
5.560000e+02 2.885448e-37
5.570000e+02 3.640134e-37
5.580000e+02 4.588318e-37
5.590000e+02 5.778611e-37
5.600000e+02 7.271589e-37
5.610000e+02 9.142669e-37
5.620000e+02 1.148567e-36
5.630000e+02 1.441722e-36
5.640000e+02 1.808215e-36
5.650000e+02 2.266022e-36
5.660000e+02 2.837433e-36
5.670000e+02 3.550064e-36
5.680000e+02 4.438107e-36
5.690000e+02 5.543860e-36
5.700000e+02 6.919608e-36
5.710000e+02 8.629930e-36
5.720000e+02 1.075453e-35
5.730000e+02 1.339169e-35
5.740000e+02 1.666256e-35
5.750000e+02 2.071626e-35
5.760000e+02 2.573634e-35
5.770000e+02 3.194845e-35
5.780000e+02 3.962971e-35
5.790000e+02 4.912049e-35
5.800000e+02 6.083825e-35
5.810000e+02 7.529476e-35
5.820000e+02 9.311688e-35
5.830000e+02 1.150718e-34
5.840000e+02 1.420952e-34
5.850000e+02 1.753429e-34
5.860000e+02 2.162088e-34
5.870000e+02 2.664040e-34
5.880000e+02 3.280148e-34
5.890000e+02 4.035833e-34
5.900000e+02 4.962057e-34
5.910000e+02 6.096500e-34
5.920000e+02 7.484992e-34
5.930000e+02 9.183232e-34
5.940000e+02 1.125887e-33
5.950000e+02 1.379401e-33
5.960000e+02 1.688824e-33
5.970000e+02 2.066227e-33
5.980000e+02 2.526228e-33
5.990000e+02 3.086526e-33
6.000000e+02 3.768524e-33
6.010000e+02 4.598099e-33
6.020000e+02 5.606508e-33
6.030000e+02 6.831484e-33
6.040000e+02 8.318551e-33
6.050000e+02 1.012259e-32
6.060000e+02 1.230973e-32
6.070000e+02 1.495960e-32
6.080000e+02 1.816799e-32
6.090000e+02 2.205012e-32
6.100000e+02 2.674444e-32
6.110000e+02 3.241725e-32
6.120000e+02 3.926810e-32
6.130000e+02 4.753640e-32
6.140000e+02 5.750913e-32
6.150000e+02 6.953006e-32
6.160000e+02 8.401081e-32
6.170000e+02 1.014439e-31
6.180000e+02 1.224181e-31
6.190000e+02 1.476374e-31
6.200000e+02 1.779422e-31
6.210000e+02 2.143359e-31
6.220000e+02 2.580154e-31
6.230000e+02 3.104074e-31
6.240000e+02 3.732121e-31
6.250000e+02 4.484538e-31
6.260000e+02 5.385418e-31
6.270000e+02 6.463415e-31
6.280000e+02 7.752592e-31
6.290000e+02 9.293411e-31
6.300000e+02 1.113392e-30
6.310000e+02 1.333095e-30
6.320000e+02 1.595265e-30
6.330000e+02 1.907862e-30
6.340000e+02 2.280397e-30
6.350000e+02 2.724110e-30
6.360000e+02 3.252303e-30
6.370000e+02 3.880701e-30
6.380000e+02 4.627896e-30
6.390000e+02 5.515849e-30
6.400000e+02 6.570489e-30
6.410000e+02 7.822411e-30
6.420000e+02 9.307700e-30
6.430000e+02 1.106889e-29
6.440000e+02 1.315609e-29
6.450000e+02 1.562830e-29
6.460000e+02 1.855496e-29
6.470000e+02 2.201774e-29
6.480000e+02 2.611264e-29
6.490000e+02 3.095248e-29
6.500000e+02 3.666974e-29
6.510000e+02 4.341991e-29
6.520000e+02 5.138541e-29
6.530000e+02 6.078013e-29
6.540000e+02 7.185474e-29
6.550000e+02 8.490283e-29
6.560000e+02 1.002681e-28
6.570000e+02 1.183529e-28
6.580000e+02 1.396274e-28
6.590000e+02 1.646417e-28
6.600000e+02 1.940381e-28
6.610000e+02 2.285670e-28
6.620000e+02 2.691039e-28
6.630000e+02 3.166706e-28
6.640000e+02 3.724584e-28
6.650000e+02 4.378555e-28
6.660000e+02 5.144795e-28
6.670000e+02 6.042135e-28
6.680000e+02 7.092493e-28
6.690000e+02 8.321362e-28
6.700000e+02 9.758384e-28
6.710000e+02 1.143801e-27
6.720000e+02 1.340025e-27
6.730000e+02 1.569156e-27
6.740000e+02 1.836586e-27
6.750000e+02 2.148568e-27
6.760000e+02 2.512352e-27
6.770000e+02 2.936342e-27
6.780000e+02 3.430269e-27
6.790000e+02 4.005402e-27
6.800000e+02 4.674783e-27
6.810000e+02 5.453495e-27
6.820000e+02 6.358982e-27
6.830000e+02 7.411398e-27
6.840000e+02 8.634032e-27
6.850000e+02 1.005377e-26
6.860000e+02 1.170164e-26
6.870000e+02 1.361345e-26
6.880000e+02 1.583047e-26
6.890000e+02 1.840030e-26
6.900000e+02 2.137775e-26
6.910000e+02 2.482595e-26
6.920000e+02 2.881758e-26
6.930000e+02 3.343628e-26
6.940000e+02 3.877820e-26
6.950000e+02 4.495394e-26
6.960000e+02 5.209054e-26
6.970000e+02 6.033396e-26
6.980000e+02 6.985180e-26
6.990000e+02 8.083640e-26
7.000000e+02 9.350839e-26
7.010000e+02 1.081208e-25
7.020000e+02 1.249638e-25
7.030000e+02 1.443695e-25
7.040000e+02 1.667188e-25
7.050000e+02 1.924473e-25
7.060000e+02 2.220537e-25
7.070000e+02 2.561086e-25
7.080000e+02 2.952644e-25
7.090000e+02 3.402665e-25
7.100000e+02 3.919671e-25
7.110000e+02 4.513390e-25
7.120000e+02 5.194930e-25
7.130000e+02 5.976969e-25
7.140000e+02 6.873967e-25
7.150000e+02 7.902414e-25
7.160000e+02 9.081105e-25
7.170000e+02 1.043146e-24
7.180000e+02 1.197786e-24
7.190000e+02 1.374810e-24
7.200000e+02 1.577376e-24
7.210000e+02 1.809082e-24
7.220000e+02 2.074016e-24
7.230000e+02 2.376827e-24
7.240000e+02 2.722799e-24
7.250000e+02 3.117931e-24
7.260000e+02 3.569038e-24
7.270000e+02 4.083855e-24
7.280000e+02 4.671159e-24
7.290000e+02 5.340903e-24
7.300000e+02 6.104376e-24
7.310000e+02 6.974371e-24
7.320000e+02 7.965383e-24
7.330000e+02 9.093830e-24
7.340000e+02 1.037830e-23
7.350000e+02 1.183982e-23
7.360000e+02 1.350221e-23
7.370000e+02 1.539238e-23
7.380000e+02 1.754076e-23
7.390000e+02 1.998174e-23
7.400000e+02 2.275420e-23
7.410000e+02 2.590201e-23
7.420000e+02 2.947472e-23
7.430000e+02 3.352826e-23
7.440000e+02 3.812571e-23
7.450000e+02 4.333823e-23
7.460000e+02 4.924603e-23
7.470000e+02 5.593953e-23
7.480000e+02 6.352059e-23
7.490000e+02 7.210394e-23
7.500000e+02 8.181874e-23
7.510000e+02 9.281038e-23
7.520000e+02 1.052424e-22
7.530000e+02 1.192989e-22
7.540000e+02 1.351866e-22
7.550000e+02 1.531381e-22
7.560000e+02 1.734146e-22
7.570000e+02 1.963097e-22
7.580000e+02 2.221529e-22
7.590000e+02 2.513141e-22
7.600000e+02 2.842085e-22
7.610000e+02 3.213017e-22
7.620000e+02 3.631161e-22
7.630000e+02 4.102371e-22
7.640000e+02 4.633209e-22
7.650000e+02 5.231027e-22
7.660000e+02 5.904060e-22
7.670000e+02 6.661527e-22
7.680000e+02 7.513748e-22
7.690000e+02 8.472270e-22
7.700000e+02 9.550011e-22
7.710000e+02 1.076141e-21
7.720000e+02 1.212263e-21
7.730000e+02 1.365171e-21
7.740000e+02 1.536880e-21
7.750000e+02 1.729644e-21
7.760000e+02 1.945976e-21
7.770000e+02 2.188684e-21
7.780000e+02 2.460898e-21
7.790000e+02 2.766114e-21
7.800000e+02 3.108226e-21
7.810000e+02 3.491579e-21
7.820000e+02 3.921015e-21
7.830000e+02 4.401928e-21
7.840000e+02 4.940327e-21
7.850000e+02 5.542901e-21
7.860000e+02 6.217101e-21
7.870000e+02 6.971215e-21
7.880000e+02 7.814467e-21
7.890000e+02 8.757115e-21
7.900000e+02 9.810566e-21
7.910000e+02 1.098750e-20
7.920000e+02 1.230200e-20
7.930000e+02 1.376974e-20
7.940000e+02 1.540809e-20
7.950000e+02 1.723636e-20
7.960000e+02 1.927599e-20
7.970000e+02 2.155075e-20
7.980000e+02 2.408703e-20
7.990000e+02 2.691409e-20
8.000000e+02 3.006439e-20
8.010000e+02 3.357388e-20
8.020000e+02 3.748244e-20
8.030000e+02 4.183421e-20
8.040000e+02 4.667812e-20
8.050000e+02 5.206831e-20
8.060000e+02 5.806476e-20
8.070000e+02 6.473378e-20
8.080000e+02 7.214881e-20
8.090000e+02 8.039103e-20
8.100000e+02 8.955024e-20
8.110000e+02 9.972568e-20
8.120000e+02 1.110271e-19
8.130000e+02 1.235756e-19
8.140000e+02 1.375052e-19
8.150000e+02 1.529636e-19
8.160000e+02 1.701143e-19
8.170000e+02 1.891373e-19
8.180000e+02 2.102314e-19
8.190000e+02 2.336160e-19
8.200000e+02 2.595332e-19
8.210000e+02 2.882495e-19
8.220000e+02 3.200590e-19
8.230000e+02 3.552858e-19
8.240000e+02 3.942870e-19
8.250000e+02 4.374558e-19
8.260000e+02 4.852253e-19
8.270000e+02 5.380724e-19
8.280000e+02 5.965218e-19
8.290000e+02 6.611511e-19
8.300000e+02 7.325957e-19
8.310000e+02 8.115542e-19
8.320000e+02 8.987952e-19
8.330000e+02 9.951634e-19
8.340000e+02 1.101587e-18
8.350000e+02 1.219086e-18
8.360000e+02 1.348781e-18
8.370000e+02 1.491904e-18
8.380000e+02 1.649804e-18
8.390000e+02 1.823966e-18
8.400000e+02 2.016017e-18
8.410000e+02 2.227743e-18
8.420000e+02 2.461104e-18
8.430000e+02 2.718249e-18
8.440000e+02 3.001533e-18
8.450000e+02 3.313538e-18
8.460000e+02 3.657096e-18
8.470000e+02 4.035306e-18
8.480000e+02 4.451566e-18
8.490000e+02 4.909595e-18
8.500000e+02 5.413467e-18
8.510000e+02 5.967639e-18
8.520000e+02 6.576991e-18
8.530000e+02 7.246862e-18
8.540000e+02 7.983091e-18
8.550000e+02 8.792066e-18
8.560000e+02 9.680769e-18
8.570000e+02 1.065683e-17
8.580000e+02 1.172860e-17
8.590000e+02 1.290520e-17
8.600000e+02 1.419657e-17
8.610000e+02 1.561360e-17
8.620000e+02 1.716817e-17
8.630000e+02 1.887324e-17
8.640000e+02 2.074297e-17
8.650000e+02 2.279279e-17
8.660000e+02 2.503955e-17
8.670000e+02 2.750164e-17
8.680000e+02 3.019910e-17
8.690000e+02 3.315377e-17
8.700000e+02 3.638948e-17
8.710000e+02 3.993217e-17
8.720000e+02 4.381015e-17
8.730000e+02 4.805420e-17
8.740000e+02 5.269790e-17
8.750000e+02 5.777778e-17
8.760000e+02 6.333362e-17
8.770000e+02 6.940871e-17
8.780000e+02 7.605018e-17
8.790000e+02 8.330928e-17
8.800000e+02 9.124178e-17
8.810000e+02 9.990831e-17
8.820000e+02 1.093748e-16
8.830000e+02 1.197130e-16
8.840000e+02 1.310007e-16
8.850000e+02 1.433226e-16
8.860000e+02 1.567707e-16
8.870000e+02 1.714449e-16
8.880000e+02 1.874537e-16
8.890000e+02 2.049149e-16
8.900000e+02 2.239563e-16
8.910000e+02 2.447167e-16
8.920000e+02 2.673468e-16
8.930000e+02 2.920099e-16
8.940000e+02 3.188832e-16
8.950000e+02 3.481590e-16
8.960000e+02 3.800457e-16
8.970000e+02 4.147691e-16
8.980000e+02 4.525740e-16
8.990000e+02 4.937260e-16
9.000000e+02 5.385123e-16
9.010000e+02 5.872444e-16
9.020000e+02 6.402596e-16
9.030000e+02 6.979229e-16
9.040000e+02 7.606298e-16
9.050000e+02 8.288080e-16
9.060000e+02 9.029207e-16
9.070000e+02 9.834690e-16
9.080000e+02 1.070995e-15
9.090000e+02 1.166084e-15
9.100000e+02 1.269371e-15
9.110000e+02 1.381541e-15
9.120000e+02 1.503335e-15
9.130000e+02 1.635553e-15
9.140000e+02 2.265325e-15
9.150000e+02 2.809843e-13
9.160000e+02 1.851445e-12
9.170000e+02 9.829424e-15
9.180000e+02 3.721068e-13
9.190000e+02 5.785212e-12
9.200000e+02 1.589820e-11
9.210000e+02 3.188464e-15
9.220000e+02 3.076566e-12
9.230000e+02 1.548925e-14
9.240000e+02 1.159142e-14
9.250000e+02 2.064989e-13
9.260000e+02 5.794009e-13
9.270000e+02 1.628365e-14
9.280000e+02 9.249235e-11
9.290000e+02 9.405105e-11
9.300000e+02 2.416891e-11
9.310000e+02 3.792936e-14
9.320000e+02 8.324101e-11
9.330000e+02 2.042366e-12
9.340000e+02 3.551048e-13
9.350000e+02 1.741173e-13
9.360000e+02 6.816029e-14
9.370000e+02 2.372104e-14
9.380000e+02 1.438571e-13
9.390000e+02 2.778980e-13
9.400000e+02 4.567733e-11
9.410000e+02 4.199823e-12
9.420000e+02 3.442924e-10
9.430000e+02 4.299061e-13
9.440000e+02 3.801663e-10
9.450000e+02 3.161964e-10
9.460000e+02 7.577422e-12
9.470000e+02 2.638905e-14
9.480000e+02 5.348917e-11
9.490000e+02 1.276367e-11
9.500000e+02 4.007775e-13
9.510000e+02 1.137639e-11
9.520000e+02 3.103383e-11
9.530000e+02 1.520300e-13
9.540000e+02 4.451874e-14
9.550000e+02 9.103135e-13
9.560000e+02 1.676701e-10
9.570000e+02 5.988543e-13
9.580000e+02 6.017756e-14
9.590000e+02 1.784361e-11
9.600000e+02 8.968809e-13
9.610000e+02 1.749875e-11
9.620000e+02 5.171502e-12
9.630000e+02 4.527004e-13
9.640000e+02 2.471109e-13
9.650000e+02 1.066543e-13
9.660000e+02 1.162410e-12
9.670000e+02 2.551917e-13
9.680000e+02 2.147796e-13
9.690000e+02 3.845715e-12
9.700000e+02 2.489580e-11
9.710000e+02 4.999564e-13
9.720000e+02 2.206828e-13
9.730000e+02 4.379636e-12
9.740000e+02 1.448944e-11
9.750000e+02 3.384425e-12
9.760000e+02 4.002915e-10
9.770000e+02 9.957605e-11
9.780000e+02 4.155956e-11
9.790000e+02 2.639499e-09
9.800000e+02 1.111150e-09
9.810000e+02 1.561817e-11
9.820000e+02 3.271300e-12
9.830000e+02 1.105128e-09
9.840000e+02 7.985616e-11
9.850000e+02 6.748881e-12
9.860000e+02 1.070667e-11
9.870000e+02 4.828564e-10
9.880000e+02 5.749151e-13
9.890000e+02 1.243938e-10
9.900000e+02 6.240985e-10
9.910000e+02 5.714214e-12
9.920000e+02 7.331074e-13
9.930000e+02 3.324701e-09
9.940000e+02 1.657329e-12
9.950000e+02 6.420693e-11
9.960000e+02 1.518702e-12
9.970000e+02 6.518804e-10
9.980000e+02 7.144068e-10
9.990000e+02 8.124362e-12
1.000000e+03 1.094129e-08
1.001000e+03 7.662203e-09
1.002000e+03 3.389138e-09
1.003000e+03 7.669865e-12
1.004000e+03 1.705081e-12
1.005000e+03 3.260414e-11
1.006000e+03 2.508803e-09
1.007000e+03 6.134926e-09
1.008000e+03 1.474913e-09
1.009000e+03 1.193138e-11
1.010000e+03 8.362440e-10
1.011000e+03 5.382190e-10
1.012000e+03 2.239012e-09
1.013000e+03 2.502229e-09
1.014000e+03 3.369499e-12
1.015000e+03 3.656575e-12
1.016000e+03 6.486456e-11
1.017000e+03 4.126699e-12
1.018000e+03 1.372244e-11
1.019000e+03 4.726886e-12
1.020000e+03 2.821210e-09
1.021000e+03 5.032974e-11
1.022000e+03 6.243539e-11
1.023000e+03 6.790124e-12
1.024000e+03 1.173582e-09
1.025000e+03 7.042415e-12
1.026000e+03 1.185382e-11
1.027000e+03 2.330932e-10
1.028000e+03 5.424039e-11
1.029000e+03 9.170220e-12
1.030000e+03 1.564562e-10
1.031000e+03 8.574030e-10
1.032000e+03 1.952979e-08
1.033000e+03 3.513518e-10
1.034000e+03 7.111808e-10
1.035000e+03 5.183232e-11
1.036000e+03 1.448219e-11
1.037000e+03 6.070928e-09
1.038000e+03 5.446280e-08
1.039000e+03 1.235897e-08
1.040000e+03 2.448184e-09
1.041000e+03 2.495011e-08
1.042000e+03 4.215693e-08
1.043000e+03 7.799709e-08
1.044000e+03 2.294636e-07
1.045000e+03 4.554433e-11
1.046000e+03 4.152742e-09
1.047000e+03 4.190113e-09
1.048000e+03 6.555823e-11
1.049000e+03 2.318986e-09
1.050000e+03 3.967573e-10
1.051000e+03 2.578986e-10
1.052000e+03 7.225869e-08
1.053000e+03 7.161505e-08
1.054000e+03 4.555911e-11
1.055000e+03 9.754729e-08
1.056000e+03 1.245421e-07
1.057000e+03 1.467447e-08
1.058000e+03 2.400324e-10
1.059000e+03 5.543654e-10
1.060000e+03 1.174314e-10
1.061000e+03 4.761677e-08
1.062000e+03 1.695580e-10
1.063000e+03 2.555559e-08
1.064000e+03 1.415970e-10
1.065000e+03 8.998313e-11
1.066000e+03 7.884442e-08
1.067000e+03 4.244487e-10
1.068000e+03 3.507615e-07
1.069000e+03 1.464134e-10
1.070000e+03 2.360366e-09
1.071000e+03 5.674651e-08
1.072000e+03 1.077779e-06
1.073000e+03 1.462865e-10
1.074000e+03 2.089992e-08
1.075000e+03 1.118894e-08
1.076000e+03 1.150210e-06
1.077000e+03 4.179590e-10
1.078000e+03 5.526886e-10
1.079000e+03 2.187435e-09
1.080000e+03 1.609522e-08
1.081000e+03 2.010673e-07
1.082000e+03 7.904237e-08
1.083000e+03 3.244759e-08
1.084000e+03 2.588720e-06
1.085000e+03 5.477546e-09
1.086000e+03 8.438747e-07
1.087000e+03 1.343324e-09
1.088000e+03 2.135410e-06
1.089000e+03 2.714996e-06
1.090000e+03 4.698856e-09
1.091000e+03 8.984443e-09
1.092000e+03 2.397066e-06
1.093000e+03 3.996444e-06
1.094000e+03 3.962909e-08
1.095000e+03 5.040481e-06
1.096000e+03 5.169461e-07
1.097000e+03 1.767954e-06
1.098000e+03 3.920276e-06
1.099000e+03 1.598710e-08
1.100000e+03 7.414158e-10
1.101000e+03 1.216544e-09
1.102000e+03 1.581098e-08
1.103000e+03 9.075868e-06
1.104000e+03 3.819483e-06
1.105000e+03 7.772945e-06
1.106000e+03 9.431421e-08
1.107000e+03 1.347075e-09
1.108000e+03 1.517745e-06
1.109000e+03 1.095577e-08
1.110000e+03 4.019013e-06
1.111000e+03 7.281221e-06
1.112000e+03 4.772957e-07
1.113000e+03 9.209479e-06
1.114000e+03 1.871695e-07
1.115000e+03 1.070495e-08
1.116000e+03 2.905511e-09
1.117000e+03 1.068046e-05
1.118000e+03 2.051581e-08
1.119000e+03 3.063463e-07
1.120000e+03 6.251412e-09
1.121000e+03 4.960050e-06
1.122000e+03 2.911438e-05
1.123000e+03 1.512584e-05
1.124000e+03 1.786095e-05
1.125000e+03 7.917273e-06
1.126000e+03 4.426666e-05
1.127000e+03 5.256550e-06
1.128000e+03 2.307481e-05
1.129000e+03 1.703347e-06
1.130000e+03 2.457676e-05
1.131000e+03 2.657828e-05
1.132000e+03 1.213294e-08
1.133000e+03 1.958433e-07
1.134000e+03 5.711574e-06
1.135000e+03 2.842763e-05
1.136000e+03 3.225250e-07
1.137000e+03 1.759112e-05
1.138000e+03 3.242720e-06
1.139000e+03 2.631824e-05
1.140000e+03 1.631421e-05
1.141000e+03 3.371365e-05
1.142000e+03 3.115939e-05
1.143000e+03 1.816345e-06
1.144000e+03 3.440985e-05
1.145000e+03 1.292392e-08
1.146000e+03 3.173552e-05
1.147000e+03 3.322021e-05
1.148000e+03 8.309144e-08
1.149000e+03 1.871182e-05
1.150000e+03 1.600367e-05
1.151000e+03 3.116816e-05
1.152000e+03 1.107969e-05
1.153000e+03 3.688383e-05
1.154000e+03 4.104368e-05
1.155000e+03 2.343571e-05
1.156000e+03 3.028436e-05
1.157000e+03 3.675832e-05
1.158000e+03 3.277117e-06
1.159000e+03 3.566463e-05
1.160000e+03 7.956984e-06
1.161000e+03 3.469998e-05
1.162000e+03 4.200228e-07
1.163000e+03 2.695455e-06
1.164000e+03 1.479148e-07
1.165000e+03 1.461014e-05
1.166000e+03 8.367843e-06
1.167000e+03 6.626819e-06
1.168000e+03 4.018163e-05
1.169000e+03 4.734472e-05
1.170000e+03 3.944391e-06
1.171000e+03 2.163712e-05
1.172000e+03 1.240752e-05
1.173000e+03 1.552433e-05
1.174000e+03 8.055849e-08
1.175000e+03 1.128274e-07
1.176000e+03 5.402035e-08
1.177000e+03 6.360341e-05
1.178000e+03 6.125524e-05
1.179000e+03 5.679504e-05
1.180000e+03 3.438983e-05
1.181000e+03 5.379698e-05
1.182000e+03 4.896048e-05
1.183000e+03 2.806092e-05
1.184000e+03 2.391027e-05
1.185000e+03 2.510486e-05
1.186000e+03 3.638834e-07
1.187000e+03 4.188634e-05
1.188000e+03 2.036143e-05
1.189000e+03 4.421970e-05
1.190000e+03 4.291036e-05
1.191000e+03 3.820372e-05
1.192000e+03 3.682040e-05
1.193000e+03 3.219844e-05
1.194000e+03 3.588861e-05
1.195000e+03 3.410559e-05
1.196000e+03 4.731240e-04
1.197000e+03 6.430217e-04
1.198000e+03 1.245891e-06
1.199000e+03 5.492296e-04
1.200000e+03 6.504284e-06
1.201000e+03 4.030580e-04
1.202000e+03 1.413378e-04
1.203000e+03 3.042533e-04
1.204000e+03 1.039432e-05
1.205000e+03 1.985684e-04
1.206000e+03 1.535292e-04
1.207000e+03 2.146096e-05
1.208000e+03 8.095469e-05
1.209000e+03 6.064458e-05
1.210000e+03 3.407986e-07
1.211000e+03 2.123571e-05
1.212000e+03 8.861619e-06
1.213000e+03 4.661148e-06
1.214000e+03 1.619464e-06
1.215000e+03 3.706079e-07
1.216000e+03 2.850340e-07
1.217000e+03 1.158984e-06
1.218000e+03 4.117770e-06
1.219000e+03 1.062297e-05
1.220000e+03 8.661330e-06
1.221000e+03 4.805186e-05
1.222000e+03 7.306693e-05
1.223000e+03 6.830035e-05
1.224000e+03 1.845335e-04
1.225000e+03 3.592373e-06
1.226000e+03 4.236719e-04
1.227000e+03 5.795764e-04
1.228000e+03 5.116093e-05
1.229000e+03 8.265498e-04
1.230000e+03 6.647094e-04
1.231000e+03 1.793634e-05
1.232000e+03 1.609044e-03
1.233000e+03 1.907595e-03
1.234000e+03 2.137502e-03
1.235000e+03 2.150582e-03
1.236000e+03 1.107719e-04
1.237000e+03 2.997159e-03
1.238000e+03 3.084075e-03
1.239000e+03 9.819515e-04
1.240000e+03 1.481009e-03
1.241000e+03 1.855711e-03
1.242000e+03 3.401789e-03
1.243000e+03 4.861550e-03
1.244000e+03 5.261147e-03
1.245000e+03 5.491377e-03
1.246000e+03 3.357844e-03
1.247000e+03 4.573971e-03
1.248000e+03 5.661280e-03
1.249000e+03 7.112971e-03
1.250000e+03 5.585122e-03
1.251000e+03 7.562011e-03
1.252000e+03 6.602024e-03
1.253000e+03 8.216630e-03
1.254000e+03 6.834975e-03
1.255000e+03 1.774146e-03
1.256000e+03 5.276288e-03
1.257000e+03 4.629524e-03
1.258000e+03 3.274604e-03
1.259000e+03 4.485931e-03
1.260000e+03 9.365636e-03
1.261000e+03 1.594843e-04
1.262000e+03 9.798843e-03
1.263000e+03 9.000349e-03
1.264000e+03 4.089599e-03
1.265000e+03 7.195211e-03
1.266000e+03 1.180930e-02
1.267000e+03 8.007108e-03
