# wavelength_A flux
5.000000e+02 1.151300e-05
5.010000e+02 1.290348e-05
5.020000e+02 1.445504e-05
5.030000e+02 1.618554e-05
5.040000e+02 1.811474e-05
5.050000e+02 2.058143e-05
5.060000e+02 2.301051e-05
5.070000e+02 2.571448e-05
5.080000e+02 2.872312e-05
5.090000e+02 3.206964e-05
5.100000e+02 3.578952e-05
5.110000e+02 3.992303e-05
5.120000e+02 4.451413e-05
5.130000e+02 4.961127e-05
5.140000e+02 5.526777e-05
5.150000e+02 6.154194e-05
5.160000e+02 6.849945e-05
5.170000e+02 7.620823e-05
5.180000e+02 8.475244e-05
5.190000e+02 9.421199e-05
5.200000e+02 1.046829e-04
5.210000e+02 1.162684e-04
5.220000e+02 1.290730e-04
5.230000e+02 1.432480e-04
5.240000e+02 1.589024e-04
5.250000e+02 1.761972e-04
5.260000e+02 1.952925e-04
5.270000e+02 2.163692e-04
5.280000e+02 2.396234e-04
5.290000e+02 2.652325e-04
5.300000e+02 2.935441e-04
5.310000e+02 3.247024e-04
5.320000e+02 3.590266e-04
5.330000e+02 3.968221e-04
5.340000e+02 4.384248e-04
5.350000e+02 4.842005e-04
5.360000e+02 5.345463e-04
5.370000e+02 5.852879e-04
5.380000e+02 6.507374e-04
5.390000e+02 7.175889e-04
5.400000e+02 7.909996e-04
5.410000e+02 8.715481e-04
5.420000e+02 9.600284e-04
5.430000e+02 1.057059e-03
5.440000e+02 1.163459e-03
5.450000e+02 1.280097e-03
5.460000e+02 1.407762e-03
5.470000e+02 1.547930e-03
5.480000e+02 1.701252e-03
5.490000e+02 1.869094e-03
5.500000e+02 2.052757e-03
5.510000e+02 2.253667e-03
5.520000e+02 2.473364e-03
5.530000e+02 2.713523e-03
5.540000e+02 2.975959e-03
5.550000e+02 3.262641e-03
5.560000e+02 3.575703e-03
5.570000e+02 3.917454e-03
5.580000e+02 4.290400e-03
5.590000e+02 4.697250e-03
5.600000e+02 5.140941e-03
5.610000e+02 5.624646e-03
5.620000e+02 6.151801e-03
5.630000e+02 6.726121e-03
5.640000e+02 7.351621e-03
5.650000e+02 8.032638e-03
5.660000e+02 8.773872e-03
5.670000e+02 9.580375e-03
5.680000e+02 1.045762e-02
5.690000e+02 1.141151e-02
5.700000e+02 1.244840e-02
5.710000e+02 1.357520e-02
5.720000e+02 1.479928e-02
5.730000e+02 1.612865e-02
5.740000e+02 1.757190e-02
5.750000e+02 1.913850e-02
5.760000e+02 2.083680e-02
5.770000e+02 2.268159e-02
5.780000e+02 2.468060e-02
5.790000e+02 2.684756e-02
5.800000e+02 2.919589e-02
5.810000e+02 3.174001e-02
5.820000e+02 3.449538e-02
5.830000e+02 3.747850e-02
5.840000e+02 4.070086e-02
5.850000e+02 4.420070e-02
5.860000e+02 4.798263e-02
5.870000e+02 5.207111e-02
5.880000e+02 5.649129e-02
5.890000e+02 6.126840e-02
5.900000e+02 6.643122e-02
5.910000e+02 7.200787e-02
5.920000e+02 7.803034e-02
5.930000e+02 8.453244e-02
5.940000e+02 9.155042e-02
5.950000e+02 9.912200e-02
5.960000e+02 1.072922e-01
5.970000e+02 1.161021e-01
5.980000e+02 1.256005e-01
5.990000e+02 1.358386e-01
6.000000e+02 1.468708e-01
6.010000e+02 1.587539e-01
6.020000e+02 1.715557e-01
6.030000e+02 1.853376e-01
6.040000e+02 2.001727e-01
6.050000e+02 2.161377e-01
6.060000e+02 2.333132e-01
6.070000e+02 2.517878e-01
6.080000e+02 2.716532e-01
6.090000e+02 2.930090e-01
6.100000e+02 3.159611e-01
6.110000e+02 3.406228e-01
6.120000e+02 3.671144e-01
6.130000e+02 3.955646e-01
6.140000e+02 4.261105e-01
6.150000e+02 4.588986e-01
6.160000e+02 4.940843e-01
6.170000e+02 5.318337e-01
6.180000e+02 5.723237e-01
6.190000e+02 6.157425e-01
6.200000e+02 6.622908e-01
6.210000e+02 7.121819e-01
6.220000e+02 7.656430e-01
6.230000e+02 8.229158e-01
6.240000e+02 8.842574e-01
6.250000e+02 9.499412e-01
6.260000e+02 1.020258e+00
6.270000e+02 1.095517e+00
6.280000e+02 1.176046e+00
6.290000e+02 1.262194e+00
6.300000e+02 1.354333e+00
6.310000e+02 1.452775e+00
6.320000e+02 1.558180e+00
6.330000e+02 1.670748e+00
6.340000e+02 1.791039e+00
6.350000e+02 1.919541e+00
6.360000e+02 2.055982e+00
6.370000e+02 2.203356e+00
6.380000e+02 2.359824e+00
6.390000e+02 2.526830e+00
6.400000e+02 2.705046e+00
6.410000e+02 2.895181e+00
6.420000e+02 3.097988e+00
6.430000e+02 3.314266e+00
6.440000e+02 3.544858e+00
6.450000e+02 3.790657e+00
6.460000e+02 4.052615e+00
6.470000e+02 4.331724e+00
6.480000e+02 4.629062e+00
6.490000e+02 4.945735e+00
6.500000e+02 5.282934e+00
6.510000e+02 5.641917e+00
6.520000e+02 6.024009e+00
6.530000e+02 6.430614e+00
6.540000e+02 6.863214e+00
6.550000e+02 7.323379e+00
6.560000e+02 7.812762e+00
6.570000e+02 8.333035e+00
6.580000e+02 8.886279e+00
6.590000e+02 9.474213e+00
6.600000e+02 1.009897e+01
6.610000e+02 1.076273e+01
6.620000e+02 1.146778e+01
6.630000e+02 1.221654e+01
6.640000e+02 1.301158e+01
6.650000e+02 1.385556e+01
6.660000e+02 1.475136e+01
6.670000e+02 1.570194e+01
6.680000e+02 1.671048e+01
6.690000e+02 1.778029e+01
6.700000e+02 1.891487e+01
6.710000e+02 2.011794e+01
6.720000e+02 2.139332e+01
6.730000e+02 2.274525e+01
6.740000e+02 2.417792e+01
6.750000e+02 2.569589e+01
6.760000e+02 2.730396e+01
6.770000e+02 2.900715e+01
6.780000e+02 3.081075e+01
6.790000e+02 3.272035e+01
6.800000e+02 3.474179e+01
6.810000e+02 3.688122e+01
6.820000e+02 3.914514e+01
6.830000e+02 4.154035e+01
6.840000e+02 4.407400e+01
6.850000e+02 4.675359e+01
6.860000e+02 4.958710e+01
6.870000e+02 5.258263e+01
6.880000e+02 5.574930e+01
6.890000e+02 5.909590e+01
6.900000e+02 6.263214e+01
6.910000e+02 6.636821e+01
6.920000e+02 7.031461e+01
6.930000e+02 7.448251e+01
6.940000e+02 7.888355e+01
6.950000e+02 8.353001e+01
6.960000e+02 8.843473e+01
6.970000e+02 9.361035e+01
6.980000e+02 9.907346e+01
6.990000e+02 1.048364e+02
7.000000e+02 1.109156e+02
7.010000e+02 1.173272e+02
7.020000e+02 1.240884e+02
7.030000e+02 1.312170e+02
7.040000e+02 1.387318e+02
7.050000e+02 1.466523e+02
7.060000e+02 1.549990e+02
7.070000e+02 1.637936e+02
7.080000e+02 1.730586e+02
7.090000e+02 1.828173e+02
7.100000e+02 1.930948e+02
7.110000e+02 2.039167e+02
7.120000e+02 2.153100e+02
7.130000e+02 2.273030e+02
7.140000e+02 2.399253e+02
7.150000e+02 2.532079e+02
7.160000e+02 2.671830e+02
7.170000e+02 2.818840e+02
7.180000e+02 2.973456e+02
7.190000e+02 3.136097e+02
7.200000e+02 3.307091e+02
7.210000e+02 3.486861e+02
7.220000e+02 3.675829e+02
7.230000e+02 3.874438e+02
7.240000e+02 4.083145e+02
7.250000e+02 4.302432e+02
7.260000e+02 4.532800e+02
7.270000e+02 4.774774e+02
7.280000e+02 5.028900e+02
7.290000e+02 5.295749e+02
7.300000e+02 5.575917e+02
7.310000e+02 5.870025e+02
7.320000e+02 6.178722e+02
7.330000e+02 6.502684e+02
7.340000e+02 6.842617e+02
7.350000e+02 7.199257e+02
7.360000e+02 7.573368e+02
7.370000e+02 7.965759e+02
7.380000e+02 8.377255e+02
7.390000e+02 8.808728e+02
7.400000e+02 9.261075e+02
7.410000e+02 9.735267e+02
7.420000e+02 1.023225e+03
7.430000e+02 1.075309e+03
7.440000e+02 1.129882e+03
7.450000e+02 1.187057e+03
7.460000e+02 1.246948e+03
7.470000e+02 1.309678e+03
7.480000e+02 1.375370e+03
7.490000e+02 1.444156e+03
7.500000e+02 1.516172e+03
7.510000e+02 1.591559e+03
7.520000e+02 1.670464e+03
7.530000e+02 1.753041e+03
7.540000e+02 1.839448e+03
7.550000e+02 1.929852e+03
7.560000e+02 2.024425e+03
7.570000e+02 2.123334e+03
7.580000e+02 2.226800e+03
7.590000e+02 2.334979e+03
7.600000e+02 2.448094e+03
7.610000e+02 2.566346e+03
7.620000e+02 2.689953e+03
7.630000e+02 2.819142e+03
7.640000e+02 2.954147e+03
7.650000e+02 3.095213e+03
7.660000e+02 3.242594e+03
7.670000e+02 3.396552e+03
7.680000e+02 3.557352e+03
7.690000e+02 3.725302e+03
7.700000e+02 3.900674e+03
7.710000e+02 4.083780e+03
7.720000e+02 4.274938e+03
7.730000e+02 4.474477e+03
7.740000e+02 4.682739e+03
7.750000e+02 4.900080e+03
7.760000e+02 5.126750e+03
7.770000e+02 5.363481e+03
7.780000e+02 5.610321e+03
7.790000e+02 5.867793e+03
7.800000e+02 6.136327e+03
7.810000e+02 6.416364e+03
7.820000e+02 6.708359e+03
7.830000e+02 7.012789e+03
7.840000e+02 7.330148e+03
7.850000e+02 7.660942e+03
7.860000e+02 8.005700e+03
7.870000e+02 8.364982e+03
7.880000e+02 8.739335e+03
7.890000e+02 9.129355e+03
7.900000e+02 9.535650e+03
7.910000e+02 9.958854e+03
7.920000e+02 1.039962e+04
7.930000e+02 1.085862e+04
7.940000e+02 1.133656e+04
7.950000e+02 1.183415e+04
7.960000e+02 1.235216e+04
7.970000e+02 1.289136e+04
7.980000e+02 1.345255e+04
7.990000e+02 1.403657e+04
8.000000e+02 1.464427e+04
8.010000e+02 1.527654e+04
8.020000e+02 1.593432e+04
8.030000e+02 1.661855e+04
8.040000e+02 1.733021e+04
8.050000e+02 1.807033e+04
8.060000e+02 1.883996e+04
8.070000e+02 1.964019e+04
8.080000e+02 2.047214e+04
8.090000e+02 2.133699e+04
8.100000e+02 2.223593e+04
8.110000e+02 2.317022e+04
8.120000e+02 2.414113e+04
8.130000e+02 2.515000e+04
8.140000e+02 2.619820e+04
8.150000e+02 2.728713e+04
8.160000e+02 2.841832e+04
8.170000e+02 2.959322e+04
8.180000e+02 3.081342e+04
8.190000e+02 3.208052e+04
8.200000e+02 3.339621e+04
8.210000e+02 3.476219e+04
8.220000e+02 3.618025e+04
8.230000e+02 3.765222e+04
8.240000e+02 3.918001e+04
8.250000e+02 4.076556e+04
8.260000e+02 4.241090e+04
8.270000e+02 4.411810e+04
8.280000e+02 4.588932e+04
8.290000e+02 4.772677e+04
8.300000e+02 4.963275e+04
8.310000e+02 5.160961e+04
8.320000e+02 5.365979e+04
8.330000e+02 5.578579e+04
8.340000e+02 5.799021e+04
8.350000e+02 6.027311e+04
8.360000e+02 6.264491e+04
8.370000e+02 6.510110e+04
8.380000e+02 6.764668e+04
8.390000e+02 7.028499e+04
8.400000e+02 7.301898e+04
8.410000e+02 7.585187e+04
8.420000e+02 7.878630e+04
8.430000e+02 8.182787e+04
8.440000e+02 8.497781e+04
8.450000e+02 8.824052e+04
8.460000e+02 9.161970e+04
8.470000e+02 9.511919e+04
8.480000e+02 9.874294e+04
8.490000e+02 1.024950e+05
8.500000e+02 1.063796e+05
8.510000e+02 1.104010e+05
8.520000e+02 1.145636e+05
8.530000e+02 1.188721e+05
8.540000e+02 1.233314e+05
8.550000e+02 1.279458e+05
8.560000e+02 1.327206e+05
8.570000e+02 1.376609e+05
8.580000e+02 1.427719e+05
8.590000e+02 1.480592e+05
8.600000e+02 1.535282e+05
8.610000e+02 1.591848e+05
8.620000e+02 1.650348e+05
8.630000e+02 1.710843e+05
8.640000e+02 1.773398e+05
8.650000e+02 1.838073e+05
8.660000e+02 1.904939e+05
8.670000e+02 1.974061e+05
8.680000e+02 2.045509e+05
8.690000e+02 2.119356e+05
8.700000e+02 2.195673e+05
8.710000e+02 2.274544e+05
8.720000e+02 2.356039e+05
8.730000e+02 2.440241e+05
8.740000e+02 2.527234e+05
8.750000e+02 2.617101e+05
8.760000e+02 2.709930e+05
8.770000e+02 2.805808e+05
8.780000e+02 2.904835e+05
8.790000e+02 3.007098e+05
8.800000e+02 3.112696e+05
8.810000e+02 3.221730e+05
8.820000e+02 3.334301e+05
8.830000e+02 3.450516e+05
8.840000e+02 3.570481e+05
8.850000e+02 3.694309e+05
8.860000e+02 3.822112e+05
8.870000e+02 3.954010e+05
8.880000e+02 4.090120e+05
8.890000e+02 4.230568e+05
8.900000e+02 4.375479e+05
8.910000e+02 4.524983e+05
8.920000e+02 4.676328e+05
8.930000e+02 4.838308e+05
8.940000e+02 5.002407e+05
8.950000e+02 5.171652e+05
8.960000e+02 5.346197e+05
8.970000e+02 5.526189e+05
8.980000e+02 5.711783e+05
8.990000e+02 5.903141e+05
9.000000e+02 6.100426e+05
9.010000e+02 6.303805e+05
9.020000e+02 6.513451e+05
9.030000e+02 6.729542e+05
9.040000e+02 6.952233e+05
9.050000e+02 7.181779e+05
9.060000e+02 7.418308e+05
9.070000e+02 7.661988e+05
9.080000e+02 7.913150e+05
9.090000e+02 8.171871e+05
9.100000e+02 8.438403e+05
9.110000e+02 8.712978e+05
9.120000e+02 8.995872e+05
9.130000e+02 9.238803e+05
9.140000e+02 9.639423e+05
9.150000e+02 2.028687e+06
9.160000e+02 4.423178e+06
9.170000e+02 4.711791e+06
9.180000e+02 3.806252e+06
9.190000e+02 7.875772e+06
9.200000e+02 1.017641e+07
9.210000e+02 1.182156e+06
9.220000e+02 1.168606e+07
9.230000e+02 4.916518e+06
9.240000e+02 1.072298e+07
9.250000e+02 1.278721e+07
9.260000e+02 7.287934e+06
9.270000e+02 1.262707e+07
9.280000e+02 1.467491e+07
9.290000e+02 1.321318e+07
9.300000e+02 1.411930e+07
9.310000e+02 8.735539e+06
9.320000e+02 1.603391e+07
9.330000e+02 1.658750e+07
9.340000e+02 1.700417e+07
9.350000e+02 3.904540e+06
9.360000e+02 1.576033e+07
9.370000e+02 3.146860e+06
9.380000e+02 7.506387e+06
9.390000e+02 1.721001e+07
9.400000e+02 1.997439e+07
9.410000e+02 8.593243e+06
9.420000e+02 2.115069e+07
9.430000e+02 2.006003e+07
9.440000e+02 1.597259e+07
9.450000e+02 2.274143e+07
9.460000e+02 2.307633e+07
9.470000e+02 1.914840e+07
9.480000e+02 2.171419e+07
9.490000e+02 2.249335e+07
9.500000e+02 4.889406e+06
9.510000e+02 2.421833e+07
9.520000e+02 2.640523e+07
9.530000e+02 2.115198e+07
9.540000e+02 2.143976e+07
9.550000e+02 2.798351e+07
9.560000e+02 2.689225e+07
9.570000e+02 1.846477e+07
9.580000e+02 2.045625e+07
9.590000e+02 3.191492e+07
9.600000e+02 6.019986e+06
9.610000e+02 3.296796e+07
9.620000e+02 3.286511e+07
9.630000e+02 3.424916e+07
9.640000e+02 4.444616e+06
9.650000e+02 2.945720e+07
9.660000e+02 3.623633e+07
9.670000e+02 3.462433e+07
9.680000e+02 3.089005e+07
9.690000e+02 3.867241e+07
9.700000e+02 3.924042e+07
9.710000e+02 3.594750e+07
9.720000e+02 3.302636e+07
9.730000e+02 3.264882e+07
9.740000e+02 4.270018e+07
9.750000e+02 4.395720e+07
9.760000e+02 4.697496e+07
9.770000e+02 4.784997e+07
9.780000e+02 4.763739e+07
9.790000e+02 5.075890e+07
9.800000e+02 5.193175e+07
9.810000e+02 5.198149e+07
9.820000e+02 4.965774e+07
9.830000e+02 5.544161e+07
9.840000e+02 2.488183e+07
9.850000e+02 5.615633e+07
9.860000e+02 5.677058e+07
9.870000e+02 6.057192e+07
9.880000e+02 4.961042e+07
9.890000e+02 4.857237e+07
9.900000e+02 1.050383e+07
9.910000e+02 5.451558e+07
9.920000e+02 4.040091e+07
9.930000e+02 6.665096e+07
9.940000e+02 1.160655e+07
9.950000e+02 2.188439e+07
9.960000e+02 4.632639e+07
9.970000e+02 1.832331e+07
9.980000e+02 7.612269e+07
9.990000e+02 7.100854e+07
1.000000e+03 8.073507e+07
1.001000e+03 8.261483e+07
1.002000e+03 8.415734e+07
1.003000e+03 7.449414e+07
1.004000e+03 7.443517e+07
1.005000e+03 7.792346e+07
1.006000e+03 9.165299e+07
1.007000e+03 9.378317e+07
1.008000e+03 9.525459e+07
1.009000e+03 9.037753e+07
1.010000e+03 9.934310e+07
1.011000e+03 1.018000e+08
1.012000e+03 1.034026e+08
1.013000e+03 1.053030e+08
1.014000e+03 6.186078e+07
1.015000e+03 8.361577e+07
1.016000e+03 1.019720e+08
1.017000e+03 6.961297e+07
1.018000e+03 1.101194e+08
1.019000e+03 9.412691e+07
1.020000e+03 1.224030e+08
1.021000e+03 7.035579e+07
1.022000e+03 1.066292e+08
1.023000e+03 9.609012e+07
1.024000e+03 1.226499e+08
1.025000e+03 6.631562e+07
1.026000e+03 4.779780e+07
1.027000e+03 1.214369e+08
1.028000e+03 3.510062e+07
1.029000e+03 9.050221e+07
1.030000e+03 1.452786e+08
1.031000e+03 1.411053e+08
1.032000e+03 1.549401e+08
1.033000e+03 6.385027e+07
1.034000e+03 1.596594e+08
1.035000e+03 3.577574e+07
1.036000e+03 1.057790e+08
1.037000e+03 5.324127e+07
1.038000e+03 1.778812e+08
1.039000e+03 1.791652e+08
1.040000e+03 1.837156e+08
1.041000e+03 1.881237e+08
1.042000e+03 1.894799e+08
1.043000e+03 1.891174e+08
1.044000e+03 2.006666e+08
1.045000e+03 2.036661e+08
1.046000e+03 2.089149e+08
1.047000e+03 2.047978e+08
1.048000e+03 1.760813e+08
1.049000e+03 2.161539e+08
1.050000e+03 2.202913e+08
1.051000e+03 2.172076e+08
1.052000e+03 2.338963e+08
1.053000e+03 2.367410e+08
1.054000e+03 1.447342e+08
1.055000e+03 2.491022e+08
1.056000e+03 2.544468e+08
1.057000e+03 2.529338e+08
1.058000e+03 2.577125e+08
1.059000e+03 2.284287e+08
1.060000e+03 2.271088e+08
1.061000e+03 2.738927e+08
1.062000e+03 2.718731e+08
1.063000e+03 1.255524e+08
1.064000e+03 6.490251e+07
1.065000e+03 1.959855e+08
1.066000e+03 2.748654e+08
1.067000e+03 2.558383e+08
1.068000e+03 3.225315e+08
1.069000e+03 2.234738e+08
1.070000e+03 3.257537e+08
1.071000e+03 3.412154e+08
1.072000e+03 3.470789e+08
1.073000e+03 2.463251e+08
1.074000e+03 3.445523e+08
1.075000e+03 3.453758e+08
1.076000e+03 3.740992e+08
1.077000e+03 3.519672e+08
1.078000e+03 3.728245e+08
1.079000e+03 3.855138e+08
1.080000e+03 3.955039e+08
1.081000e+03 4.044981e+08
1.082000e+03 4.128634e+08
1.083000e+03 4.178776e+08
1.084000e+03 4.335305e+08
1.085000e+03 3.663346e+08
1.086000e+03 4.499712e+08
1.087000e+03 3.941124e+08
1.088000e+03 4.658703e+08
1.089000e+03 4.752416e+08
1.090000e+03 4.541997e+08
1.091000e+03 4.568194e+08
1.092000e+03 5.009970e+08
1.093000e+03 5.096059e+08
1.094000e+03 5.145767e+08
1.095000e+03 5.284583e+08
1.096000e+03 5.364956e+08
1.097000e+03 5.388877e+08
1.098000e+03 5.528294e+08
1.099000e+03 5.571496e+08
1.100000e+03 4.739718e+08
1.101000e+03 4.907838e+08
1.102000e+03 9.294202e+08
1.103000e+03 3.230960e+09
1.104000e+03 1.355617e+09
1.105000e+03 5.849262e+08
1.106000e+03 4.148272e+09
1.107000e+03 8.031327e+08
1.108000e+03 5.388062e+09
1.109000e+03 1.682769e+09
1.110000e+03 1.720935e+09
1.111000e+03 1.241778e+09
1.112000e+03 4.839196e+09
1.113000e+03 6.878393e+09
1.114000e+03 4.751002e+08
1.115000e+03 3.111929e+09
1.116000e+03 2.541763e+09
1.117000e+03 4.982088e+08
1.118000e+03 2.200282e+09
1.119000e+03 5.830822e+09
1.120000e+03 2.941216e+09
1.121000e+03 6.078039e+09
1.122000e+03 1.967636e+08
1.123000e+03 1.147640e+09
1.124000e+03 7.088929e+09
1.125000e+03 4.114762e+09
1.126000e+03 8.227148e+09
1.127000e+03 7.765231e+09
1.128000e+03 2.789507e+09
1.129000e+03 6.170725e+09
1.130000e+03 6.981557e+09
1.131000e+03 8.442978e+09
1.132000e+03 5.983002e+08
1.133000e+03 2.835774e+09
1.134000e+03 6.384287e+09
1.135000e+03 3.640584e+08
1.136000e+03 4.879428e+09
1.137000e+03 8.870129e+09
1.138000e+03 6.576142e+09
1.139000e+03 8.957439e+09
1.140000e+03 3.392735e+08
1.141000e+03 8.916765e+09
1.142000e+03 9.601352e+09
1.143000e+03 8.940878e+09
1.144000e+03 1.018591e+10
1.145000e+03 2.368174e+09
1.146000e+03 1.055599e+10
1.147000e+03 9.987231e+09
1.148000e+03 4.217918e+09
1.149000e+03 1.024521e+10
1.150000e+03 8.151265e+09
1.151000e+03 1.111113e+10
1.152000e+03 1.059839e+10
1.153000e+03 4.137500e+09
1.154000e+03 1.805744e+09
1.155000e+03 9.527677e+09
1.156000e+03 4.272172e+09
1.157000e+03 1.196128e+10
1.158000e+03 5.246918e+08
1.159000e+03 1.004929e+10
1.160000e+03 8.327011e+09
1.161000e+03 1.213579e+10
1.162000e+03 2.818448e+09
1.163000e+03 7.793680e+09
1.164000e+03 6.122793e+08
1.165000e+03 1.290102e+10
1.166000e+03 1.196594e+10
1.167000e+03 1.111234e+10
1.168000e+03 1.368197e+10
1.169000e+03 1.359799e+10
1.170000e+03 1.311253e+10
1.171000e+03 1.296341e+10
1.172000e+03 9.322291e+09
1.173000e+03 1.439589e+10
1.174000e+03 5.622248e+09
1.175000e+03 6.961592e+08
1.176000e+03 6.199142e+08
1.177000e+03 1.532887e+10
1.178000e+03 1.479106e+10
1.179000e+03 1.530519e+10
1.180000e+03 9.892591e+09
1.181000e+03 1.600359e+10
1.182000e+03 1.537317e+10
1.183000e+03 1.472293e+10
1.184000e+03 1.428345e+10
1.185000e+03 1.562180e+10
1.186000e+03 1.097782e+10
1.187000e+03 1.564848e+10
1.188000e+03 1.198034e+10
1.189000e+03 7.975035e+08
1.190000e+03 3.881233e+09
1.191000e+03 1.524926e+10
1.192000e+03 1.682590e+10
1.193000e+03 7.412439e+08
1.194000e+03 8.994161e+08
1.195000e+03 1.211536e+10
1.196000e+03 1.646426e+10
1.197000e+03 2.261836e+10
1.198000e+03 1.653977e+10
1.199000e+03 2.222506e+10
1.200000e+03 1.531958e+10
1.201000e+03 2.090467e+10
1.202000e+03 1.686742e+10
1.203000e+03 2.258130e+10
1.204000e+03 1.355386e+10
1.205000e+03 1.907962e+10
1.206000e+03 1.746376e+10
1.207000e+03 4.460386e+09
1.208000e+03 1.440661e+10
1.209000e+03 1.164186e+10
1.210000e+03 1.164613e+09
1.211000e+03 7.404398e+09
1.212000e+03 5.179917e+09
1.213000e+03 3.450253e+09
1.214000e+03 2.075128e+09
1.215000e+03 1.281522e+09
1.216000e+03 1.151984e+09
1.217000e+03 1.813655e+09
1.218000e+03 3.142182e+09
1.219000e+03 5.128649e+09
1.220000e+03 7.073308e+09
1.221000e+03 1.051585e+10
1.222000e+03 1.324030e+10
1.223000e+03 1.668841e+10
1.224000e+03 2.036859e+10
1.225000e+03 1.613716e+10
1.226000e+03 2.682590e+10
1.227000e+03 2.955707e+10
1.228000e+03 2.534233e+10
1.229000e+03 3.224697e+10
1.230000e+03 3.133245e+10
1.231000e+03 2.924688e+10
1.232000e+03 4.462869e+10
1.233000e+03 4.773186e+10
1.234000e+03 3.621007e+10
1.235000e+03 5.119160e+10
1.236000e+03 3.390842e+10
1.237000e+03 5.576282e+10
1.238000e+03 5.142665e+10
1.239000e+03 5.368080e+10
1.240000e+03 5.533454e+10
1.241000e+03 6.642715e+10
1.242000e+03 4.982643e+10
1.243000e+03 7.572842e+10
1.244000e+03 3.749456e+10
1.245000e+03 5.023015e+10
1.246000e+03 9.846161e+10
1.247000e+03 9.572470e+10
1.248000e+03 3.873553e+10
1.249000e+03 4.944624e+10
1.250000e+03 1.161036e+11
1.251000e+03 1.340905e+11
1.252000e+03 1.189038e+11
1.253000e+03 1.327569e+11
1.254000e+03 1.161365e+11
1.255000e+03 1.438216e+11
1.256000e+03 1.235800e+11
1.257000e+03 1.422235e+11
1.258000e+03 9.899593e+10
1.259000e+03 1.279219e+11
1.260000e+03 1.384700e+11
1.261000e+03 2.358535e+09
1.262000e+03 2.265264e+10
1.263000e+03 1.565094e+11
1.264000e+03 1.089226e+11
1.265000e+03 2.419769e+09
1.266000e+03 1.472449e+11
1.267000e+03 1.247633e+11
