# wavelength_A flux
5.000000e+02 4.554250e-32
5.010000e+02 5.763746e-32
5.020000e+02 7.287468e-32
5.030000e+02 9.205234e-32
5.040000e+02 1.161668e-31
5.050000e+02 1.465237e-31
5.060000e+02 1.845580e-31
5.070000e+02 2.322476e-31
5.080000e+02 2.919931e-31
5.090000e+02 3.667693e-31
5.100000e+02 4.601103e-31
5.110000e+02 5.770943e-31
5.120000e+02 7.229066e-31
5.130000e+02 9.047604e-31
5.140000e+02 1.131345e-30
5.150000e+02 1.413421e-30
5.160000e+02 1.764272e-30
5.170000e+02 2.200287e-30
5.180000e+02 2.741667e-30
5.190000e+02 3.413296e-30
5.200000e+02 4.245799e-30
5.210000e+02 5.276832e-30
5.220000e+02 6.552638e-30
5.230000e+02 8.130070e-30
5.240000e+02 1.007873e-29
5.250000e+02 1.248401e-29
5.260000e+02 1.545046e-29
5.270000e+02 1.910599e-29
5.280000e+02 2.360699e-29
5.290000e+02 2.914451e-29
5.300000e+02 3.595174e-29
5.310000e+02 4.431310e-29
5.320000e+02 5.457520e-29
5.330000e+02 6.716014e-29
5.340000e+02 8.258153e-29
5.350000e+02 1.014638e-28
5.360000e+02 1.245655e-28
5.370000e+02 1.527945e-28
5.380000e+02 1.873079e-28
5.390000e+02 2.294198e-28
5.400000e+02 2.807840e-28
5.410000e+02 3.433854e-28
5.420000e+02 4.196253e-28
5.430000e+02 5.124050e-28
5.440000e+02 6.252286e-28
5.450000e+02 7.623245e-28
5.460000e+02 9.287917e-28
5.470000e+02 1.130774e-27
5.480000e+02 1.375671e-27
5.490000e+02 1.672383e-27
5.500000e+02 2.031614e-27
5.510000e+02 2.466227e-27
5.520000e+02 2.991663e-27
5.530000e+02 3.626451e-27
5.540000e+02 4.392809e-27
5.550000e+02 5.317355e-27
5.560000e+02 6.431965e-27
5.570000e+02 7.774777e-27
5.580000e+02 9.391395e-27
5.590000e+02 1.133631e-26
5.600000e+02 1.367460e-26
5.610000e+02 1.648392e-26
5.620000e+02 1.985685e-26
5.630000e+02 2.390377e-26
5.640000e+02 2.875609e-26
5.650000e+02 3.457025e-26
5.660000e+02 4.153228e-26
5.670000e+02 4.986332e-26
5.680000e+02 5.982605e-26
5.690000e+02 7.173229e-26
5.700000e+02 8.595197e-26
5.710000e+02 1.029236e-25
5.720000e+02 1.231670e-25
5.730000e+02 1.472973e-25
5.740000e+02 1.760426e-25
5.750000e+02 2.102639e-25
5.760000e+02 2.509791e-25
5.770000e+02 2.993900e-25
5.780000e+02 3.569156e-25
5.790000e+02 4.252298e-25
5.800000e+02 5.063059e-25
5.810000e+02 6.024695e-25
5.820000e+02 7.164587e-25
5.830000e+02 8.514962e-25
5.840000e+02 1.011372e-24
5.850000e+02 1.200542e-24
5.860000e+02 1.424242e-24
5.870000e+02 1.688615e-24
5.880000e+02 2.000874e-24
5.890000e+02 2.369476e-24
5.900000e+02 2.804334e-24
5.910000e+02 3.317061e-24
5.920000e+02 3.921250e-24
5.930000e+02 4.632808e-24
5.940000e+02 5.470337e-24
5.950000e+02 6.455577e-24
5.960000e+02 7.613927e-24
5.970000e+02 8.975034e-24
5.980000e+02 1.057349e-23
5.990000e+02 1.244965e-23
6.000000e+02 1.465053e-23
6.010000e+02 1.723091e-23
6.020000e+02 2.025457e-23
6.030000e+02 2.379574e-23
6.040000e+02 2.794071e-23
6.050000e+02 3.278984e-23
6.060000e+02 3.845969e-23
6.070000e+02 4.508564e-23
6.080000e+02 5.282478e-23
6.090000e+02 6.185935e-23
6.100000e+02 7.240063e-23
6.110000e+02 8.469344e-23
6.120000e+02 9.902136e-23
6.130000e+02 1.157126e-22
6.140000e+02 1.351470e-22
6.150000e+02 1.577637e-22
6.160000e+02 1.840704e-22
6.170000e+02 2.146535e-22
6.180000e+02 2.501902e-22
6.190000e+02 2.914619e-22
6.200000e+02 3.393703e-22
6.210000e+02 3.949548e-22
6.220000e+02 4.594133e-22
6.230000e+02 5.341254e-22
6.240000e+02 6.206798e-22
6.250000e+02 7.209046e-22
6.260000e+02 8.369021e-22
6.270000e+02 9.710896e-22
6.280000e+02 1.126245e-21
6.290000e+02 1.305558e-21
6.300000e+02 1.512691e-21
6.310000e+02 1.751847e-21
6.320000e+02 2.027846e-21
6.330000e+02 2.346213e-21
6.340000e+02 2.713281e-21
6.350000e+02 3.136303e-21
6.360000e+02 3.623581e-21
6.370000e+02 4.184615e-21
6.380000e+02 4.830275e-21
6.390000e+02 5.572984e-21
6.400000e+02 6.426942e-21
6.410000e+02 7.408365e-21
6.420000e+02 8.535774e-21
6.430000e+02 9.830301e-21
6.440000e+02 1.131605e-20
6.450000e+02 1.302052e-20
6.460000e+02 1.497504e-20
6.470000e+02 1.721530e-20
6.480000e+02 1.978195e-20
6.490000e+02 2.272127e-20
6.500000e+02 2.608589e-20
6.510000e+02 2.993570e-20
6.520000e+02 3.433877e-20
6.530000e+02 3.937244e-20
6.540000e+02 4.512459e-20
6.550000e+02 5.169496e-20
6.560000e+02 5.919679e-20
6.570000e+02 6.775852e-20
6.580000e+02 7.752581e-20
6.590000e+02 8.866378e-20
6.600000e+02 1.013595e-19
6.610000e+02 1.158249e-19
6.620000e+02 1.322998e-19
6.630000e+02 1.510559e-19
6.640000e+02 1.724001e-19
6.650000e+02 1.966798e-19
6.660000e+02 2.242877e-19
6.670000e+02 2.556673e-19
6.680000e+02 2.913196e-19
6.690000e+02 3.318103e-19
6.700000e+02 3.777778e-19
6.710000e+02 4.299424e-19
6.720000e+02 4.891162e-19
6.730000e+02 5.562150e-19
6.740000e+02 6.322704e-19
6.750000e+02 7.184447e-19
6.760000e+02 8.160464e-19
6.770000e+02 9.265486e-19
6.780000e+02 1.051609e-18
6.790000e+02 1.193090e-18
6.800000e+02 1.353090e-18
6.810000e+02 1.533963e-18
6.820000e+02 1.738355e-18
6.830000e+02 1.969239e-18
6.840000e+02 2.229951e-18
6.850000e+02 2.524236e-18
6.860000e+02 2.856294e-18
6.870000e+02 3.230838e-18
6.880000e+02 3.653147e-18
6.890000e+02 4.129141e-18
6.900000e+02 4.665450e-18
6.910000e+02 5.269499e-18
6.920000e+02 5.949600e-18
6.930000e+02 6.715054e-18
6.940000e+02 7.576266e-18
6.950000e+02 8.544874e-18
6.960000e+02 9.633886e-18
6.970000e+02 1.085784e-17
6.980000e+02 1.223297e-17
6.990000e+02 1.377742e-17
7.000000e+02 1.551143e-17
7.010000e+02 1.745760e-17
7.020000e+02 1.964113e-17
7.030000e+02 2.209013e-17
7.040000e+02 2.483596e-17
7.050000e+02 2.791354e-17
7.060000e+02 3.136178e-17
7.070000e+02 3.522403e-17
7.080000e+02 3.954855e-17
7.090000e+02 4.438905e-17
7.100000e+02 4.980531e-17
7.110000e+02 5.586379e-17
7.120000e+02 6.263844e-17
7.130000e+02 7.021141e-17
7.140000e+02 7.867403e-17
7.150000e+02 8.812772e-17
7.160000e+02 9.868516e-17
7.170000e+02 1.104714e-16
7.180000e+02 1.236252e-16
7.190000e+02 1.383006e-16
7.200000e+02 1.546685e-16
7.210000e+02 1.729181e-16
7.220000e+02 1.932595e-16
7.230000e+02 2.159253e-16
7.240000e+02 2.411731e-16
7.250000e+02 2.692884e-16
7.260000e+02 3.005871e-16
7.270000e+02 3.354189e-16
7.280000e+02 3.741708e-16
7.290000e+02 4.172706e-16
7.300000e+02 4.651917e-16
7.310000e+02 5.184572e-16
7.320000e+02 5.776451e-16
7.330000e+02 6.433942e-16
7.340000e+02 7.164099e-16
7.350000e+02 7.974712e-16
7.360000e+02 8.874377e-16
7.370000e+02 9.872583e-16
7.380000e+02 1.097980e-15
7.390000e+02 1.220756e-15
7.400000e+02 1.356860e-15
7.410000e+02 1.507694e-15
7.420000e+02 1.674805e-15
7.430000e+02 1.859895e-15
7.440000e+02 2.064839e-15
7.450000e+02 2.291702e-15
7.460000e+02 2.542758e-15
7.470000e+02 2.820505e-15
7.480000e+02 3.127697e-15
7.490000e+02 3.467357e-15
7.500000e+02 3.842813e-15
7.510000e+02 4.257721e-15
7.520000e+02 4.716099e-15
7.530000e+02 5.222359e-15
7.540000e+02 5.781351e-15
7.550000e+02 6.398396e-15
7.560000e+02 7.079337e-15
7.570000e+02 7.830585e-15
7.580000e+02 8.659175e-15
7.590000e+02 9.572820e-15
7.600000e+02 1.057998e-14
7.610000e+02 1.168993e-14
7.620000e+02 1.291283e-14
7.630000e+02 1.425982e-14
7.640000e+02 1.574310e-14
7.650000e+02 1.737602e-14
7.660000e+02 1.917320e-14
7.670000e+02 2.115065e-14
7.680000e+02 2.332590e-14
7.690000e+02 2.571809e-14
7.700000e+02 2.834818e-14
7.710000e+02 3.123908e-14
7.720000e+02 3.441585e-14
7.730000e+02 3.790585e-14
7.740000e+02 4.173900e-14
7.750000e+02 4.594795e-14
7.760000e+02 5.056840e-14
7.770000e+02 5.563927e-14
7.780000e+02 6.120311e-14
7.790000e+02 6.730629e-14
7.800000e+02 7.399943e-14
7.810000e+02 8.133775e-14
7.820000e+02 8.938143e-14
7.830000e+02 9.819612e-14
7.840000e+02 1.078533e-13
7.850000e+02 1.184310e-13
7.860000e+02 1.300141e-13
7.870000e+02 1.426951e-13
7.880000e+02 1.565747e-13
7.890000e+02 1.717625e-13
7.900000e+02 1.883778e-13
7.910000e+02 2.065506e-13
7.920000e+02 2.264220e-13
7.930000e+02 2.481457e-13
7.940000e+02 2.718887e-13
7.950000e+02 2.978326e-13
7.960000e+02 3.261749e-13
7.970000e+02 3.571300e-13
7.980000e+02 3.909309e-13
7.990000e+02 4.278307e-13
8.000000e+02 4.681043e-13
8.010000e+02 5.120499e-13
8.020000e+02 5.599915e-13
8.030000e+02 6.122804e-13
8.040000e+02 6.692980e-13
8.050000e+02 7.314578e-13
8.060000e+02 7.992081e-13
8.070000e+02 8.730355e-13
8.080000e+02 9.534668e-13
8.090000e+02 1.041073e-12
8.100000e+02 1.136474e-12
8.110000e+02 1.240339e-12
8.120000e+02 1.353395e-12
8.130000e+02 1.476427e-12
8.140000e+02 1.610288e-12
8.150000e+02 1.755898e-12
8.160000e+02 1.914254e-12
8.170000e+02 2.086435e-12
8.180000e+02 2.273607e-12
8.190000e+02 2.477032e-12
8.200000e+02 2.698074e-12
8.210000e+02 2.938207e-12
8.220000e+02 3.199025e-12
8.230000e+02 3.482249e-12
8.240000e+02 3.789741e-12
8.250000e+02 4.123508e-12
8.260000e+02 4.485721e-12
8.270000e+02 4.878722e-12
8.280000e+02 5.305039e-12
8.290000e+02 5.767401e-12
8.300000e+02 6.268752e-12
8.310000e+02 6.812269e-12
8.320000e+02 7.401378e-12
8.330000e+02 8.039772e-12
8.340000e+02 8.731434e-12
8.350000e+02 9.480658e-12
8.360000e+02 1.029207e-11
8.370000e+02 1.117065e-11
8.380000e+02 1.212178e-11
8.390000e+02 1.315124e-11
8.400000e+02 1.426526e-11
8.410000e+02 1.547054e-11
8.420000e+02 1.677430e-11
8.430000e+02 1.818432e-11
8.440000e+02 1.970896e-11
8.450000e+02 2.135720e-11
8.460000e+02 2.313874e-11
8.470000e+02 2.506396e-11
8.480000e+02 2.714406e-11
8.490000e+02 2.939107e-11
8.500000e+02 3.181791e-11
8.510000e+02 3.443848e-11
8.520000e+02 3.726770e-11
8.530000e+02 4.032161e-11
8.540000e+02 4.361742e-11
8.550000e+02 4.717364e-11
8.560000e+02 5.101010e-11
8.570000e+02 5.514814e-11
8.580000e+02 5.961062e-11
8.590000e+02 6.442208e-11
8.600000e+02 6.960886e-11
8.610000e+02 7.519920e-11
8.620000e+02 8.122340e-11
8.630000e+02 8.771395e-11
8.640000e+02 9.470567e-11
8.650000e+02 1.022359e-10
8.660000e+02 1.103446e-10
8.670000e+02 1.190747e-10
8.680000e+02 1.284721e-10
8.690000e+02 1.385860e-10
8.700000e+02 1.494690e-10
8.710000e+02 1.611777e-10
8.720000e+02 1.737723e-10
8.730000e+02 1.873176e-10
8.740000e+02 2.018827e-10
8.750000e+02 2.175417e-10
8.760000e+02 2.343738e-10
8.770000e+02 2.524637e-10
8.780000e+02 2.719020e-10
8.790000e+02 2.927857e-10
8.800000e+02 3.152182e-10
8.810000e+02 3.393105e-10
8.820000e+02 3.651808e-10
8.830000e+02 3.929556e-10
8.840000e+02 4.227700e-10
8.850000e+02 4.547685e-10
8.860000e+02 4.891052e-10
8.870000e+02 5.259448e-10
8.880000e+02 5.654630e-10
8.890000e+02 6.078477e-10
8.900000e+02 6.532990e-10
8.910000e+02 7.020309e-10
8.920000e+02 7.542714e-10
8.930000e+02 8.102640e-10
8.940000e+02 8.702682e-10
8.950000e+02 9.345610e-10
8.960000e+02 1.003438e-09
8.970000e+02 1.077213e-09
8.980000e+02 1.156223e-09
8.990000e+02 1.240824e-09
9.000000e+02 1.331399e-09
9.010000e+02 1.428353e-09
9.020000e+02 1.532119e-09
9.030000e+02 1.643158e-09
9.040000e+02 1.761961e-09
9.050000e+02 1.889051e-09
9.060000e+02 2.024984e-09
9.070000e+02 2.170353e-09
9.080000e+02 2.325788e-09
9.090000e+02 2.491961e-09
9.100000e+02 2.669585e-09
9.110000e+02 2.859420e-09
9.120000e+02 3.062276e-09
9.130000e+02 3.279010e-09
9.140000e+02 3.529635e-09
9.150000e+02 8.316074e-07
9.160000e+02 5.651067e-06
9.170000e+02 2.549696e-07
9.180000e+02 1.073130e-06
9.190000e+02 1.648336e-05
9.200000e+02 4.859725e-05
9.210000e+02 5.635282e-09
9.220000e+02 2.948922e-05
9.230000e+02 2.066102e-07
9.240000e+02 4.710528e-07
9.250000e+02 5.008974e-06
9.260000e+02 1.536325e-06
9.270000e+02 3.957005e-07
9.280000e+02 2.964552e-04
9.290000e+02 2.899450e-04
9.300000e+02 5.836317e-05
9.310000e+02 3.714705e-07
9.320000e+02 2.248926e-04
9.330000e+02 3.954116e-05
9.340000e+02 9.383890e-06
9.350000e+02 4.985340e-07
9.360000e+02 1.250875e-06
9.370000e+02 1.287110e-07
9.380000e+02 3.323787e-07
9.390000e+02 3.572040e-06
9.400000e+02 3.059208e-04
9.410000e+02 2.366833e-05
9.420000e+02 9.511757e-04
9.430000e+02 5.909009e-06
9.440000e+02 1.070426e-03
9.450000e+02 1.010805e-03
9.460000e+02 1.285140e-04
9.470000e+02 1.404860e-07
9.480000e+02 2.917212e-04
9.490000e+02 2.684125e-05
9.500000e+02 4.340046e-07
9.510000e+02 6.657507e-05
9.520000e+02 2.007643e-04
9.530000e+02 1.194833e-06
9.540000e+02 1.553931e-07
9.550000e+02 1.502421e-05
9.560000e+02 1.441465e-03
9.570000e+02 6.350019e-06
9.580000e+02 7.612107e-08
9.590000e+02 9.768900e-04
9.600000e+02 1.012213e-06
9.610000e+02 1.814838e-04
9.620000e+02 5.638772e-05
9.630000e+02 8.574687e-06
9.640000e+02 1.355693e-06
9.650000e+02 4.728790e-07
9.660000e+02 1.621339e-05
9.670000e+02 2.582150e-06
9.680000e+02 1.703273e-06
9.690000e+02 1.103064e-04
9.700000e+02 1.245301e-04
9.710000e+02 3.754423e-06
9.720000e+02 1.332997e-06
9.730000e+02 5.191298e-06
9.740000e+02 9.070433e-05
9.750000e+02 3.296185e-05
9.760000e+02 1.226519e-03
9.770000e+02 7.052043e-04
9.780000e+02 2.476857e-04
9.790000e+02 5.042598e-03
9.800000e+02 5.136499e-03
9.810000e+02 1.584338e-04
9.820000e+02 2.428226e-05
9.830000e+02 4.629390e-03
9.840000e+02 1.309471e-04
9.850000e+02 6.555628e-05
9.860000e+02 1.017899e-04
9.870000e+02 5.358000e-03
9.880000e+02 1.436565e-06
9.890000e+02 9.578986e-04
9.900000e+02 1.787397e-03
9.910000e+02 2.357379e-05
9.920000e+02 5.268948e-07
9.930000e+02 9.585233e-03
9.940000e+02 8.016068e-07
9.950000e+02 3.716408e-04
9.960000e+02 5.970709e-06
9.970000e+02 2.204988e-04
9.980000e+02 3.386531e-03
9.990000e+02 4.110517e-05
1.000000e+03 1.580312e-02
1.001000e+03 1.372255e-02
1.002000e+03 1.344422e-02
1.003000e+03 4.421594e-05
1.004000e+03 2.389774e-06
1.005000e+03 1.731925e-04
1.006000e+03 1.099519e-02
1.007000e+03 1.650220e-02
1.008000e+03 6.061262e-03
1.009000e+03 6.564874e-05
1.010000e+03 6.297382e-03
1.011000e+03 9.386244e-03
1.012000e+03 8.245166e-03
1.013000e+03 7.543855e-03
1.014000e+03 1.778593e-06
1.015000e+03 4.339032e-06
1.016000e+03 2.018688e-04
1.017000e+03 1.928769e-06
1.018000e+03 6.695231e-05
1.019000e+03 4.049391e-06
1.020000e+03 1.104648e-02
1.021000e+03 1.184028e-04
1.022000e+03 1.802170e-04
1.023000e+03 1.015444e-05
1.024000e+03 8.363831e-04
1.025000e+03 2.907382e-06
1.026000e+03 4.436643e-06
1.027000e+03 2.881651e-04
1.028000e+03 2.605608e-05
1.029000e+03 3.763475e-06
1.030000e+03 8.861404e-04
1.031000e+03 1.809303e-03
1.032000e+03 2.309767e-02
1.033000e+03 2.815900e-04
1.034000e+03 2.495631e-03
1.035000e+03 1.596659e-05
1.036000e+03 6.006099e-06
1.037000e+03 2.674407e-02
1.038000e+03 1.326252e-01
1.039000e+03 2.985565e-02
1.040000e+03 3.043219e-02
1.041000e+03 1.663015e-01
1.042000e+03 1.069456e-01
1.043000e+03 9.207722e-02
1.044000e+03 2.765937e-01
1.045000e+03 1.650940e-05
1.046000e+03 2.867244e-02
1.047000e+03 7.029638e-03
1.048000e+03 1.116842e-04
1.049000e+03 7.399263e-03
1.050000e+03 1.700059e-03
1.051000e+03 8.410811e-04
1.052000e+03 1.329442e-01
1.053000e+03 2.476959e-01
1.054000e+03 1.385063e-05
1.055000e+03 2.775849e-01
1.056000e+03 3.081461e-01
1.057000e+03 2.279372e-02
1.058000e+03 8.764705e-04
1.059000e+03 5.487204e-04
1.060000e+03 1.661927e-04
1.061000e+03 4.641598e-02
1.062000e+03 4.505984e-04
1.063000e+03 1.336358e-02
1.064000e+03 3.445148e-05
1.065000e+03 2.394617e-05
1.066000e+03 6.492027e-02
1.067000e+03 5.601505e-04
1.068000e+03 6.083812e-01
1.069000e+03 1.290241e-04
1.070000e+03 9.727836e-03
1.071000e+03 2.647480e-01
1.072000e+03 5.823253e-01
1.073000e+03 4.208088e-05
1.074000e+03 2.435774e-02
1.075000e+03 1.277846e-02
1.076000e+03 6.052000e-01
1.077000e+03 4.388765e-04
1.078000e+03 1.201212e-03
1.079000e+03 6.336731e-03
1.080000e+03 2.807463e-02
1.081000e+03 1.825135e-01
1.082000e+03 9.182775e-02
1.083000e+03 4.260546e-02
1.084000e+03 1.213500e+00
1.085000e+03 8.206129e-03
1.086000e+03 1.038429e+00
1.087000e+03 1.457214e-03
1.088000e+03 1.421016e+00
1.089000e+03 1.472516e+00
1.090000e+03 6.364628e-03
1.091000e+03 9.742856e-03
1.092000e+03 1.358151e+00
1.093000e+03 1.575173e+00
1.094000e+03 1.142061e-01
1.095000e+03 1.867699e+00
1.096000e+03 7.635618e-02
1.097000e+03 6.438221e-01
1.098000e+03 1.827727e+00
1.099000e+03 2.571726e-02
1.100000e+03 3.827773e-04
1.101000e+03 1.142732e-03
1.102000e+03 1.623792e-02
1.103000e+03 2.066675e+00
1.104000e+03 2.427641e+00
1.105000e+03 2.342694e+00
1.106000e+03 9.690069e-02
1.107000e+03 6.893873e-04
1.108000e+03 8.443538e-01
1.109000e+03 8.775711e-03
1.110000e+03 2.805902e+00
1.111000e+03 1.974531e+00
1.112000e+03 3.451669e-01
1.113000e+03 2.132232e+00
1.114000e+03 1.732670e-01
1.115000e+03 1.081888e-02
1.116000e+03 4.090088e-03
1.117000e+03 2.325617e+00
1.118000e+03 1.493028e-02
1.119000e+03 4.031504e-01
1.120000e+03 5.918026e-03
1.121000e+03 1.817660e+00
1.122000e+03 4.304142e+00
1.123000e+03 3.497533e+00
1.124000e+03 4.089520e+00
1.125000e+03 2.089326e+00
1.126000e+03 6.123969e+00
1.127000e+03 2.672644e+00
1.128000e+03 3.498404e+00
1.129000e+03 1.109314e+00
1.130000e+03 4.148139e+00
1.131000e+03 3.977303e+00
1.132000e+03 1.073650e-02
1.133000e+03 8.619595e-02
1.134000e+03 1.339766e+00
1.135000e+03 2.848673e+00
1.136000e+03 1.904936e-01
1.137000e+03 3.096951e+00
1.138000e+03 1.005935e+00
1.139000e+03 4.264119e+00
1.140000e+03 4.088636e+00
1.141000e+03 4.050318e+00
1.142000e+03 4.376773e+00
1.143000e+03 1.358070e+00
1.144000e+03 4.316268e+00
1.145000e+03 5.677938e-03
1.146000e+03 4.632186e+00
1.147000e+03 4.406304e+00
1.148000e+03 4.664421e-02
1.149000e+03 3.364946e+00
1.150000e+03 2.681731e+00
1.151000e+03 4.500778e+00
1.152000e+03 3.721428e+00
1.153000e+03 4.238218e+00
1.154000e+03 4.480573e+00
1.155000e+03 3.067333e+00
1.156000e+03 3.533211e+00
1.157000e+03 4.112472e+00
1.158000e+03 1.408329e+00
1.159000e+03 4.200483e+00
1.160000e+03 1.696655e+00
1.161000e+03 3.850841e+00
1.162000e+03 2.021344e-01
1.163000e+03 7.283549e-01
1.164000e+03 1.315904e-02
1.165000e+03 2.201815e+00
1.166000e+03 1.227820e+00
1.167000e+03 8.970244e-01
1.168000e+03 4.460222e+00
1.169000e+03 4.589185e+00
1.170000e+03 8.133227e-01
1.171000e+03 2.263838e+00
1.172000e+03 1.440014e+00
1.173000e+03 1.668267e+00
1.174000e+03 3.539908e-02
1.175000e+03 9.667158e-03
1.176000e+03 3.950179e-03
1.177000e+03 5.690174e+00
1.178000e+03 5.432528e+00
1.179000e+03 5.082658e+00
1.180000e+03 3.541563e+00
1.181000e+03 4.782317e+00
1.182000e+03 4.553984e+00
1.183000e+03 3.405505e+00
1.184000e+03 3.021121e+00
1.185000e+03 3.318676e+00
1.186000e+03 1.851900e-01
1.187000e+03 3.737990e+00
1.188000e+03 2.372620e+00
1.189000e+03 3.821825e+00
1.190000e+03 3.719350e+00
1.191000e+03 3.324239e+00
1.192000e+03 3.199972e+00
1.193000e+03 2.935722e+00
1.194000e+03 3.075596e+00
1.195000e+03 2.937007e+00
1.196000e+03 2.645884e+01
1.197000e+03 2.949952e+01
1.198000e+03 6.400471e-01
1.199000e+03 2.634847e+01
1.200000e+03 2.191822e+00
1.201000e+03 2.182184e+01
1.202000e+03 1.111227e+01
1.203000e+03 1.675914e+01
1.204000e+03 2.096285e+00
1.205000e+03 1.177914e+01
1.206000e+03 9.823875e+00
1.207000e+03 1.640892e+00
1.208000e+03 5.146851e+00
1.209000e+03 3.976313e+00
1.210000e+03 1.822925e-02
1.211000e+03 1.534821e+00
1.212000e+03 7.426559e-01
1.213000e+03 3.400731e-01
1.214000e+03 9.985484e-02
1.215000e+03 1.768029e-02
1.216000e+03 1.525872e-02
1.217000e+03 6.236305e-02
1.218000e+03 2.777888e-01
1.219000e+03 7.514239e-01
1.220000e+03 1.051307e+00
1.221000e+03 3.042524e+00
1.222000e+03 4.868445e+00
1.223000e+03 6.470428e+00
1.224000e+03 1.020181e+01
1.225000e+03 9.790277e-01
1.226000e+03 2.005986e+01
1.227000e+03 2.567087e+01
1.228000e+03 7.977442e+00
1.229000e+03 3.454627e+01
1.230000e+03 2.973573e+01
1.231000e+03 4.645737e+00
1.232000e+03 5.734785e+01
1.233000e+03 6.469273e+01
1.234000e+03 5.764953e+01
1.235000e+03 7.394698e+01
1.236000e+03 1.488293e+01
1.237000e+03 8.953446e+01
1.238000e+03 9.290568e+01
1.239000e+03 7.105589e+01
1.240000e+03 3.255838e+01
1.241000e+03 7.629674e+01
1.242000e+03 1.086794e+02
1.243000e+03 1.245027e+02
1.244000e+03 1.314596e+02
1.245000e+03 1.340450e+02
1.246000e+03 1.185443e+02
1.247000e+03 1.353138e+02
1.248000e+03 1.213877e+02
1.249000e+03 1.597707e+02
1.250000e+03 1.219158e+02
1.251000e+03 1.688623e+02
1.252000e+03 1.585408e+02
1.253000e+03 1.779689e+02
1.254000e+03 1.702712e+02
1.255000e+03 6.568951e+01
1.256000e+03 1.499283e+02
1.257000e+03 1.295916e+02
1.258000e+03 1.255699e+02
1.259000e+03 1.549831e+02
1.260000e+03 2.025551e+02
1.261000e+03 7.279068e+00
1.262000e+03 2.119344e+02
1.263000e+03 2.027879e+02
1.264000e+03 1.507946e+02
1.265000e+03 5.338219e+01
1.266000e+03 2.404499e+02
1.267000e+03 2.063628e+02
