# wavelength_A flux
5.000000e+02 2.371660e-28
5.010000e+02 2.950676e-28
5.020000e+02 3.667786e-28
5.030000e+02 4.555146e-28
5.040000e+02 5.652215e-28
5.050000e+02 7.012906e-28
5.060000e+02 8.686535e-28
5.070000e+02 1.075017e-27
5.080000e+02 1.329285e-27
5.090000e+02 1.642279e-27
5.100000e+02 2.025858e-27
5.110000e+02 2.500361e-27
5.120000e+02 3.081267e-27
5.130000e+02 3.794052e-27
5.140000e+02 4.667810e-27
5.150000e+02 5.738066e-27
5.160000e+02 7.047944e-27
5.170000e+02 8.649813e-27
5.180000e+02 1.060717e-26
5.190000e+02 1.299700e-26
5.200000e+02 1.591253e-26
5.210000e+02 1.946662e-26
5.220000e+02 2.379558e-26
5.230000e+02 2.906467e-26
5.240000e+02 3.547261e-26
5.250000e+02 4.325970e-26
5.260000e+02 5.271551e-26
5.270000e+02 6.418891e-26
5.280000e+02 7.809981e-26
5.290000e+02 9.495333e-26
5.300000e+02 1.153567e-25
5.310000e+02 1.400392e-25
5.320000e+02 1.698761e-25
5.330000e+02 2.059172e-25
5.340000e+02 2.494207e-25
5.350000e+02 3.018935e-25
5.360000e+02 3.651390e-25
5.370000e+02 4.412286e-25
5.380000e+02 5.329959e-25
5.390000e+02 6.432631e-25
5.400000e+02 7.757888e-25
5.410000e+02 9.349536e-25
5.420000e+02 1.125980e-24
5.430000e+02 1.355085e-24
5.440000e+02 1.629669e-24
5.450000e+02 1.958534e-24
5.460000e+02 2.352139e-24
5.470000e+02 2.822910e-24
5.480000e+02 3.385593e-24
5.490000e+02 4.057680e-24
5.500000e+02 4.859905e-24
5.510000e+02 5.816829e-24
5.520000e+02 6.957527e-24
5.530000e+02 8.316396e-24
5.540000e+02 9.934106e-24
5.550000e+02 1.185870e-23
5.560000e+02 1.414693e-23
5.570000e+02 1.686572e-23
5.580000e+02 2.009403e-23
5.590000e+02 2.392490e-23
5.600000e+02 2.846792e-23
5.610000e+02 3.385208e-23
5.620000e+02 4.022911e-23
5.630000e+02 4.777739e-23
5.640000e+02 5.670650e-23
5.650000e+02 6.726251e-23
5.660000e+02 7.973418e-23
5.670000e+02 9.446017e-23
5.680000e+02 1.118374e-22
5.690000e+02 1.323308e-22
5.700000e+02 1.564846e-22
5.710000e+02 1.849358e-22
5.720000e+02 2.184287e-22
5.730000e+02 2.578337e-22
5.740000e+02 3.041671e-22
5.750000e+02 3.586150e-22
5.760000e+02 4.225614e-22
5.770000e+02 4.976201e-22
5.780000e+02 5.856709e-22
5.790000e+02 6.889036e-22
5.800000e+02 8.098671e-22
5.810000e+02 9.515263e-22
5.820000e+02 1.117328e-21
5.830000e+02 1.311279e-21
5.840000e+02 1.538029e-21
5.850000e+02 1.802984e-21
5.860000e+02 2.112404e-21
5.870000e+02 2.473553e-21
5.880000e+02 2.894850e-21
5.890000e+02 3.386045e-21
5.900000e+02 3.958426e-21
5.910000e+02 4.625050e-21
5.920000e+02 5.401020e-21
5.930000e+02 6.303792e-21
5.940000e+02 7.353528e-21
5.950000e+02 8.573511e-21
5.960000e+02 9.990605e-21
5.970000e+02 1.163580e-20
5.980000e+02 1.354482e-20
5.990000e+02 1.575883e-20
6.000000e+02 1.832523e-20
6.010000e+02 2.129858e-20
6.020000e+02 2.474167e-20
6.030000e+02 2.872670e-20
6.040000e+02 3.333663e-20
6.050000e+02 3.866677e-20
6.060000e+02 4.482659e-20
6.070000e+02 5.194169e-20
6.080000e+02 6.015617e-20
6.090000e+02 6.963522e-20
6.100000e+02 8.056817e-20
6.110000e+02 9.317190e-20
6.120000e+02 1.076947e-19
6.130000e+02 1.244207e-19
6.140000e+02 1.436749e-19
6.150000e+02 1.658290e-19
6.160000e+02 1.913074e-19
6.170000e+02 2.205954e-19
6.180000e+02 2.542465e-19
6.190000e+02 2.928929e-19
6.200000e+02 3.372552e-19
6.210000e+02 3.881555e-19
6.220000e+02 4.465301e-19
6.230000e+02 5.134462e-19
6.240000e+02 5.901183e-19
6.250000e+02 6.779291e-19
6.260000e+02 7.784513e-19
6.270000e+02 8.934732e-19
6.280000e+02 1.025028e-18
6.290000e+02 1.175424e-18
6.300000e+02 1.347283e-18
6.310000e+02 1.543583e-18
6.320000e+02 1.767703e-18
6.330000e+02 2.023469e-18
6.340000e+02 2.315227e-18
6.350000e+02 2.647895e-18
6.360000e+02 3.027048e-18
6.370000e+02 3.458996e-18
6.380000e+02 3.950880e-18
6.390000e+02 4.510779e-18
6.400000e+02 5.147829e-18
6.410000e+02 5.872356e-18
6.420000e+02 6.696027e-18
6.430000e+02 7.632018e-18
6.440000e+02 8.695208e-18
6.450000e+02 9.902381e-18
6.460000e+02 1.127247e-17
6.470000e+02 1.282684e-17
6.480000e+02 1.458955e-17
6.490000e+02 1.658772e-17
6.500000e+02 1.885188e-17
6.510000e+02 2.141642e-17
6.520000e+02 2.432002e-17
6.530000e+02 2.760622e-17
6.540000e+02 3.132394e-17
6.550000e+02 3.552821e-17
6.560000e+02 4.028083e-17
6.570000e+02 4.565123e-17
6.580000e+02 5.171736e-17
6.590000e+02 5.856670e-17
6.600000e+02 6.629739e-17
6.610000e+02 7.501952e-17
6.620000e+02 8.485647e-17
6.630000e+02 9.594653e-17
6.640000e+02 1.084446e-16
6.650000e+02 1.225242e-16
6.660000e+02 1.383795e-16
6.670000e+02 1.562277e-16
6.680000e+02 1.763120e-16
6.690000e+02 1.989041e-16
6.700000e+02 2.243079e-16
6.710000e+02 2.528627e-16
6.720000e+02 2.849479e-16
6.730000e+02 3.209868e-16
6.740000e+02 3.614519e-16
6.750000e+02 4.068707e-16
6.760000e+02 4.578312e-16
6.770000e+02 5.149894e-16
6.780000e+02 5.790761e-16
6.790000e+02 6.509061e-16
6.800000e+02 7.313864e-16
6.810000e+02 8.215275e-16
6.820000e+02 9.224538e-16
6.830000e+02 1.035417e-15
6.840000e+02 1.161808e-15
6.850000e+02 1.303175e-15
6.860000e+02 1.461239e-15
6.870000e+02 1.637911e-15
6.880000e+02 1.835316e-15
6.890000e+02 2.055811e-15
6.900000e+02 2.302015e-15
6.910000e+02 2.576834e-15
6.920000e+02 2.883491e-15
6.930000e+02 3.225562e-15
6.940000e+02 3.607009e-15
6.950000e+02 4.032227e-15
6.960000e+02 4.506082e-15
6.970000e+02 5.033966e-15
6.980000e+02 5.621849e-15
6.990000e+02 6.276338e-15
7.000000e+02 7.004747e-15
7.010000e+02 7.815163e-15
7.020000e+02 8.716534e-15
7.030000e+02 9.718748e-15
7.040000e+02 1.083273e-14
7.050000e+02 1.207057e-14
7.060000e+02 1.344560e-14
7.070000e+02 1.497254e-14
7.080000e+02 1.666766e-14
7.090000e+02 1.854889e-14
7.100000e+02 2.063603e-14
7.110000e+02 2.295090e-14
7.120000e+02 2.551758e-14
7.130000e+02 2.836258e-14
7.140000e+02 3.151513e-14
7.150000e+02 3.500742e-14
7.160000e+02 3.887492e-14
7.170000e+02 4.315665e-14
7.180000e+02 4.789556e-14
7.190000e+02 5.313893e-14
7.200000e+02 5.893873e-14
7.210000e+02 6.535214e-14
7.220000e+02 7.244198e-14
7.230000e+02 8.027735e-14
7.240000e+02 8.893410e-14
7.250000e+02 9.849560e-14
7.260000e+02 1.090534e-13
7.270000e+02 1.207078e-13
7.280000e+02 1.335693e-13
7.290000e+02 1.477587e-13
7.300000e+02 1.634087e-13
7.310000e+02 1.806649e-13
7.320000e+02 1.996867e-13
7.330000e+02 2.206490e-13
7.340000e+02 2.437431e-13
7.350000e+02 2.691791e-13
7.360000e+02 2.971865e-13
7.370000e+02 3.280168e-13
7.380000e+02 3.619453e-13
7.390000e+02 3.992732e-13
7.400000e+02 4.403299e-13
7.410000e+02 4.854758e-13
7.420000e+02 5.351046e-13
7.430000e+02 5.896470e-13
7.440000e+02 6.495735e-13
7.450000e+02 7.153980e-13
7.460000e+02 7.876819e-13
7.470000e+02 8.670380e-13
7.480000e+02 9.541356e-13
7.490000e+02 1.049705e-12
7.500000e+02 1.154542e-12
7.510000e+02 1.269517e-12
7.520000e+02 1.395577e-12
7.530000e+02 1.533755e-12
7.540000e+02 1.685177e-12
7.550000e+02 1.851070e-12
7.560000e+02 2.032772e-12
7.570000e+02 2.231738e-12
7.580000e+02 2.449554e-12
7.590000e+02 2.687945e-12
7.600000e+02 2.948790e-12
7.610000e+02 3.234133e-12
7.620000e+02 3.546197e-12
7.630000e+02 3.887400e-12
7.640000e+02 4.260372e-12
7.650000e+02 4.667969e-12
7.660000e+02 5.113299e-12
7.670000e+02 5.599735e-12
7.680000e+02 6.130943e-12
7.690000e+02 6.710905e-12
7.700000e+02 7.343942e-12
7.710000e+02 8.034746e-12
7.720000e+02 8.788411e-12
7.730000e+02 9.610459e-12
7.740000e+02 1.050688e-11
7.750000e+02 1.148419e-11
7.760000e+02 1.254941e-11
7.770000e+02 1.371019e-11
7.780000e+02 1.497482e-11
7.790000e+02 1.635225e-11
7.800000e+02 1.785221e-11
7.810000e+02 1.948522e-11
7.820000e+02 2.126267e-11
7.830000e+02 2.319689e-11
7.840000e+02 2.530125e-11
7.850000e+02 2.759017e-11
7.860000e+02 3.007929e-11
7.870000e+02 3.278552e-11
7.880000e+02 3.572712e-11
7.890000e+02 3.892386e-11
7.900000e+02 4.239709e-11
7.910000e+02 4.616990e-11
7.920000e+02 5.026721e-11
7.930000e+02 5.471597e-11
7.940000e+02 5.954526e-11
7.950000e+02 6.478648e-11
7.960000e+02 7.047355e-11
7.970000e+02 7.664305e-11
7.980000e+02 8.333446e-11
7.990000e+02 9.059039e-11
8.000000e+02 9.845676e-11
8.010000e+02 1.069831e-10
8.020000e+02 1.162229e-10
8.030000e+02 1.262336e-10
8.040000e+02 1.370774e-10
8.050000e+02 1.488211e-10
8.060000e+02 1.615366e-10
8.070000e+02 1.753017e-10
8.080000e+02 1.901997e-10
8.090000e+02 2.063207e-10
8.100000e+02 2.237613e-10
8.110000e+02 2.426259e-10
8.120000e+02 2.630264e-10
8.130000e+02 2.850835e-10
8.140000e+02 3.089268e-10
8.150000e+02 3.346957e-10
8.160000e+02 3.625403e-10
8.170000e+02 3.926215e-10
8.180000e+02 4.251127e-10
8.190000e+02 4.601998e-10
8.200000e+02 4.980829e-10
8.210000e+02 5.389765e-10
8.220000e+02 5.831113e-10
8.230000e+02 6.307348e-10
8.240000e+02 6.821128e-10
8.250000e+02 7.375305e-10
8.260000e+02 7.972938e-10
8.270000e+02 8.617312e-10
8.280000e+02 9.311948e-10
8.290000e+02 1.006062e-09
8.300000e+02 1.086739e-09
8.310000e+02 1.173658e-09
8.320000e+02 1.267286e-09
8.330000e+02 1.368121e-09
8.340000e+02 1.476697e-09
8.350000e+02 1.593587e-09
8.360000e+02 1.719404e-09
8.370000e+02 1.854805e-09
8.380000e+02 2.000492e-09
8.390000e+02 2.157217e-09
8.400000e+02 2.325787e-09
8.410000e+02 2.507063e-09
8.420000e+02 2.701968e-09
8.430000e+02 2.911486e-09
8.440000e+02 3.136674e-09
8.450000e+02 3.378660e-09
8.460000e+02 3.638650e-09
8.470000e+02 3.917933e-09
8.480000e+02 4.217886e-09
8.490000e+02 4.539984e-09
8.500000e+02 4.885798e-09
8.510000e+02 5.257010e-09
8.520000e+02 5.655415e-09
8.530000e+02 6.082929e-09
8.540000e+02 6.541599e-09
8.550000e+02 7.033610e-09
8.560000e+02 7.561294e-09
8.570000e+02 8.127137e-09
8.580000e+02 8.733798e-09
8.590000e+02 9.384106e-09
8.600000e+02 1.008108e-08
8.610000e+02 1.082795e-08
8.620000e+02 1.162814e-08
8.630000e+02 1.248533e-08
8.640000e+02 1.340340e-08
8.650000e+02 1.438652e-08
8.660000e+02 1.543913e-08
8.670000e+02 1.656594e-08
8.680000e+02 1.777199e-08
8.690000e+02 1.906264e-08
8.700000e+02 2.044358e-08
8.710000e+02 2.192090e-08
8.720000e+02 2.350106e-08
8.730000e+02 2.519094e-08
8.740000e+02 2.699787e-08
8.750000e+02 2.892963e-08
8.760000e+02 3.099453e-08
8.770000e+02 3.320137e-08
8.780000e+02 3.555954e-08
8.790000e+02 3.807902e-08
8.800000e+02 4.077039e-08
8.810000e+02 4.364493e-08
8.820000e+02 4.671464e-08
8.830000e+02 4.999222e-08
8.840000e+02 5.349122e-08
8.850000e+02 5.722600e-08
8.860000e+02 6.121184e-08
8.870000e+02 6.546492e-08
8.880000e+02 7.000249e-08
8.890000e+02 7.484280e-08
8.900000e+02 8.000527e-08
8.910000e+02 8.551049e-08
8.920000e+02 9.138032e-08
8.930000e+02 9.763795e-08
8.940000e+02 1.043080e-07
8.950000e+02 1.114165e-07
8.960000e+02 1.189913e-07
8.970000e+02 1.270615e-07
8.980000e+02 1.356585e-07
8.990000e+02 1.448151e-07
9.000000e+02 1.545664e-07
9.010000e+02 1.649495e-07
9.020000e+02 1.760035e-07
9.030000e+02 1.877702e-07
9.040000e+02 2.002937e-07
9.050000e+02 2.136206e-07
9.060000e+02 2.278005e-07
9.070000e+02 2.428857e-07
9.080000e+02 2.589317e-07
9.090000e+02 2.759973e-07
9.100000e+02 2.941446e-07
9.110000e+02 3.134394e-07
9.120000e+02 3.339514e-07
9.130000e+02 3.557541e-07
9.140000e+02 3.797431e-07
9.150000e+02 5.198426e-05
9.160000e+02 3.484127e-04
9.170000e+02 6.166480e-05
9.180000e+02 6.657057e-05
9.190000e+02 9.605074e-04
9.200000e+02 2.677605e-03
9.210000e+02 5.870070e-07
9.220000e+02 2.600099e-03
9.230000e+02 2.446019e-05
9.240000e+02 1.810733e-04
9.250000e+02 1.075808e-03
9.260000e+02 9.337973e-05
9.270000e+02 1.331192e-04
9.280000e+02 1.422335e-02
9.290000e+02 1.364864e-02
9.300000e+02 3.130961e-03
9.310000e+02 4.884426e-05
9.320000e+02 1.085045e-02
9.330000e+02 6.773923e-03
9.340000e+02 2.467448e-03
9.350000e+02 3.413551e-05
9.360000e+02 3.464986e-04
9.370000e+02 1.227306e-05
9.380000e+02 2.109467e-05
9.390000e+02 7.253603e-04
9.400000e+02 2.183099e-02
9.410000e+02 1.349417e-03
9.420000e+02 3.928959e-02
9.430000e+02 1.362771e-03
9.440000e+02 4.240072e-02
9.450000e+02 4.277022e-02
9.460000e+02 1.748282e-02
9.470000e+02 5.534291e-05
9.480000e+02 1.425162e-02
9.490000e+02 1.422393e-03
9.500000e+02 2.188318e-05
9.510000e+02 5.553429e-03
9.520000e+02 1.792802e-02
9.530000e+02 2.814527e-04
9.540000e+02 6.205964e-05
9.550000e+02 3.667012e-03
9.560000e+02 6.053747e-02
9.570000e+02 1.095572e-03
9.580000e+02 2.244301e-05
9.590000e+02 7.574225e-02
9.600000e+02 5.514082e-05
9.610000e+02 2.736150e-02
9.620000e+02 1.052405e-02
9.630000e+02 2.659366e-03
9.640000e+02 3.278814e-05
9.650000e+02 1.612976e-04
9.660000e+02 3.992133e-03
9.670000e+02 7.261857e-04
9.680000e+02 4.494935e-04
9.690000e+02 1.809596e-02
9.700000e+02 1.390546e-02
9.710000e+02 7.852555e-04
9.720000e+02 2.039758e-04
9.730000e+02 2.646967e-04
9.740000e+02 7.553893e-03
9.750000e+02 5.984969e-03
9.760000e+02 7.198482e-02
9.770000e+02 6.682417e-02
9.780000e+02 3.221812e-02
9.790000e+02 1.804586e-01
9.800000e+02 1.962888e-01
9.810000e+02 2.863535e-02
9.820000e+02 4.875064e-03
9.830000e+02 2.133080e-01
9.840000e+02 6.172673e-03
9.850000e+02 1.367006e-02
9.860000e+02 1.802900e-02
9.870000e+02 2.606429e-01
9.880000e+02 3.969371e-04
9.890000e+02 1.060952e-01
9.900000e+02 1.440506e-02
9.910000e+02 3.805664e-03
9.920000e+02 1.084998e-04
9.930000e+02 3.110705e-01
9.940000e+02 5.339831e-05
9.950000e+02 1.788335e-02
9.960000e+02 1.339674e-03
9.970000e+02 5.294791e-03
9.980000e+02 2.353832e-01
9.990000e+02 6.298665e-03
1.000000e+03 4.693778e-01
1.001000e+03 4.459533e-01
1.002000e+03 5.050923e-01
1.003000e+03 8.841634e-03
1.004000e+03 6.761551e-04
1.005000e+03 2.756554e-02
1.006000e+03 5.076603e-01
1.007000e+03 5.960227e-01
1.008000e+03 4.042714e-01
1.009000e+03 1.274775e-02
1.010000e+03 4.275672e-01
1.011000e+03 5.476942e-01
1.012000e+03 4.813341e-01
1.013000e+03 4.466613e-01
1.014000e+03 3.006756e-04
1.015000e+03 1.004457e-03
1.016000e+03 2.742809e-02
1.017000e+03 2.709031e-04
1.018000e+03 1.315016e-02
1.019000e+03 9.664893e-04
1.020000e+03 4.562905e-01
1.021000e+03 1.316121e-02
1.022000e+03 2.244976e-02
1.023000e+03 1.975164e-03
1.024000e+03 3.258783e-02
1.025000e+03 2.838275e-04
1.026000e+03 2.670941e-04
1.027000e+03 1.416355e-02
1.028000e+03 1.190029e-03
1.029000e+03 5.366802e-04
1.030000e+03 1.278508e-01
1.031000e+03 1.735668e-01
1.032000e+03 9.504069e-01
1.033000e+03 1.257896e-02
1.034000e+03 3.075198e-01
1.035000e+03 7.505417e-04
1.036000e+03 9.840727e-04
1.037000e+03 1.733701e+00
1.038000e+03 3.706326e+00
1.039000e+03 2.011448e+00
1.040000e+03 2.350972e+00
1.041000e+03 4.641144e+00
1.042000e+03 4.100316e+00
1.043000e+03 3.112220e+00
1.044000e+03 5.864862e+00
1.045000e+03 9.467481e-04
1.046000e+03 2.770505e+00
1.047000e+03 6.890240e-01
1.048000e+03 1.700401e-02
1.049000e+03 8.920392e-01
1.050000e+03 2.649322e-01
1.051000e+03 1.313872e-01
1.052000e+03 5.308708e+00
1.053000e+03 7.251828e+00
1.054000e+03 1.736641e-03
1.055000e+03 7.446748e+00
1.056000e+03 8.118270e+00
1.057000e+03 1.810355e+00
1.058000e+03 1.572730e-01
1.059000e+03 4.120684e-02
1.060000e+03 2.504110e-02
1.061000e+03 3.093745e+00
1.062000e+03 7.901051e-02
1.063000e+03 3.204781e-01
1.064000e+03 1.770973e-03
1.065000e+03 2.938271e-03
1.066000e+03 3.504516e+00
1.067000e+03 6.937870e-02
1.068000e+03 1.300323e+01
1.069000e+03 1.844335e-02
1.070000e+03 1.406224e+00
1.071000e+03 1.118990e+01
1.072000e+03 1.351807e+01
1.073000e+03 6.246567e-03
1.074000e+03 1.999462e+00
1.075000e+03 1.137837e+00
1.076000e+03 1.330524e+01
1.077000e+03 3.258967e-02
1.078000e+03 1.877489e-01
1.079000e+03 8.992781e-01
1.080000e+03 2.587715e+00
1.081000e+03 8.996186e+00
1.082000e+03 6.229789e+00
1.083000e+03 3.559830e+00
1.084000e+03 2.154843e+01
1.085000e+03 8.802147e-01
1.086000e+03 2.202403e+01
1.087000e+03 1.691036e-01
1.088000e+03 2.477058e+01
1.089000e+03 2.548700e+01
1.090000e+03 6.893234e-01
1.091000e+03 9.278145e-01
1.092000e+03 2.595410e+01
1.093000e+03 2.756190e+01
1.094000e+03 8.814575e+00
1.095000e+03 3.051700e+01
1.096000e+03 1.922918e+00
1.097000e+03 2.008677e+01
1.098000e+03 3.145673e+01
1.099000e+03 2.702534e+00
1.100000e+03 5.807221e-02
1.101000e+03 1.520337e-01
1.102000e+03 1.479969e+00
1.103000e+03 3.658304e+01
1.104000e+03 4.005838e+01
1.105000e+03 3.981807e+01
1.106000e+03 7.464450e+00
1.107000e+03 8.224106e-02
1.108000e+03 2.842268e+01
1.109000e+03 8.177528e-01
1.110000e+03 4.443936e+01
1.111000e+03 4.031750e+01
1.112000e+03 1.862674e+01
1.113000e+03 3.825131e+01
1.114000e+03 1.170922e+01
1.115000e+03 1.090119e+00
1.116000e+03 5.681095e-01
1.117000e+03 4.725513e+01
1.118000e+03 1.319799e+00
1.119000e+03 2.418082e+01
1.120000e+03 6.834526e-01
1.121000e+03 4.770763e+01
1.122000e+03 3.283088e+01
1.123000e+03 6.728065e+01
1.124000e+03 7.520722e+01
1.125000e+03 5.527519e+01
1.126000e+03 8.303824e+01
1.127000e+03 6.448933e+01
1.128000e+03 5.146730e+01
1.129000e+03 4.072481e+01
1.130000e+03 6.905611e+01
1.131000e+03 6.331603e+01
1.132000e+03 1.169918e+00
1.133000e+03 5.523026e+00
1.134000e+03 4.204574e+01
1.135000e+03 1.993546e+01
1.136000e+03 1.193036e+01
1.137000e+03 5.925803e+01
1.138000e+03 3.684243e+01
1.139000e+03 6.883300e+01
1.140000e+03 6.409014e+01
1.141000e+03 6.677578e+01
1.142000e+03 6.954084e+01
1.143000e+03 4.688865e+01
1.144000e+03 6.903597e+01
1.145000e+03 5.804825e-01
1.146000e+03 7.325779e+01
1.147000e+03 7.236992e+01
1.148000e+03 3.705357e+00
1.149000e+03 6.704484e+01
1.150000e+03 6.019361e+01
1.151000e+03 7.378754e+01
1.152000e+03 7.015487e+01
1.153000e+03 7.078065e+01
1.154000e+03 7.267475e+01
1.155000e+03 6.342881e+01
1.156000e+03 6.065458e+01
1.157000e+03 6.877579e+01
1.158000e+03 4.835853e+01
1.159000e+03 7.136004e+01
1.160000e+03 4.927764e+01
1.161000e+03 6.767342e+01
1.162000e+03 1.251660e+01
1.163000e+03 2.936530e+01
1.164000e+03 3.625984e-01
1.165000e+03 4.570958e+01
1.166000e+03 2.790190e+01
1.167000e+03 2.039369e+01
1.168000e+03 7.647095e+01
1.169000e+03 7.762807e+01
1.170000e+03 2.062223e+01
1.171000e+03 4.408060e+01
1.172000e+03 3.369342e+01
1.173000e+03 3.362742e+01
1.174000e+03 3.149845e+00
1.175000e+03 3.039856e-01
1.176000e+03 1.479454e-01
1.177000e+03 9.430693e+01
1.178000e+03 9.107608e+01
1.179000e+03 8.746738e+01
1.180000e+03 7.322400e+01
1.181000e+03 8.281490e+01
1.182000e+03 8.036499e+01
1.183000e+03 7.174014e+01
1.184000e+03 6.789805e+01
1.185000e+03 6.996456e+01
1.186000e+03 1.320038e+01
1.187000e+03 7.044033e+01
1.188000e+03 5.736140e+01
1.189000e+03 6.895898e+01
1.190000e+03 6.849512e+01
1.191000e+03 6.421433e+01
1.192000e+03 6.071992e+01
1.193000e+03 5.106919e+01
1.194000e+03 5.842285e+01
1.195000e+03 5.678917e+01
1.196000e+03 3.527496e+02
1.197000e+03 3.602081e+02
1.198000e+03 4.507483e+01
1.199000e+03 3.335655e+02
1.200000e+03 1.008339e+02
1.201000e+03 2.942368e+02
1.202000e+03 2.208414e+02
1.203000e+03 2.454312e+02
1.204000e+03 8.274597e+01
1.205000e+03 1.885509e+02
1.206000e+03 1.613930e+02
1.207000e+03 3.363036e+01
1.208000e+03 9.364264e+01
1.209000e+03 7.397521e+01
1.210000e+03 5.895042e-01
1.211000e+03 3.168173e+01
1.212000e+03 1.672617e+01
1.213000e+03 7.674050e+00
1.214000e+03 2.410760e+00
1.215000e+03 5.795739e-01
1.216000e+03 5.152088e-01
1.217000e+03 1.588870e+00
1.218000e+03 6.295349e+00
1.219000e+03 1.623791e+01
1.220000e+03 2.830036e+01
1.221000e+03 5.896943e+01
1.222000e+03 9.258458e+01
1.223000e+03 1.289585e+02
1.224000e+03 1.718067e+02
1.225000e+03 5.285945e+01
1.226000e+03 2.983882e+02
1.227000e+03 3.660938e+02
1.228000e+03 2.431110e+02
1.229000e+03 4.820744e+02
1.230000e+03 4.495431e+02
1.231000e+03 1.984420e+02
1.232000e+03 6.855461e+02
1.233000e+03 7.535460e+02
1.234000e+03 6.343770e+02
1.235000e+03 8.583100e+02
1.236000e+03 4.436734e+02
1.237000e+03 9.773915e+02
1.238000e+03 1.021089e+03
1.239000e+03 9.836945e+02
1.240000e+03 4.100128e+02
1.241000e+03 1.012185e+03
1.242000e+03 1.198130e+03
1.243000e+03 1.273767e+03
1.244000e+03 1.327475e+03
1.245000e+03 1.363451e+03
1.246000e+03 1.346311e+03
1.247000e+03 1.422626e+03
1.248000e+03 1.208595e+03
1.249000e+03 1.560651e+03
1.250000e+03 1.264561e+03
1.251000e+03 1.649650e+03
1.252000e+03 1.611319e+03
1.253000e+03 1.725520e+03
1.254000e+03 1.710659e+03
1.255000e+03 8.444617e+02
1.256000e+03 1.607796e+03
1.257000e+03 1.425507e+03
1.258000e+03 1.634421e+03
1.259000e+03 1.721406e+03
1.260000e+03 1.969149e+03
1.261000e+03 1.358036e+02
1.262000e+03 2.049051e+03
1.263000e+03 2.007524e+03
1.264000e+03 1.864046e+03
1.265000e+03 6.433240e+01
1.266000e+03 2.299249e+03
1.267000e+03 2.240851e+03
