# wavelength_A flux
5.000000e+02 1.346648e-42
5.010000e+02 1.788057e-42
5.020000e+02 2.372398e-42
5.030000e+02 3.144514e-42
5.040000e+02 4.161856e-42
5.050000e+02 5.504300e-42
5.060000e+02 7.269936e-42
5.070000e+02 9.591888e-42
5.080000e+02 1.264111e-41
5.090000e+02 1.664042e-41
5.100000e+02 2.187847e-41
5.110000e+02 2.874063e-41
5.120000e+02 3.771034e-41
5.130000e+02 4.942800e-41
5.140000e+02 6.471477e-41
5.150000e+02 8.463983e-41
5.160000e+02 1.105821e-40
5.170000e+02 1.443239e-40
5.180000e+02 1.881636e-40
5.190000e+02 2.450661e-40
5.200000e+02 3.188458e-40
5.210000e+02 4.144116e-40
5.220000e+02 5.380692e-40
5.230000e+02 6.979181e-40
5.240000e+02 9.043392e-40
5.250000e+02 1.170634e-39
5.260000e+02 1.513830e-39
5.270000e+02 1.955697e-39
5.280000e+02 2.524045e-39
5.290000e+02 3.254364e-39
5.300000e+02 4.191899e-39
5.310000e+02 5.394283e-39
5.320000e+02 6.934855e-39
5.330000e+02 8.906846e-39
5.340000e+02 1.142867e-38
5.350000e+02 1.465060e-38
5.360000e+02 1.876312e-38
5.370000e+02 2.400677e-38
5.380000e+02 3.068906e-38
5.390000e+02 3.919377e-38
5.400000e+02 5.000916e-38
5.410000e+02 6.375047e-38
5.420000e+02 8.119343e-38
5.430000e+02 1.033152e-37
5.440000e+02 1.313455e-37
5.450000e+02 1.668309e-37
5.460000e+02 2.117143e-37
5.470000e+02 2.684344e-37
5.480000e+02 3.400500e-37
5.490000e+02 4.303938e-37
5.500000e+02 5.442645e-37
5.510000e+02 6.876647e-37
5.520000e+02 8.680974e-37
5.530000e+02 1.094932e-36
5.540000e+02 1.379859e-36
5.550000e+02 1.737453e-36
5.560000e+02 2.185872e-36
5.570000e+02 2.747712e-36
5.580000e+02 3.451077e-36
5.590000e+02 4.330888e-36
5.600000e+02 5.430504e-36
5.610000e+02 6.803716e-36
5.620000e+02 8.517201e-36
5.630000e+02 1.065355e-35
5.640000e+02 1.331496e-35
5.650000e+02 1.662785e-35
5.660000e+02 2.074840e-35
5.670000e+02 2.586945e-35
5.680000e+02 3.222891e-35
5.690000e+02 4.012008e-35
5.700000e+02 4.990425e-35
5.710000e+02 6.202614e-35
5.720000e+02 7.703268e-35
5.730000e+02 9.559612e-35
5.740000e+02 1.185420e-34
5.750000e+02 1.468834e-34
5.760000e+02 1.818625e-34
5.770000e+02 2.250016e-34
5.780000e+02 2.781646e-34
5.790000e+02 3.436317e-34
5.800000e+02 4.241912e-34
5.810000e+02 5.232495e-34
5.820000e+02 6.449652e-34
5.830000e+02 7.944120e-34
5.840000e+02 9.777750e-34
5.850000e+02 1.202590e-33
5.860000e+02 1.478029e-33
5.870000e+02 1.815251e-33
5.880000e+02 2.227824e-33
5.890000e+02 2.732226e-33
5.900000e+02 3.348464e-33
5.910000e+02 4.100809e-33
5.920000e+02 5.018685e-33
5.930000e+02 6.137736e-33
5.940000e+02 7.501118e-33
5.950000e+02 9.161041e-33
5.960000e+02 1.118063e-32
5.970000e+02 1.363614e-32
5.980000e+02 1.661968e-32
5.990000e+02 2.024233e-32
6.000000e+02 2.463809e-32
6.010000e+02 2.996839e-32
6.020000e+02 3.642766e-32
6.030000e+02 4.424987e-32
6.040000e+02 5.371642e-32
6.050000e+02 6.516551e-32
6.060000e+02 7.900338e-32
6.070000e+02 9.571768e-32
6.080000e+02 1.158934e-31
6.090000e+02 1.402317e-31
6.100000e+02 1.695730e-31
6.110000e+02 2.049233e-31
6.120000e+02 2.474864e-31
6.130000e+02 2.987020e-31
6.140000e+02 3.602907e-31
6.150000e+02 4.343077e-31
6.160000e+02 5.232061e-31
6.170000e+02 6.299124e-31
6.180000e+02 7.579159e-31
6.190000e+02 9.113739e-31
6.200000e+02 1.095237e-30
6.210000e+02 1.315398e-30
6.220000e+02 1.578864e-30
6.230000e+02 1.893965e-30
6.240000e+02 2.270600e-30
6.250000e+02 2.720517e-30
6.260000e+02 3.257661e-30
6.270000e+02 3.898569e-30
6.280000e+02 4.662842e-30
6.290000e+02 5.573698e-30
6.300000e+02 6.658627e-30
6.310000e+02 7.950155e-30
6.320000e+02 9.486751e-30
6.330000e+02 1.131388e-29
6.340000e+02 1.348524e-29
6.350000e+02 1.606425e-29
6.360000e+02 1.912572e-29
6.370000e+02 2.275788e-29
6.380000e+02 2.706474e-29
6.390000e+02 3.216881e-29
6.400000e+02 3.821434e-29
6.410000e+02 4.537108e-29
6.420000e+02 5.383867e-29
6.430000e+02 6.385179e-29
6.440000e+02 7.568617e-29
6.450000e+02 8.966558e-29
6.460000e+02 1.061700e-28
6.470000e+02 1.256453e-28
6.480000e+02 1.486139e-28
6.490000e+02 1.756882e-28
6.500000e+02 2.075856e-28
6.510000e+02 2.451456e-28
6.520000e+02 2.893505e-28
6.530000e+02 3.413491e-28
6.540000e+02 4.024841e-28
6.550000e+02 4.743240e-28
6.560000e+02 5.587005e-28
6.570000e+02 6.577509e-28
6.580000e+02 7.739687e-28
6.590000e+02 9.102609e-28
6.600000e+02 1.070015e-27
6.610000e+02 1.257177e-27
6.620000e+02 1.476341e-27
6.630000e+02 1.732851e-27
6.640000e+02 2.032925e-27
6.650000e+02 2.383791e-27
6.660000e+02 2.793844e-27
6.670000e+02 3.272839e-27
6.680000e+02 3.832097e-27
6.690000e+02 4.484755e-27
6.700000e+02 5.246047e-27
6.710000e+02 6.133634e-27
6.720000e+02 7.167977e-27
6.730000e+02 8.372776e-27
6.740000e+02 9.775463e-27
6.750000e+02 1.140778e-26
6.760000e+02 1.330644e-26
6.770000e+02 1.551387e-26
6.780000e+02 1.807911e-26
6.790000e+02 2.105880e-26
6.800000e+02 2.451831e-26
6.810000e+02 2.853309e-26
6.820000e+02 3.319016e-26
6.830000e+02 3.858982e-26
6.840000e+02 4.484771e-26
6.850000e+02 5.209698e-26
6.860000e+02 6.049096e-26
6.870000e+02 7.020611e-26
6.880000e+02 8.144543e-26
6.890000e+02 9.444234e-26
6.900000e+02 1.094651e-25
6.910000e+02 1.268221e-25
6.920000e+02 1.468671e-25
6.930000e+02 1.700066e-25
6.940000e+02 1.967068e-25
6.950000e+02 2.275025e-25
6.960000e+02 2.630068e-25
6.970000e+02 3.039223e-25
6.980000e+02 3.510539e-25
6.990000e+02 4.053231e-25
7.000000e+02 4.677849e-25
7.010000e+02 5.396460e-25
7.020000e+02 6.222867e-25
7.030000e+02 7.172848e-25
7.040000e+02 8.264433e-25
7.050000e+02 9.518217e-25
7.060000e+02 1.095771e-24
7.070000e+02 1.260977e-24
7.080000e+02 1.450499e-24
7.090000e+02 1.667831e-24
7.100000e+02 1.916953e-24
7.110000e+02 2.202401e-24
7.120000e+02 2.529344e-24
7.130000e+02 2.903664e-24
7.140000e+02 3.332060e-24
7.150000e+02 3.822150e-24
7.160000e+02 4.382601e-24
7.170000e+02 5.023266e-24
7.180000e+02 5.755342e-24
7.190000e+02 6.591550e-24
7.200000e+02 7.546336e-24
7.210000e+02 8.636097e-24
7.220000e+02 9.879444e-24
7.230000e+02 1.129748e-23
7.240000e+02 1.291415e-23
7.250000e+02 1.475658e-23
7.260000e+02 1.685551e-23
7.270000e+02 1.924575e-23
7.280000e+02 2.196674e-23
7.290000e+02 2.506310e-23
7.300000e+02 2.858531e-23
7.310000e+02 3.259048e-23
7.320000e+02 3.714317e-23
7.330000e+02 4.231634e-23
7.340000e+02 4.819244e-23
7.350000e+02 5.486459e-23
7.360000e+02 6.243789e-23
7.370000e+02 7.103100e-23
7.380000e+02 8.077778e-23
7.390000e+02 9.182919e-23
7.400000e+02 1.043554e-22
7.410000e+02 1.185484e-22
7.420000e+02 1.346241e-22
7.430000e+02 1.528261e-22
7.440000e+02 1.734285e-22
7.450000e+02 1.967396e-22
7.460000e+02 2.231065e-22
7.470000e+02 2.529198e-22
7.480000e+02 2.866182e-22
7.490000e+02 3.246951e-22
7.500000e+02 3.677049e-22
7.510000e+02 4.162703e-22
7.520000e+02 4.710904e-22
7.530000e+02 5.329501e-22
7.540000e+02 6.027301e-22
7.550000e+02 6.814184e-22
7.560000e+02 7.701229e-22
7.570000e+02 8.700858e-22
7.580000e+02 9.826987e-22
7.590000e+02 1.109521e-21
7.600000e+02 1.252300e-21
7.610000e+02 1.412991e-21
7.620000e+02 1.593782e-21
7.630000e+02 1.797122e-21
7.640000e+02 2.025751e-21
7.650000e+02 2.282732e-21
7.660000e+02 2.571488e-21
7.670000e+02 2.895847e-21
7.680000e+02 3.260083e-21
7.690000e+02 3.668971e-21
7.700000e+02 4.127840e-21
7.710000e+02 4.642640e-21
7.720000e+02 5.220010e-21
7.730000e+02 5.867354e-21
7.740000e+02 6.592929e-21
7.750000e+02 7.405940e-21
7.760000e+02 8.316648e-21
7.770000e+02 9.336478e-21
7.780000e+02 1.047816e-20
7.790000e+02 1.175588e-20
7.800000e+02 1.318540e-20
7.810000e+02 1.478428e-20
7.820000e+02 1.657206e-20
7.830000e+02 1.857046e-20
7.840000e+02 2.080363e-20
7.850000e+02 2.329841e-20
7.860000e+02 2.608464e-20
7.870000e+02 2.919546e-20
7.880000e+02 3.266766e-20
7.890000e+02 3.654210e-20
7.900000e+02 4.086413e-20
7.910000e+02 4.568408e-20
7.920000e+02 5.105775e-20
7.930000e+02 5.704706e-20
7.940000e+02 6.372062e-20
7.950000e+02 7.115452e-20
7.960000e+02 7.943303e-20
7.970000e+02 8.864951e-20
7.980000e+02 9.890738e-20
7.990000e+02 1.103211e-19
8.000000e+02 1.230174e-19
8.010000e+02 1.371365e-19
8.020000e+02 1.528334e-19
8.030000e+02 1.702798e-19
8.040000e+02 1.896653e-19
8.050000e+02 2.111994e-19
8.060000e+02 2.351140e-19
8.070000e+02 2.616649e-19
8.080000e+02 2.911347e-19
8.090000e+02 3.238356e-19
8.100000e+02 3.601122e-19
8.110000e+02 4.003446e-19
8.120000e+02 4.449524e-19
8.130000e+02 4.943984e-19
8.140000e+02 5.491927e-19
8.150000e+02 6.098980e-19
8.160000e+02 6.771342e-19
8.170000e+02 7.515846e-19
8.180000e+02 8.340018e-19
8.190000e+02 9.252146e-19
8.200000e+02 1.026136e-18
8.210000e+02 1.137770e-18
8.220000e+02 1.261222e-18
8.230000e+02 1.397710e-18
8.240000e+02 1.548570e-18
8.250000e+02 1.715274e-18
8.260000e+02 1.899440e-18
8.270000e+02 2.102844e-18
8.280000e+02 2.327442e-18
8.290000e+02 2.575380e-18
8.300000e+02 2.849014e-18
8.310000e+02 3.150932e-18
8.320000e+02 3.483977e-18
8.330000e+02 3.851267e-18
8.340000e+02 4.256224e-18
8.350000e+02 4.702602e-18
8.360000e+02 5.194517e-18
8.370000e+02 5.736484e-18
8.380000e+02 6.333452e-18
8.390000e+02 6.990843e-18
8.400000e+02 7.714601e-18
8.410000e+02 8.511234e-18
8.420000e+02 9.387872e-18
8.430000e+02 1.035232e-17
8.440000e+02 1.141313e-17
8.450000e+02 1.257964e-17
8.460000e+02 1.386209e-17
8.470000e+02 1.527168e-17
8.480000e+02 1.682064e-17
8.490000e+02 1.852237e-17
8.500000e+02 2.039149e-17
8.510000e+02 2.244400e-17
8.520000e+02 2.469738e-17
8.530000e+02 2.717071e-17
8.540000e+02 2.988485e-17
8.550000e+02 3.286257e-17
8.560000e+02 3.612872e-17
8.570000e+02 3.971044e-17
8.580000e+02 4.363732e-17
8.590000e+02 4.794167e-17
8.600000e+02 5.265873e-17
8.610000e+02 5.782690e-17
8.620000e+02 6.348808e-17
8.630000e+02 6.968794e-17
8.640000e+02 7.647622e-17
8.650000e+02 8.390714e-17
8.660000e+02 9.203978e-17
8.670000e+02 1.009385e-16
8.680000e+02 1.106732e-16
8.690000e+02 1.213203e-16
8.700000e+02 1.329627e-16
8.710000e+02 1.456907e-16
8.720000e+02 1.596026e-16
8.730000e+02 1.748053e-16
8.740000e+02 1.914150e-16
8.750000e+02 2.095580e-16
8.760000e+02 2.293718e-16
8.770000e+02 2.510057e-16
8.780000e+02 2.746218e-16
8.790000e+02 3.003964e-16
8.800000e+02 3.285211e-16
8.810000e+02 3.592036e-16
8.820000e+02 3.926697e-16
8.830000e+02 4.291643e-16
8.840000e+02 4.689535e-16
8.850000e+02 5.123257e-16
8.860000e+02 5.595940e-16
8.870000e+02 6.110978e-16
8.880000e+02 6.672054e-16
8.890000e+02 7.283159e-16
8.900000e+02 7.948620e-16
8.910000e+02 8.673128e-16
8.920000e+02 9.461764e-16
8.930000e+02 1.032003e-15
8.940000e+02 1.125390e-15
8.950000e+02 1.226981e-15
8.960000e+02 1.337478e-15
8.970000e+02 1.457636e-15
8.980000e+02 1.588274e-15
8.990000e+02 1.730280e-15
9.000000e+02 1.884611e-15
9.010000e+02 2.052307e-15
9.020000e+02 2.234488e-15
9.030000e+02 2.432368e-15
9.040000e+02 2.647259e-15
9.050000e+02 2.880578e-15
9.060000e+02 3.133857e-15
9.070000e+02 3.408751e-15
9.080000e+02 3.707050e-15
9.090000e+02 4.030684e-15
9.100000e+02 4.381740e-15
9.110000e+02 4.762469e-15
9.120000e+02 5.175303e-15
9.130000e+02 5.622865e-15
9.140000e+02 6.508411e-15
9.150000e+02 1.422235e-12
9.160000e+02 1.087496e-11
9.170000e+02 1.448107e-13
9.180000e+02 1.882445e-12
9.190000e+02 3.410576e-11
9.200000e+02 1.056767e-10
9.210000e+02 1.084487e-14
9.220000e+02 6.752575e-11
9.230000e+02 1.691085e-13
9.240000e+02 1.657841e-13
9.250000e+02 6.129301e-12
9.260000e+02 2.991405e-12
9.270000e+02 2.227334e-13
9.280000e+02 8.001779e-10
9.290000e+02 7.676811e-10
9.300000e+02 1.470214e-10
9.310000e+02 4.310931e-13
9.320000e+02 6.115970e-10
9.330000e+02 7.904949e-11
9.340000e+02 1.111078e-11
9.350000e+02 7.656318e-13
9.360000e+02 1.157686e-12
9.370000e+02 1.609140e-13
9.380000e+02 6.763559e-13
9.390000e+02 6.003545e-12
9.400000e+02 9.130883e-10
9.410000e+02 9.804069e-11
9.420000e+02 3.223110e-09
9.430000e+02 1.023148e-11
9.440000e+02 3.707350e-09
9.450000e+02 3.464006e-09
9.460000e+02 2.939299e-10
9.470000e+02 1.078790e-13
9.480000e+02 8.230025e-10
9.490000e+02 7.716836e-11
9.500000e+02 1.394135e-12
9.510000e+02 2.202436e-10
9.520000e+02 7.712196e-10
9.530000e+02 1.902483e-12
9.540000e+02 1.579220e-13
9.550000e+02 2.160361e-11
9.560000e+02 4.216899e-09
9.570000e+02 9.897305e-12
9.580000e+02 1.953854e-13
9.590000e+02 1.036744e-09
9.600000e+02 3.251337e-12
9.610000e+02 6.257128e-10
9.620000e+02 1.577732e-10
9.630000e+02 7.280621e-12
9.640000e+02 2.733619e-12
9.650000e+02 4.607426e-13
9.660000e+02 2.270295e-11
9.670000e+02 2.669198e-12
9.680000e+02 1.897149e-12
9.690000e+02 1.236187e-10
9.700000e+02 6.066224e-10
9.710000e+02 5.729947e-12
9.720000e+02 1.356370e-12
9.730000e+02 1.764053e-11
9.740000e+02 2.945982e-10
9.750000e+02 6.790976e-11
9.760000e+02 6.828639e-09
9.770000e+02 3.060175e-09
9.780000e+02 1.252548e-09
9.790000e+02 2.872734e-08
9.800000e+02 2.295045e-08
9.810000e+02 4.445688e-10
9.820000e+02 5.525047e-11
9.830000e+02 2.479474e-08
9.840000e+02 5.810594e-10
9.850000e+02 1.403172e-10
9.860000e+02 2.587187e-10
9.870000e+02 1.858884e-08
9.880000e+02 2.363443e-12
9.890000e+02 4.487822e-09
9.900000e+02 1.930762e-08
9.910000e+02 8.420847e-11
9.920000e+02 2.285622e-12
9.930000e+02 5.980885e-08
9.940000e+02 3.991030e-12
9.950000e+02 1.238234e-09
9.960000e+02 1.144684e-11
9.970000e+02 4.816729e-09
9.980000e+02 2.247413e-08
9.990000e+02 1.168772e-10
1.000000e+03 1.281504e-07
1.001000e+03 1.002680e-07
1.002000e+03 8.162787e-08
1.003000e+03 1.020730e-10
1.004000e+03 5.591971e-12
1.005000e+03 6.493934e-10
1.006000e+03 6.942746e-08
1.007000e+03 1.188219e-07
1.008000e+03 4.341585e-08
1.009000e+03 1.576337e-10
1.010000e+03 3.162432e-08
1.011000e+03 2.439109e-08
1.012000e+03 6.355111e-08
1.013000e+03 6.670797e-08
1.014000e+03 1.025313e-11
1.015000e+03 1.272582e-11
1.016000e+03 1.117641e-09
1.017000e+03 1.250555e-11
1.018000e+03 1.531006e-10
1.019000e+03 1.479350e-11
1.020000e+03 6.524864e-08
1.021000e+03 6.793783e-10
1.022000e+03 9.007763e-10
1.023000e+03 3.074874e-11
1.024000e+03 6.022830e-09
1.025000e+03 2.115999e-11
1.026000e+03 3.044760e-11
1.027000e+03 1.881876e-09
1.028000e+03 1.630447e-10
1.029000e+03 2.743583e-11
1.030000e+03 3.032170e-09
1.031000e+03 2.005363e-08
1.032000e+03 3.230147e-07
1.033000e+03 1.579281e-09
1.034000e+03 1.811875e-08
1.035000e+03 1.282103e-10
1.036000e+03 4.305889e-11
1.037000e+03 2.497695e-07
1.038000e+03 1.726269e-06
1.039000e+03 4.005244e-07
1.040000e+03 1.144793e-07
1.041000e+03 1.219825e-06
1.042000e+03 1.412518e-06
1.043000e+03 1.722938e-06
1.044000e+03 5.402436e-06
1.045000e+03 1.124689e-10
1.046000e+03 1.568557e-07
1.047000e+03 1.104186e-07
1.048000e+03 5.360903e-10
1.049000e+03 6.360710e-08
1.050000e+03 6.981622e-09
1.051000e+03 3.577043e-09
1.052000e+03 2.423696e-06
1.053000e+03 2.925166e-06
1.054000e+03 1.328146e-10
1.055000e+03 3.494176e-06
1.056000e+03 4.452834e-06
1.057000e+03 4.285501e-07
1.058000e+03 2.885247e-09
1.059000e+03 5.318498e-09
1.060000e+03 8.531060e-10
1.061000e+03 1.273991e-06
1.062000e+03 1.539130e-09
1.063000e+03 4.588197e-07
1.064000e+03 3.419700e-10
1.065000e+03 2.594334e-10
1.066000e+03 1.958913e-06
1.067000e+03 4.367557e-09
1.068000e+03 1.164160e-05
1.069000e+03 7.876657e-10
1.070000e+03 4.932554e-08
1.071000e+03 2.388874e-06
1.072000e+03 2.175803e-05
1.073000e+03 4.201866e-10
1.074000e+03 5.250421e-07
1.075000e+03 2.463839e-07
1.076000e+03 2.312484e-05
1.077000e+03 2.855472e-09
1.078000e+03 5.351467e-09
1.079000e+03 3.521573e-08
1.080000e+03 3.983617e-07
1.081000e+03 5.679499e-06
1.082000e+03 2.184963e-06
1.083000e+03 8.202005e-07
1.084000e+03 5.227073e-05
1.085000e+03 9.195719e-08
1.086000e+03 2.634058e-05
1.087000e+03 1.322769e-08
1.088000e+03 5.167872e-05
1.089000e+03 6.060402e-05
1.090000e+03 6.802904e-08
1.091000e+03 1.481530e-07
1.092000e+03 5.494355e-05
1.093000e+03 7.850575e-05
1.094000e+03 1.278017e-06
1.095000e+03 9.571636e-05
1.096000e+03 2.308579e-06
1.097000e+03 3.628353e-05
1.098000e+03 8.076189e-05
1.099000e+03 2.964880e-07
1.100000e+03 2.621391e-09
1.101000e+03 7.918526e-09
1.102000e+03 2.570533e-07
1.103000e+03 1.379373e-04
1.104000e+03 1.020151e-04
1.105000e+03 1.388943e-04
1.106000e+03 2.197282e-06
1.107000e+03 6.766641e-09
1.108000e+03 3.708748e-05
1.109000e+03 1.342196e-07
1.110000e+03 1.157121e-04
1.111000e+03 1.192731e-04
1.112000e+03 1.190511e-05
1.113000e+03 1.036927e-04
1.114000e+03 4.538915e-06
1.115000e+03 1.206579e-07
1.116000e+03 2.052987e-08
1.117000e+03 1.764577e-04
1.118000e+03 2.577381e-07
1.119000e+03 8.377059e-06
1.120000e+03 5.415495e-08
1.121000e+03 1.018626e-04
1.122000e+03 4.386333e-04
1.123000e+03 2.993622e-04
1.124000e+03 3.957953e-04
1.125000e+03 1.594677e-04
1.126000e+03 6.782151e-04
1.127000e+03 1.274405e-04
1.128000e+03 2.974851e-04
1.129000e+03 4.501588e-05
1.130000e+03 3.287539e-04
1.131000e+03 2.561930e-04
1.132000e+03 1.040044e-07
1.133000e+03 3.241381e-06
1.134000e+03 9.262707e-05
1.135000e+03 2.917104e-04
1.136000e+03 6.126938e-06
1.137000e+03 1.973188e-04
1.138000e+03 5.746438e-05
1.139000e+03 2.615292e-04
1.140000e+03 2.061196e-04
1.141000e+03 2.713225e-04
1.142000e+03 2.619284e-04
1.143000e+03 3.964597e-05
1.144000e+03 2.659366e-04
1.145000e+03 7.433118e-08
1.146000e+03 2.683780e-04
1.147000e+03 2.670507e-04
1.148000e+03 9.386713e-07
1.149000e+03 1.934338e-04
1.150000e+03 1.741957e-04
1.151000e+03 2.492376e-04
1.152000e+03 1.561326e-04
1.153000e+03 2.491900e-04
1.154000e+03 2.555858e-04
1.155000e+03 1.924070e-04
1.156000e+03 1.777554e-04
1.157000e+03 2.220497e-04
1.158000e+03 5.451209e-05
1.159000e+03 2.267094e-04
1.160000e+03 9.755949e-05
1.161000e+03 2.065274e-04
1.162000e+03 5.740687e-06
1.163000e+03 3.752367e-05
1.164000e+03 3.924433e-07
1.165000e+03 9.798191e-05
1.166000e+03 5.020543e-05
1.167000e+03 3.413181e-05
1.168000e+03 2.360855e-04
1.169000e+03 2.505596e-04
1.170000e+03 2.935704e-05
1.171000e+03 1.026600e-04
1.172000e+03 7.191152e-05
1.173000e+03 6.913480e-05
1.174000e+03 5.570910e-07
1.175000e+03 2.637680e-07
1.176000e+03 1.225671e-07
1.177000e+03 3.287217e-04
1.178000e+03 3.088145e-04
1.179000e+03 2.878850e-04
1.180000e+03 2.237007e-04
1.181000e+03 2.591776e-04
1.182000e+03 2.459787e-04
1.183000e+03 1.906851e-04
1.184000e+03 1.730803e-04
1.185000e+03 1.750578e-04
1.186000e+03 3.487659e-06
1.187000e+03 2.001512e-04
1.188000e+03 1.441899e-04
1.189000e+03 1.959312e-04
1.190000e+03 1.898907e-04
1.191000e+03 1.751060e-04
1.192000e+03 1.602695e-04
1.193000e+03 1.534298e-04
1.194000e+03 1.537129e-04
1.195000e+03 1.462381e-04
1.196000e+03 4.071216e-03
1.197000e+03 4.262037e-03
1.198000e+03 1.527159e-05
1.199000e+03 3.284125e-03
1.200000e+03 1.041890e-04
1.201000e+03 2.292444e-03
1.202000e+03 1.199977e-03
1.203000e+03 1.537100e-03
1.204000e+03 1.403538e-04
1.205000e+03 9.238341e-04
1.206000e+03 6.885653e-04
1.207000e+03 7.953099e-05
1.208000e+03 3.142827e-04
1.209000e+03 2.190732e-04
1.210000e+03 7.295312e-07
1.211000e+03 7.375170e-05
1.212000e+03 3.381082e-05
1.213000e+03 1.441394e-05
1.214000e+03 4.116302e-06
1.215000e+03 7.927762e-07
1.216000e+03 7.154350e-07
1.217000e+03 2.648921e-06
1.218000e+03 1.205975e-05
1.219000e+03 3.471353e-05
1.220000e+03 5.421826e-05
1.221000e+03 1.678783e-04
1.222000e+03 2.963843e-04
1.223000e+03 4.119674e-04
1.224000e+03 6.951938e-04
1.225000e+03 3.551855e-05
1.226000e+03 1.715615e-03
1.227000e+03 2.496028e-03
1.228000e+03 6.653504e-04
1.229000e+03 4.222982e-03
1.230000e+03 3.734443e-03
1.231000e+03 2.548140e-04
1.232000e+03 8.559652e-03
1.233000e+03 1.053764e-02
1.234000e+03 1.182923e-02
1.235000e+03 1.385458e-02
1.236000e+03 1.680599e-03
1.237000e+03 1.919016e-02
1.238000e+03 2.116731e-02
1.239000e+03 1.190724e-02
1.240000e+03 5.907731e-03
1.241000e+03 1.717942e-02
1.242000e+03 2.857159e-02
1.243000e+03 3.578640e-02
1.244000e+03 3.925606e-02
1.245000e+03 4.141684e-02
1.246000e+03 3.270179e-02
1.247000e+03 4.146030e-02
1.248000e+03 3.886658e-02
1.249000e+03 5.565043e-02
1.250000e+03 3.801550e-02
1.251000e+03 6.055608e-02
1.252000e+03 5.527818e-02
1.253000e+03 6.463695e-02
1.254000e+03 5.795253e-02
1.255000e+03 8.471411e-03
1.256000e+03 4.051057e-02
1.257000e+03 2.782286e-02
1.258000e+03 3.573145e-02
1.259000e+03 4.701511e-02
1.260000e+03 7.229460e-02
1.261000e+03 5.637258e-04
1.262000e+03 7.442951e-02
1.263000e+03 6.969248e-02
1.264000e+03 4.076107e-02
1.265000e+03 6.257601e-02
1.266000e+03 9.422102e-02
1.267000e+03 7.738887e-02
