# wavelength_A flux
5.000000e+02 1.049573e-42
5.010000e+02 1.397095e-42
5.020000e+02 1.858122e-42
5.030000e+02 2.467687e-42
5.040000e+02 3.273433e-42
5.050000e+02 3.094067e-42
5.060000e+02 4.095995e-42
5.070000e+02 5.424426e-42
5.080000e+02 7.160635e-42
5.090000e+02 9.453159e-42
5.100000e+02 6.868324e-41
5.110000e+02 1.642042e-41
5.120000e+02 2.163885e-41
5.130000e+02 2.839871e-41
5.140000e+02 3.728715e-41
5.150000e+02 4.890812e-41
5.160000e+02 6.408558e-41
5.170000e+02 8.386211e-41
5.180000e+02 1.096432e-40
5.190000e+02 1.432015e-40
5.200000e+02 1.868379e-40
5.210000e+02 2.435247e-40
5.220000e+02 3.174516e-40
5.230000e+02 4.124442e-40
5.240000e+02 5.358860e-40
5.250000e+02 6.956130e-40
5.260000e+02 9.020495e-40
5.270000e+02 1.168585e-39
5.280000e+02 1.512375e-39
5.290000e+02 1.955379e-39
5.300000e+02 2.525667e-39
5.310000e+02 3.259102e-39
5.320000e+02 4.201446e-39
5.330000e+02 5.411048e-39
5.340000e+02 6.962237e-39
5.350000e+02 8.949677e-39
5.360000e+02 1.149446e-38
5.370000e+02 1.763064e-38
5.380000e+02 1.890363e-38
5.390000e+02 2.420538e-38
5.400000e+02 3.096821e-38
5.410000e+02 3.959814e-38
5.420000e+02 5.055188e-38
5.430000e+02 6.449911e-38
5.440000e+02 8.221975e-38
5.450000e+02 1.047145e-37
5.460000e+02 1.332439e-37
5.470000e+02 1.693949e-37
5.480000e+02 2.151630e-37
5.490000e+02 2.730558e-37
5.500000e+02 3.462211e-37
5.510000e+02 4.386077e-37
5.520000e+02 5.551643e-37
5.530000e+02 7.020878e-37
5.540000e+02 8.871503e-37
5.550000e+02 1.119987e-36
5.560000e+02 1.412762e-36
5.570000e+02 1.780563e-36
5.580000e+02 2.242236e-36
5.590000e+02 2.821238e-36
5.600000e+02 3.546807e-36
5.610000e+02 4.455289e-36
5.620000e+02 5.591862e-36
5.630000e+02 7.012633e-36
5.640000e+02 8.787228e-36
5.650000e+02 1.100197e-35
5.660000e+02 1.376382e-35
5.670000e+02 1.720518e-35
5.680000e+02 2.148982e-35
5.690000e+02 2.682017e-35
5.700000e+02 3.344625e-35
5.710000e+02 4.167660e-35
5.720000e+02 5.189169e-35
5.730000e+02 6.456034e-35
5.740000e+02 8.025979e-35
5.750000e+02 9.970025e-35
5.760000e+02 1.237333e-34
5.770000e+02 1.534472e-34
5.780000e+02 1.901807e-34
5.790000e+02 2.355307e-34
5.800000e+02 2.914774e-34
5.810000e+02 3.604482e-34
5.820000e+02 4.454224e-34
5.830000e+02 5.501084e-34
5.840000e+02 6.818882e-34
5.850000e+02 8.376532e-34
5.860000e+02 1.030983e-33
5.870000e+02 1.269171e-33
5.880000e+02 1.561394e-33
5.890000e+02 1.919566e-33
5.900000e+02 2.358316e-33
5.910000e+02 2.895110e-33
5.920000e+02 3.551711e-33
5.930000e+02 4.354174e-33
5.940000e+02 5.334223e-33
5.950000e+02 6.530330e-33
5.960000e+02 7.989138e-33
5.970000e+02 9.767075e-33
5.980000e+02 1.193254e-32
5.990000e+02 1.456821e-32
6.000000e+02 1.777408e-32
6.010000e+02 2.167057e-32
6.020000e+02 2.640372e-32
6.030000e+02 3.214921e-32
6.040000e+02 3.911892e-32
6.050000e+02 4.756819e-32
6.060000e+02 5.780441e-32
6.070000e+02 7.019741e-32
6.080000e+02 8.519196e-32
6.090000e+02 1.033225e-31
6.100000e+02 1.252308e-31
6.110000e+02 1.516872e-31
6.120000e+02 1.836156e-31
6.130000e+02 2.221234e-31
6.140000e+02 2.685372e-31
6.150000e+02 3.244454e-31
6.160000e+02 3.917481e-31
6.170000e+02 4.727174e-31
6.180000e+02 5.700686e-31
6.190000e+02 6.870455e-31
6.200000e+02 8.275148e-31
6.210000e+02 9.960966e-31
6.220000e+02 1.198293e-30
6.230000e+02 1.440662e-30
6.240000e+02 1.731009e-30
6.250000e+02 2.078627e-30
6.260000e+02 2.494560e-30
6.270000e+02 2.991948e-30
6.280000e+02 3.586383e-30
6.290000e+02 4.296398e-30
6.300000e+02 5.144005e-30
6.310000e+02 6.237239e-30
6.320000e+02 7.360894e-30
6.330000e+02 8.797668e-30
6.340000e+02 1.050893e-29
6.350000e+02 1.255088e-29
6.360000e+02 1.496893e-29
6.370000e+02 1.785003e-29
6.380000e+02 2.127367e-29
6.390000e+02 2.533976e-29
6.400000e+02 3.016617e-29
6.410000e+02 3.589198e-29
6.420000e+02 4.268083e-29
6.430000e+02 5.072594e-29
6.440000e+02 6.025451e-29
6.450000e+02 7.153393e-29
6.460000e+02 8.487876e-29
6.470000e+02 1.006587e-28
6.480000e+02 1.193082e-28
6.490000e+02 1.413372e-28
6.500000e+02 1.673446e-28
6.510000e+02 1.980321e-28
6.520000e+02 2.342235e-28
6.530000e+02 2.768835e-28
6.540000e+02 3.271422e-28
6.550000e+02 3.863225e-28
6.560000e+02 4.559722e-28
6.570000e+02 5.379014e-28
6.580000e+02 6.342260e-28
6.590000e+02 7.474177e-28
6.600000e+02 8.803629e-28
6.610000e+02 1.036430e-27
6.620000e+02 1.219550e-27
6.630000e+02 1.434303e-27
6.640000e+02 1.686030e-27
6.650000e+02 1.980950e-27
6.660000e+02 2.326090e-27
6.670000e+02 2.730276e-27
6.680000e+02 3.203123e-27
6.690000e+02 3.756024e-27
6.700000e+02 4.402221e-27
6.710000e+02 5.157095e-27
6.720000e+02 6.038498e-27
6.730000e+02 7.067151e-27
6.740000e+02 8.267084e-27
6.750000e+02 9.666154e-27
6.760000e+02 1.129664e-26
6.770000e+02 1.319594e-26
6.780000e+02 1.540733e-26
6.790000e+02 1.798091e-26
6.800000e+02 2.097461e-26
6.810000e+02 2.445540e-26
6.820000e+02 2.850070e-26
6.830000e+02 3.319990e-26
6.840000e+02 3.865624e-26
6.850000e+02 4.498884e-26
6.860000e+02 5.233511e-26
6.870000e+02 6.085351e-26
6.880000e+02 7.072664e-26
6.890000e+02 8.216487e-26
6.900000e+02 9.541046e-26
6.910000e+02 1.107422e-25
6.920000e+02 1.284810e-25
6.930000e+02 1.489962e-25
6.940000e+02 1.727103e-25
6.950000e+02 2.001122e-25
6.960000e+02 2.317612e-25
6.970000e+02 2.682997e-25
6.980000e+02 3.104651e-25
6.990000e+02 3.591065e-25
7.000000e+02 4.151844e-25
7.010000e+02 4.798198e-25
7.020000e+02 5.542831e-25
7.030000e+02 6.400329e-25
7.040000e+02 7.387388e-25
7.050000e+02 8.523114e-25
7.060000e+02 9.830666e-25
7.070000e+02 1.133111e-24
7.080000e+02 1.305691e-24
7.090000e+02 1.503940e-24
7.100000e+02 1.731582e-24
7.110000e+02 1.992869e-24
7.120000e+02 2.292655e-24
7.130000e+02 2.636473e-24
7.140000e+02 3.030634e-24
7.150000e+02 3.482330e-24
7.160000e+02 3.999754e-24
7.170000e+02 4.592238e-24
7.180000e+02 5.270405e-24
7.190000e+02 6.046341e-24
7.200000e+02 6.933798e-24
7.210000e+02 7.948411e-24
7.220000e+02 9.107951e-24
7.230000e+02 1.043261e-23
7.240000e+02 1.194533e-23
7.250000e+02 1.367214e-23
7.260000e+02 1.564260e-23
7.270000e+02 1.789024e-23
7.280000e+02 2.045308e-23
7.290000e+02 2.337424e-23
7.300000e+02 2.670257e-23
7.310000e+02 3.049369e-23
7.320000e+02 3.480944e-23
7.330000e+02 3.971876e-23
7.340000e+02 4.530699e-23
7.350000e+02 5.166244e-23
7.360000e+02 5.888917e-23
7.370000e+02 6.709915e-23
7.380000e+02 7.642769e-23
7.390000e+02 8.702163e-23
7.400000e+02 9.904830e-23
7.410000e+02 1.126966e-22
7.420000e+02 1.281797e-22
7.430000e+02 1.457380e-22
7.440000e+02 1.656427e-22
7.450000e+02 1.881993e-22
7.460000e+02 2.137524e-22
7.470000e+02 2.426899e-22
7.480000e+02 2.754486e-22
7.490000e+02 3.125205e-22
7.500000e+02 3.544590e-22
7.510000e+02 4.018867e-22
7.520000e+02 4.555037e-22
7.530000e+02 5.160972e-22
7.540000e+02 5.845519e-22
7.550000e+02 6.618644e-22
7.560000e+02 7.491423e-22
7.570000e+02 8.476545e-22
7.580000e+02 9.587828e-22
7.590000e+02 1.084127e-21
7.600000e+02 1.225450e-21
7.610000e+02 1.384736e-21
7.620000e+02 1.564209e-21
7.630000e+02 1.766367e-21
7.640000e+02 1.993988e-21
7.650000e+02 2.250489e-21
7.660000e+02 2.538585e-21
7.670000e+02 2.862875e-21
7.680000e+02 3.227644e-21
7.690000e+02 3.639203e-21
7.700000e+02 4.098465e-21
7.710000e+02 4.616183e-21
7.720000e+02 5.197650e-21
7.730000e+02 5.850509e-21
7.740000e+02 6.583299e-21
7.750000e+02 7.405544e-21
7.760000e+02 8.327883e-21
7.770000e+02 9.362181e-21
7.780000e+02 1.052167e-20
7.790000e+02 1.182111e-20
7.800000e+02 1.327694e-20
7.810000e+02 1.490749e-20
7.820000e+02 1.673318e-20
7.830000e+02 1.877674e-20
7.840000e+02 2.106349e-20
7.850000e+02 2.362159e-20
7.860000e+02 2.648241e-20
7.870000e+02 2.967899e-20
7.880000e+02 3.325352e-20
7.890000e+02 3.724748e-20
7.900000e+02 4.170878e-20
7.910000e+02 4.669065e-20
7.920000e+02 5.225221e-20
7.930000e+02 5.845911e-20
7.940000e+02 6.538423e-20
7.950000e+02 7.310845e-20
7.960000e+02 8.172151e-20
7.970000e+02 9.132295e-20
7.980000e+02 1.020231e-19
7.990000e+02 1.139444e-19
8.000000e+02 1.272224e-19
8.010000e+02 1.420073e-19
8.020000e+02 1.584655e-19
8.030000e+02 1.767814e-19
8.040000e+02 1.971588e-19
8.050000e+02 2.285598e-19
8.060000e+02 2.450326e-19
8.070000e+02 2.730408e-19
8.080000e+02 3.041752e-19
8.090000e+02 3.387662e-19
8.100000e+02 3.771873e-19
8.110000e+02 4.198510e-19
8.120000e+02 4.672130e-19
8.130000e+02 5.197765e-19
8.140000e+02 5.781248e-19
8.150000e+02 6.427880e-19
8.160000e+02 7.145262e-19
8.170000e+02 7.940579e-19
8.180000e+02 8.822067e-19
8.190000e+02 9.798806e-19
8.200000e+02 1.088082e-18
8.210000e+02 1.207927e-18
8.220000e+02 1.340582e-18
8.230000e+02 1.487438e-18
8.240000e+02 1.649950e-18
8.250000e+02 1.829743e-18
8.260000e+02 2.028602e-18
8.270000e+02 2.248492e-18
8.280000e+02 2.491577e-18
8.290000e+02 2.760235e-18
8.300000e+02 3.057081e-18
8.310000e+02 3.384989e-18
8.320000e+02 3.747120e-18
8.330000e+02 4.146945e-18
8.340000e+02 4.588278e-18
8.350000e+02 5.090065e-18
8.360000e+02 5.612629e-18
8.370000e+02 6.205293e-18
8.380000e+02 6.858839e-18
8.390000e+02 7.579344e-18
8.400000e+02 8.373475e-18
8.410000e+02 9.248541e-18
8.420000e+02 1.021256e-17
8.430000e+02 1.127480e-17
8.440000e+02 1.244417e-17
8.450000e+02 1.374223e-17
8.460000e+02 1.514698e-17
8.470000e+02 1.707882e-17
8.480000e+02 1.868454e-17
8.490000e+02 2.030621e-17
8.500000e+02 2.347763e-17
8.510000e+02 2.465882e-17
8.520000e+02 2.899447e-17
8.530000e+02 2.991676e-17
8.540000e+02 3.294173e-17
8.550000e+02 3.627333e-17
8.560000e+02 3.990779e-17
8.570000e+02 4.391136e-17
8.580000e+02 4.848204e-17
8.590000e+02 5.312548e-17
8.600000e+02 5.863331e-17
8.610000e+02 6.421635e-17
8.620000e+02 7.057369e-17
8.630000e+02 7.754623e-17
8.640000e+02 9.202843e-17
8.650000e+02 9.356335e-17
8.660000e+02 1.028963e-16
8.670000e+02 1.127858e-16
8.680000e+02 1.237883e-16
8.690000e+02 1.358382e-16
8.700000e+02 1.865926e-16
8.710000e+02 1.634571e-16
8.720000e+02 1.881629e-16
8.730000e+02 1.965126e-16
8.740000e+02 2.154015e-16
8.750000e+02 2.360563e-16
8.760000e+02 2.597988e-16
8.770000e+02 2.835223e-16
8.780000e+02 3.900470e-16
8.790000e+02 3.470122e-16
8.800000e+02 3.901326e-16
8.810000e+02 4.377674e-16
8.820000e+02 4.455192e-16
8.830000e+02 4.996567e-16
8.840000e+02 6.156150e-16
8.850000e+02 5.827684e-16
8.860000e+02 6.372181e-16
8.870000e+02 6.964409e-16
8.880000e+02 7.917151e-16
8.890000e+02 8.604070e-16
8.900000e+02 9.084552e-16
8.910000e+02 9.941355e-16
8.920000e+02 1.083416e-15
8.930000e+02 1.182936e-15
8.940000e+02 1.330585e-15
8.950000e+02 1.408899e-15
8.960000e+02 1.537184e-15
8.970000e+02 1.676798e-15
8.980000e+02 1.895142e-15
8.990000e+02 1.995457e-15
9.000000e+02 2.202322e-15
9.010000e+02 2.370725e-15
9.020000e+02 2.807158e-15
9.030000e+02 4.539872e-15
9.040000e+02 3.578644e-15
9.050000e+02 3.381797e-15
9.060000e+02 3.638034e-15
9.070000e+02 3.956898e-15
9.080000e+02 4.309197e-15
9.090000e+02 4.690079e-15
9.100000e+02 5.099789e-15
9.110000e+02 6.008371e-15
9.120000e+02 6.037619e-15
9.130000e+02 9.127288e-15
9.140000e+02 2.595627e-15
9.150000e+02 7.109806e-15
9.160000e+02 2.727756e-14
9.170000e+02 3.880507e-15
9.180000e+02 7.578848e-15
9.190000e+02 7.979874e-15
9.200000e+02 1.481215e-13
9.210000e+02 1.105812e-14
9.220000e+02 1.294855e-14
9.230000e+02 6.108108e-15
9.240000e+02 8.378454e-15
9.250000e+02 4.853101e-15
9.260000e+02 6.419634e-14
9.270000e+02 1.015897e-14
9.280000e+02 8.843382e-14
9.290000e+02 4.253330e-13
9.300000e+02 9.856489e-14
9.310000e+02 1.054299e-14
9.320000e+02 3.658394e-14
9.330000e+02 1.328638e-14
9.340000e+02 9.878478e-15
9.350000e+02 1.966529e-14
9.360000e+02 1.553999e-14
9.370000e+02 2.602620e-14
9.380000e+02 1.430417e-14
9.390000e+02 1.495554e-14
9.400000e+02 7.899219e-14
9.410000e+02 2.659507e-14
9.420000e+02 3.255377e-12
9.430000e+02 2.047586e-14
9.440000e+02 1.493184e-12
9.450000e+02 1.319792e-12
9.460000e+02 4.246205e-14
9.470000e+02 1.190247e-13
9.480000e+02 1.699797e-13
9.490000e+02 4.218865e-13
9.500000e+02 6.856749e-14
9.510000e+02 7.903278e-14
9.520000e+02 1.350718e-13
9.530000e+02 7.074753e-14
9.540000e+02 2.256185e-13
9.550000e+02 5.164848e-14
9.560000e+02 3.458216e-13
9.570000e+02 6.483214e-14
9.580000e+02 3.515787e-13
9.590000e+02 9.431256e-14
9.600000e+02 1.265692e-13
9.610000e+02 1.266040e-13
9.620000e+02 9.424200e-14
9.630000e+02 1.285471e-13
9.640000e+02 1.929760e-13
9.650000e+02 4.327347e-13
9.660000e+02 1.298965e-13
9.670000e+02 2.652334e-13
9.680000e+02 3.338841e-13
9.690000e+02 1.456169e-13
9.700000e+02 2.466244e-13
9.710000e+02 2.882236e-13
9.720000e+02 5.308201e-13
9.730000e+02 8.376836e-13
9.740000e+02 2.453770e-13
9.750000e+02 2.342430e-13
9.760000e+02 2.009592e-12
9.770000e+02 5.479250e-13
9.780000e+02 4.073787e-13
9.790000e+02 4.063542e-11
9.800000e+02 2.978307e-12
9.810000e+02 3.690104e-13
9.820000e+02 4.295729e-13
9.830000e+02 3.151280e-12
9.840000e+02 1.213171e-12
9.850000e+02 4.854734e-13
9.860000e+02 5.059106e-13
9.870000e+02 1.328345e-12
9.880000e+02 2.255120e-12
9.890000e+02 9.268842e-13
9.900000e+02 2.017731e-12
9.910000e+02 8.249850e-13
9.920000e+02 4.039170e-12
9.930000e+02 9.262903e-12
9.940000e+02 1.021663e-12
9.950000e+02 1.087362e-12
9.960000e+02 2.504784e-12
9.970000e+02 6.318395e-12
9.980000e+02 2.879033e-12
9.990000e+02 1.530907e-12
1.000000e+03 1.338057e-10
1.001000e+03 5.196688e-11
1.002000e+03 9.190903e-12
1.003000e+03 2.270529e-12
1.004000e+03 8.042208e-12
1.005000e+03 1.940184e-12
1.006000e+03 7.979215e-12
1.007000e+03 2.212108e-11
1.008000e+03 6.497369e-12
1.009000e+03 3.312733e-12
1.010000e+03 4.520086e-12
1.011000e+03 3.898180e-12
1.012000e+03 8.884281e-12
1.013000e+03 1.014268e-11
1.014000e+03 1.778990e-11
1.015000e+03 1.557288e-11
1.016000e+03 4.101974e-12
1.017000e+03 2.212563e-11
1.018000e+03 7.526531e-12
1.019000e+03 2.271689e-11
1.020000e+03 1.293439e-11
1.021000e+03 6.153711e-12
1.022000e+03 6.395245e-12
1.023000e+03 2.181830e-11
1.024000e+03 5.529538e-11
1.025000e+03 3.731541e-11
1.026000e+03 1.011285e-11
1.027000e+03 9.625916e-12
1.028000e+03 1.188988e-11
1.029000e+03 4.805549e-11
1.030000e+03 1.041488e-11
1.031000e+03 1.394168e-11
1.032000e+03 1.034277e-10
1.033000e+03 3.428928e-11
1.034000e+03 1.513513e-11
1.035000e+03 1.848066e-11
1.036000e+03 7.361652e-11
1.037000e+03 3.071645e-11
1.038000e+03 1.244277e-10
1.039000e+03 6.039405e-11
1.040000e+03 2.469664e-11
1.041000e+03 6.214658e-11
1.042000e+03 1.386906e-10
1.043000e+03 3.713748e-10
1.044000e+03 1.016163e-09
1.045000e+03 3.035740e-11
1.046000e+03 4.106653e-11
1.047000e+03 4.944972e-11
1.048000e+03 6.304992e-11
1.049000e+03 4.166551e-11
1.050000e+03 3.876062e-11
1.051000e+03 4.520331e-11
1.052000e+03 2.495047e-10
1.053000e+03 2.010192e-10
1.054000e+03 2.287407e-10
1.055000e+03 2.922283e-10
1.056000e+03 3.572764e-10
1.057000e+03 1.181834e-10
1.058000e+03 8.365264e-11
1.059000e+03 6.815273e-11
1.060000e+03 1.432929e-10
1.061000e+03 3.017777e-10
1.062000e+03 1.413614e-10
1.063000e+03 2.075082e-10
1.064000e+03 9.878764e-11
1.065000e+03 4.458448e-10
1.066000e+03 4.942808e-10
1.067000e+03 1.427666e-10
1.068000e+03 1.056924e-09
1.069000e+03 3.222066e-10
1.070000e+03 1.279032e-10
1.071000e+03 2.898531e-10
1.072000e+03 9.977882e-09
1.073000e+03 6.918559e-10
1.074000e+03 2.602457e-10
1.075000e+03 2.176859e-10
1.076000e+03 9.518548e-09
1.077000e+03 3.316462e-10
1.078000e+03 3.273696e-10
1.079000e+03 2.285010e-10
1.080000e+03 2.928174e-10
1.081000e+03 1.071862e-09
1.082000e+03 6.324197e-10
1.083000e+03 4.246150e-10
1.084000e+03 2.123040e-08
1.085000e+03 3.146969e-10
1.086000e+03 2.965810e-09
1.087000e+03 4.678986e-10
1.088000e+03 1.072107e-08
1.089000e+03 1.567812e-08
1.090000e+03 4.277949e-10
1.091000e+03 4.515357e-10
1.092000e+03 1.206092e-08
1.093000e+03 2.995274e-08
1.094000e+03 6.339197e-10
1.095000e+03 4.761318e-08
1.096000e+03 2.988562e-08
1.097000e+03 1.232016e-08
1.098000e+03 2.692324e-08
1.099000e+03 7.206680e-10
1.100000e+03 2.529724e-09
1.101000e+03 1.660432e-09
1.102000e+03 8.467047e-10
1.103000e+03 2.648974e-07
1.104000e+03 1.360809e-08
1.105000e+03 9.466338e-08
1.106000e+03 1.507323e-09
1.107000e+03 2.866976e-09
1.108000e+03 8.801986e-09
1.109000e+03 1.294074e-09
1.110000e+03 1.283566e-08
1.111000e+03 1.071218e-07
1.112000e+03 4.049587e-09
1.113000e+03 2.130557e-07
1.114000e+03 2.573720e-09
1.115000e+03 1.932384e-09
1.116000e+03 3.715043e-09
1.117000e+03 1.608157e-07
1.118000e+03 2.097963e-09
1.119000e+03 3.568638e-09
1.120000e+03 3.436757e-09
1.121000e+03 3.994036e-08
1.122000e+03 1.126263e-06
1.123000e+03 1.903196e-07
1.124000e+03 2.014881e-07
1.125000e+03 7.588396e-08
1.126000e+03 2.387733e-06
1.127000e+03 3.355064e-08
1.128000e+03 3.862251e-07
1.129000e+03 1.146185e-08
1.130000e+03 5.299326e-07
1.131000e+03 1.440124e-06
1.132000e+03 6.450816e-09
1.133000e+03 5.600555e-09
1.134000e+03 6.173423e-08
1.135000e+03 9.433156e-07
1.136000e+03 7.126538e-09
1.137000e+03 3.705834e-07
1.138000e+03 3.156550e-08
1.139000e+03 6.444330e-07
1.140000e+03 1.573349e-07
1.141000e+03 3.484903e-06
1.142000e+03 1.570644e-06
1.143000e+03 1.751550e-08
1.144000e+03 2.827948e-06
1.145000e+03 1.841531e-08
1.146000e+03 1.055350e-06
1.147000e+03 1.642663e-06
1.148000e+03 1.070916e-08
1.149000e+03 3.189787e-07
1.150000e+03 2.311459e-07
1.151000e+03 1.015256e-06
1.152000e+03 7.990563e-08
1.153000e+03 3.663153e-06
1.154000e+03 1.113177e-05
1.155000e+03 7.217780e-07
1.156000e+03 3.917174e-06
1.157000e+03 4.835727e-06
1.158000e+03 4.020512e-08
1.159000e+03 2.499922e-06
1.160000e+03 1.034704e-07
1.161000e+03 3.482974e-06
1.162000e+03 2.200765e-08
1.163000e+03 4.652725e-08
1.164000e+03 3.933756e-08
1.165000e+03 3.963557e-07
1.166000e+03 2.541533e-07
1.167000e+03 3.031135e-07
1.168000e+03 2.600336e-06
1.169000e+03 1.156868e-05
1.170000e+03 8.721827e-08
1.171000e+03 3.724739e-06
1.172000e+03 5.115403e-07
1.173000e+03 3.280921e-06
1.174000e+03 6.340952e-08
1.175000e+03 4.833645e-08
1.176000e+03 4.855351e-08
1.177000e+03 1.789243e-05
1.178000e+03 2.029424e-05
1.179000e+03 1.099888e-05
1.180000e+03 1.266422e-06
1.181000e+03 1.572720e-05
1.182000e+03 5.556281e-06
1.183000e+03 7.993540e-07
1.184000e+03 5.843858e-07
1.185000e+03 6.129621e-07
1.186000e+03 7.835331e-08
1.187000e+03 4.985950e-06
1.188000e+03 5.283861e-07
1.189000e+03 1.295381e-05
1.190000e+03 1.036350e-05
1.191000e+03 4.886654e-06
1.192000e+03 7.369518e-06
1.193000e+03 2.408805e-06
1.194000e+03 7.564785e-06
1.195000e+03 6.130899e-06
1.196000e+03 3.540919e-05
1.197000e+03 6.800234e-04
1.198000e+03 1.264568e-07
1.199000e+03 6.093137e-04
1.200000e+03 1.778053e-07
1.201000e+03 8.797395e-05
1.202000e+03 3.791614e-06
1.203000e+03 8.927500e-05
1.204000e+03 2.554115e-07
1.205000e+03 4.440574e-05
1.206000e+03 2.564042e-05
1.207000e+03 8.720031e-06
1.208000e+03 2.999570e-05
1.209000e+03 2.332194e-04
1.210000e+03 2.455536e-07
1.211000e+03 5.547142e-05
1.212000e+03 8.899879e-07
1.213000e+03 3.829365e-05
1.214000e+03 6.184164e-06
1.215000e+03 3.887449e-07
1.216000e+03 4.114825e-07
1.217000e+03 2.261883e-06
1.218000e+03 3.296434e-05
1.219000e+03 3.528485e-05
1.220000e+03 4.529814e-07
1.221000e+03 7.612746e-05
1.222000e+03 8.858948e-06
1.223000e+03 1.968874e-06
1.224000e+03 1.670667e-04
1.225000e+03 4.503818e-07
1.226000e+03 5.680188e-04
1.227000e+03 4.099179e-04
1.228000e+03 1.008684e-06
1.229000e+03 1.543520e-04
1.230000e+03 4.910713e-05
1.231000e+03 6.716582e-07
1.232000e+03 1.112178e-03
1.233000e+03 1.596530e-03
1.234000e+03 1.604896e-03
1.235000e+03 3.508950e-04
1.236000e+03 1.803455e-06
1.237000e+03 1.293049e-03
1.238000e+03 6.277045e-04
1.239000e+03 1.543027e-05
1.240000e+03 4.997035e-04
1.241000e+03 6.306229e-05
1.242000e+03 2.329076e-04
1.243000e+03 1.449174e-03
1.244000e+03 1.671284e-03
1.245000e+03 1.595567e-03
1.246000e+03 1.464189e-04
1.247000e+03 2.869849e-04
1.248000e+03 1.543952e-03
1.249000e+03 2.223014e-03
1.250000e+03 1.031559e-03
1.251000e+03 1.835539e-03
1.252000e+03 7.676507e-04
1.253000e+03 2.248207e-03
1.254000e+03 6.795801e-04
1.255000e+03 1.664430e-04
1.256000e+03 3.883141e-04
1.257000e+03 6.140680e-04
1.258000e+03 8.325931e-05
1.259000e+03 1.352094e-04
1.260000e+03 1.649764e-03
1.261000e+03 1.731934e-05
1.262000e+03 1.664078e-03
1.263000e+03 1.017540e-03
1.264000e+03 1.124757e-04
1.265000e+03 3.956733e-04
1.266000e+03 1.602032e-03
1.267000e+03 3.652150e-04
