# wavelength_A flux
5.000000e+02 8.997459e-39
5.010000e+02 1.173197e-38
5.020000e+02 1.528131e-38
5.030000e+02 1.988342e-38
5.040000e+02 2.584435e-38
5.050000e+02 3.833595e-38
5.060000e+02 4.963358e-38
5.070000e+02 6.411950e-38
5.080000e+02 8.288070e-38
5.090000e+02 1.069350e-37
5.100000e+02 1.163077e-37
5.110000e+02 1.774959e-37
5.120000e+02 2.280822e-37
5.130000e+02 2.934714e-37
5.140000e+02 3.768204e-37
5.150000e+02 4.833593e-37
5.160000e+02 6.194126e-37
5.170000e+02 7.931721e-37
5.180000e+02 1.014612e-36
5.190000e+02 1.296661e-36
5.200000e+02 1.655579e-36
5.210000e+02 2.111876e-36
5.220000e+02 2.689577e-36
5.230000e+02 3.427015e-36
5.240000e+02 4.359874e-36
5.250000e+02 5.541465e-36
5.260000e+02 7.036944e-36
5.270000e+02 8.928035e-36
5.280000e+02 1.131728e-35
5.290000e+02 1.433326e-35
5.300000e+02 1.813705e-35
5.310000e+02 2.293025e-35
5.320000e+02 2.896498e-35
5.330000e+02 3.655629e-35
5.340000e+02 4.609742e-35
5.350000e+02 5.807871e-35
5.360000e+02 7.310916e-35
5.370000e+02 8.723927e-35
5.380000e+02 1.155625e-34
5.390000e+02 1.451161e-34
5.400000e+02 1.820681e-34
5.410000e+02 2.282064e-34
5.420000e+02 2.858809e-34
5.430000e+02 3.577866e-34
5.440000e+02 4.474124e-34
5.450000e+02 5.590347e-34
5.460000e+02 6.979401e-34
5.470000e+02 8.706587e-34
5.480000e+02 1.085250e-33
5.490000e+02 1.351655e-33
5.500000e+02 1.682122e-33
5.510000e+02 2.091735e-33
5.520000e+02 2.599052e-33
5.530000e+02 3.226890e-33
5.540000e+02 4.003251e-33
5.550000e+02 4.962632e-33
5.560000e+02 6.147156e-33
5.570000e+02 7.608586e-33
5.580000e+02 9.410292e-33
5.590000e+02 1.162983e-32
5.600000e+02 1.436203e-32
5.610000e+02 1.772283e-32
5.620000e+02 2.185375e-32
5.630000e+02 2.692752e-32
5.640000e+02 3.315477e-32
5.650000e+02 4.079212e-32
5.660000e+02 5.015207e-32
5.670000e+02 6.161485e-32
5.680000e+02 7.564276e-32
5.690000e+02 9.279752e-32
5.700000e+02 1.137611e-31
5.710000e+02 1.393611e-31
5.720000e+02 1.706008e-31
5.730000e+02 2.086957e-31
5.740000e+02 2.551177e-31
5.750000e+02 3.116477e-31
5.760000e+02 3.804495e-31
5.770000e+02 4.641262e-31
5.780000e+02 5.657912e-31
5.790000e+02 6.892524e-31
5.800000e+02 8.390805e-31
5.810000e+02 1.020782e-30
5.820000e+02 1.240984e-30
5.830000e+02 1.507627e-30
5.840000e+02 1.828771e-30
5.850000e+02 2.220436e-30
5.860000e+02 2.692797e-30
5.870000e+02 3.262911e-30
5.880000e+02 3.951070e-30
5.890000e+02 4.781223e-30
5.900000e+02 5.782030e-30
5.910000e+02 6.987800e-30
5.920000e+02 8.439584e-30
5.930000e+02 1.018646e-29
5.940000e+02 1.228708e-29
5.950000e+02 1.481148e-29
5.960000e+02 1.784326e-29
5.970000e+02 2.148211e-29
5.980000e+02 2.584689e-29
5.990000e+02 3.107916e-29
6.000000e+02 3.734749e-29
6.010000e+02 4.485243e-29
6.020000e+02 5.383244e-29
6.030000e+02 6.457094e-29
6.040000e+02 7.740451e-29
6.050000e+02 9.273271e-29
6.060000e+02 1.110295e-28
6.070000e+02 1.328567e-28
6.080000e+02 1.588803e-28
6.090000e+02 1.898886e-28
6.100000e+02 2.268148e-28
6.110000e+02 2.707627e-28
6.120000e+02 3.230369e-28
6.130000e+02 3.851792e-28
6.140000e+02 4.590098e-28
6.150000e+02 5.466768e-28
6.160000e+02 6.507141e-28
6.170000e+02 7.741084e-28
6.180000e+02 9.203785e-28
6.190000e+02 1.093668e-27
6.200000e+02 1.298853e-27
6.210000e+02 1.541669e-27
6.220000e+02 1.828858e-27
6.230000e+02 2.168342e-27
6.240000e+02 2.569422e-27
6.250000e+02 3.043017e-27
6.260000e+02 3.601932e-27
6.270000e+02 4.261182e-27
6.280000e+02 5.038360e-27
6.290000e+02 5.954068e-27
6.300000e+02 7.032417e-27
6.310000e+02 8.291859e-27
6.320000e+02 9.794710e-27
6.330000e+02 1.155018e-26
6.340000e+02 1.361312e-26
6.350000e+02 1.603553e-26
6.360000e+02 1.888042e-26
6.370000e+02 2.221770e-26
6.380000e+02 2.613134e-26
6.390000e+02 3.071853e-26
6.400000e+02 3.609245e-26
6.410000e+02 4.238484e-26
6.420000e+02 4.974894e-26
6.430000e+02 5.836297e-26
6.440000e+02 6.843403e-26
6.450000e+02 8.020271e-26
6.460000e+02 9.394835e-26
6.470000e+02 1.099951e-25
6.480000e+02 1.287191e-25
6.490000e+02 1.505562e-25
6.500000e+02 1.760116e-25
6.510000e+02 2.056705e-25
6.520000e+02 2.402104e-25
6.530000e+02 2.804153e-25
6.540000e+02 3.271918e-25
6.550000e+02 3.815883e-25
6.560000e+02 4.448160e-25
6.570000e+02 5.182741e-25
6.580000e+02 6.035777e-25
6.590000e+02 7.025909e-25
6.600000e+02 8.174634e-25
6.610000e+02 9.506738e-25
6.620000e+02 1.105078e-24
6.630000e+02 1.283966e-24
6.640000e+02 1.491126e-24
6.650000e+02 1.730917e-24
6.660000e+02 2.008366e-24
6.670000e+02 2.329212e-24
6.680000e+02 2.700094e-24
6.690000e+02 3.128623e-24
6.700000e+02 3.623539e-24
6.710000e+02 4.194872e-24
6.720000e+02 4.854133e-24
6.730000e+02 5.614519e-24
6.740000e+02 6.491157e-24
6.750000e+02 7.501382e-24
6.760000e+02 8.665047e-24
6.770000e+02 1.000488e-23
6.780000e+02 1.154688e-23
6.790000e+02 1.332081e-23
6.800000e+02 1.536067e-23
6.810000e+02 1.770534e-23
6.820000e+02 2.039923e-23
6.830000e+02 2.349305e-23
6.840000e+02 2.704468e-23
6.850000e+02 3.112018e-23
6.860000e+02 3.579489e-23
6.870000e+02 4.115467e-23
6.880000e+02 4.729740e-23
6.890000e+02 5.433458e-23
6.900000e+02 6.239317e-23
6.910000e+02 7.161766e-23
6.920000e+02 8.217249e-23
6.930000e+02 9.424463e-23
6.940000e+02 1.080467e-22
6.950000e+02 1.238203e-22
6.960000e+02 1.418399e-22
6.970000e+02 1.624171e-22
6.980000e+02 1.859058e-22
6.990000e+02 2.127072e-22
7.000000e+02 2.432770e-22
7.010000e+02 2.781311e-22
7.020000e+02 3.178547e-22
7.030000e+02 3.631106e-22
7.040000e+02 4.146497e-22
7.050000e+02 4.733216e-22
7.060000e+02 5.400837e-22
7.070000e+02 6.160381e-22
7.080000e+02 7.024008e-22
7.090000e+02 8.005676e-22
7.100000e+02 9.121100e-22
7.110000e+02 1.038803e-21
7.120000e+02 1.182652e-21
7.130000e+02 1.345919e-21
7.140000e+02 1.531158e-21
7.150000e+02 1.741247e-21
7.160000e+02 1.979435e-21
7.170000e+02 2.249381e-21
7.180000e+02 2.555209e-21
7.190000e+02 2.901564e-21
7.200000e+02 3.293674e-21
7.210000e+02 3.737428e-21
7.220000e+02 4.239448e-21
7.230000e+02 4.807182e-21
7.240000e+02 5.449006e-21
7.250000e+02 6.174336e-21
7.260000e+02 6.993748e-21
7.270000e+02 7.919123e-21
7.280000e+02 8.963803e-21
7.290000e+02 1.014276e-20
7.300000e+02 1.147280e-20
7.310000e+02 1.297276e-20
7.320000e+02 1.466378e-20
7.330000e+02 1.656958e-20
7.340000e+02 1.871664e-20
7.350000e+02 2.113473e-20
7.360000e+02 2.385713e-20
7.370000e+02 2.692115e-20
7.380000e+02 3.036847e-20
7.390000e+02 3.424578e-20
7.400000e+02 3.860526e-20
7.410000e+02 4.350527e-20
7.420000e+02 4.901101e-20
7.430000e+02 5.519536e-20
7.440000e+02 6.213969e-20
7.450000e+02 6.993488e-20
7.460000e+02 7.868236e-20
7.470000e+02 8.849532e-20
7.480000e+02 9.950000e-20
7.490000e+02 1.118372e-19
7.500000e+02 1.256640e-19
7.510000e+02 1.411551e-19
7.520000e+02 1.585056e-19
7.530000e+02 1.779326e-19
7.540000e+02 1.996777e-19
7.550000e+02 2.240099e-19
7.560000e+02 2.512288e-19
7.570000e+02 2.816672e-19
7.580000e+02 3.156958e-19
7.590000e+02 3.537261e-19
7.600000e+02 3.962159e-19
7.610000e+02 4.436737e-19
7.620000e+02 4.966643e-19
7.630000e+02 5.558150e-19
7.640000e+02 6.218222e-19
7.650000e+02 6.954575e-19
7.660000e+02 7.775810e-19
7.670000e+02 8.691413e-19
7.680000e+02 9.711932e-19
7.690000e+02 1.084902e-18
7.700000e+02 1.211574e-18
7.710000e+02 1.352634e-18
7.720000e+02 1.509673e-18
7.730000e+02 1.684453e-18
7.740000e+02 1.878920e-18
7.750000e+02 2.095231e-18
7.760000e+02 2.335770e-18
7.770000e+02 2.603174e-18
7.780000e+02 2.900361e-18
7.790000e+02 3.230553e-18
7.800000e+02 3.597313e-18
7.810000e+02 4.004577e-18
7.820000e+02 4.456689e-18
7.830000e+02 4.958452e-18
7.840000e+02 5.515162e-18
7.850000e+02 6.132666e-18
7.860000e+02 6.817414e-18
7.870000e+02 7.576524e-18
7.880000e+02 8.417836e-18
7.890000e+02 9.350000e-18
7.900000e+02 1.038255e-17
7.910000e+02 1.152598e-17
7.920000e+02 1.279181e-17
7.930000e+02 1.419293e-17
7.940000e+02 1.574323e-17
7.950000e+02 1.745817e-17
7.960000e+02 1.935475e-17
7.970000e+02 2.145165e-17
7.980000e+02 2.376942e-17
7.990000e+02 2.633064e-17
8.000000e+02 2.916017e-17
8.010000e+02 3.228529e-17
8.020000e+02 3.573598e-17
8.030000e+02 3.954519e-17
8.040000e+02 4.374908e-17
8.050000e+02 4.837581e-17
8.060000e+02 5.350358e-17
8.070000e+02 5.914564e-17
8.080000e+02 6.536594e-17
8.090000e+02 7.222201e-17
8.100000e+02 7.977696e-17
8.110000e+02 8.809994e-17
8.120000e+02 9.726675e-17
8.130000e+02 1.073604e-16
8.140000e+02 1.184719e-16
8.150000e+02 1.307009e-16
8.160000e+02 1.441564e-16
8.170000e+02 1.589578e-16
8.180000e+02 1.752359e-16
8.190000e+02 1.931334e-16
8.200000e+02 2.128069e-16
8.210000e+02 2.344273e-16
8.220000e+02 2.581817e-16
8.230000e+02 2.842742e-16
8.240000e+02 3.129284e-16
8.250000e+02 3.443881e-16
8.260000e+02 3.789201e-16
8.270000e+02 4.168151e-16
8.280000e+02 4.583913e-16
8.290000e+02 5.039952e-16
8.300000e+02 5.540056e-16
8.310000e+02 6.088354e-16
8.320000e+02 6.689352e-16
8.330000e+02 7.347962e-16
8.340000e+02 8.069543e-16
8.350000e+02 8.859858e-16
8.360000e+02 9.725498e-16
8.370000e+02 1.067317e-15
8.380000e+02 1.171050e-15
8.390000e+02 1.284573e-15
8.400000e+02 1.408780e-15
8.410000e+02 1.544647e-15
8.420000e+02 1.693235e-15
8.430000e+02 1.855699e-15
8.440000e+02 2.033296e-15
8.450000e+02 2.227393e-15
8.460000e+02 2.439475e-15
8.470000e+02 2.671136e-15
8.480000e+02 2.924186e-15
8.490000e+02 3.200508e-15
8.500000e+02 3.502099e-15
8.510000e+02 3.831397e-15
8.520000e+02 4.190586e-15
8.530000e+02 4.582654e-15
8.540000e+02 5.010212e-15
8.550000e+02 5.476480e-15
8.560000e+02 5.984857e-15
8.570000e+02 6.539027e-15
8.580000e+02 7.142932e-15
8.590000e+02 7.801073e-15
8.600000e+02 8.517977e-15
8.610000e+02 9.298822e-15
8.620000e+02 1.014910e-14
8.630000e+02 1.107481e-14
8.640000e+02 1.208215e-14
8.650000e+02 1.317900e-14
8.660000e+02 1.437209e-14
8.670000e+02 1.566998e-14
8.680000e+02 1.708154e-14
8.690000e+02 1.861645e-14
8.700000e+02 2.028394e-14
8.710000e+02 2.209888e-14
8.720000e+02 2.406964e-14
8.730000e+02 2.621145e-14
8.740000e+02 2.853777e-14
8.750000e+02 3.106432e-14
8.760000e+02 3.380774e-14
8.770000e+02 3.678619e-14
8.780000e+02 4.001695e-14
8.790000e+02 4.352718e-14
8.800000e+02 4.733343e-14
8.810000e+02 5.146251e-14
8.820000e+02 5.594187e-14
8.830000e+02 6.079800e-14
8.840000e+02 6.606169e-14
8.850000e+02 7.177078e-14
8.860000e+02 7.795600e-14
8.870000e+02 8.465794e-14
8.880000e+02 9.191778e-14
8.890000e+02 9.978180e-14
8.900000e+02 1.082986e-13
8.910000e+02 1.175192e-13
8.920000e+02 1.275009e-13
8.930000e+02 1.383041e-13
8.940000e+02 1.499937e-13
8.950000e+02 1.626425e-13
8.960000e+02 1.763241e-13
8.970000e+02 1.911210e-13
8.980000e+02 2.071199e-13
8.990000e+02 2.244193e-13
9.000000e+02 2.431168e-13
9.010000e+02 2.633248e-13
9.020000e+02 2.851560e-13
9.030000e+02 3.087310e-13
9.040000e+02 3.342204e-13
9.050000e+02 3.617441e-13
9.060000e+02 3.914560e-13
9.070000e+02 4.235313e-13
9.080000e+02 4.581526e-13
9.090000e+02 4.955152e-13
9.100000e+02 5.358293e-13
9.110000e+02 5.793144e-13
9.120000e+02 6.262305e-13
9.130000e+02 6.767888e-13
9.140000e+02 1.226820e-12
9.150000e+02 2.066649e-11
9.160000e+02 2.870558e-11
9.170000e+02 3.146197e-12
9.180000e+02 2.607906e-11
9.190000e+02 5.236860e-11
9.200000e+02 1.024738e-10
9.210000e+02 1.252198e-12
9.220000e+02 3.904846e-11
9.230000e+02 5.233930e-12
9.240000e+02 4.245472e-12
9.250000e+02 2.795142e-11
9.260000e+02 4.476419e-11
9.270000e+02 5.239538e-12
9.280000e+02 3.294239e-10
9.290000e+02 2.643762e-10
9.300000e+02 9.358764e-11
9.310000e+02 1.038912e-11
9.320000e+02 8.916963e-11
9.330000e+02 7.953416e-11
9.340000e+02 4.860412e-11
9.350000e+02 5.450191e-11
9.360000e+02 1.679396e-11
9.370000e+02 8.234572e-12
9.380000e+02 4.689265e-11
9.390000e+02 4.615160e-11
9.400000e+02 1.478759e-10
9.410000e+02 1.441474e-10
9.420000e+02 1.311098e-09
9.430000e+02 6.662725e-11
9.440000e+02 9.615927e-10
9.450000e+02 6.784311e-10
9.460000e+02 2.068481e-10
9.470000e+02 8.940321e-12
9.480000e+02 2.562453e-10
9.490000e+02 2.604057e-10
9.500000e+02 1.407238e-10
9.510000e+02 2.896177e-10
9.520000e+02 3.210639e-10
9.530000e+02 3.421199e-11
9.540000e+02 1.432146e-11
9.550000e+02 1.508583e-10
9.560000e+02 4.568691e-10
9.570000e+02 1.160689e-10
9.580000e+02 1.876263e-11
9.590000e+02 5.022813e-10
9.600000e+02 2.815498e-10
9.610000e+02 5.506472e-10
9.620000e+02 4.235623e-10
9.630000e+02 1.105832e-10
9.640000e+02 5.879761e-11
9.650000e+02 3.249112e-11
9.660000e+02 2.134085e-10
9.670000e+02 6.684397e-11
9.680000e+02 5.831974e-11
9.690000e+02 5.599839e-10
9.700000e+02 9.556741e-10
9.710000e+02 1.138741e-10
9.720000e+02 6.649914e-11
9.730000e+02 8.557662e-10
9.740000e+02 1.092925e-09
9.750000e+02 5.090036e-10
9.760000e+02 1.605043e-09
9.770000e+02 1.655707e-09
9.780000e+02 1.592806e-09
9.790000e+02 4.915663e-09
9.800000e+02 2.353958e-09
9.810000e+02 1.366952e-09
9.820000e+02 5.295515e-10
9.830000e+02 2.666858e-09
9.840000e+02 2.406137e-09
9.850000e+02 9.665519e-10
9.860000e+02 1.405838e-09
9.870000e+02 3.158644e-09
9.880000e+02 1.520488e-10
9.890000e+02 3.414570e-09
9.900000e+02 3.818587e-09
9.910000e+02 8.358068e-10
9.920000e+02 1.877279e-10
9.930000e+02 5.905473e-09
9.940000e+02 7.324616e-10
9.950000e+02 4.385084e-09
9.960000e+02 3.530993e-10
9.970000e+02 5.839847e-09
9.980000e+02 6.250399e-09
9.990000e+02 1.297708e-09
1.000000e+03 1.760759e-08
1.001000e+03 1.240788e-08
1.002000e+03 8.579049e-09
1.003000e+03 1.328117e-09
1.004000e+03 4.107683e-10
1.005000e+03 3.789395e-09
1.006000e+03 1.030177e-08
1.007000e+03 1.237861e-08
1.008000e+03 1.149507e-08
1.009000e+03 2.094358e-09
1.010000e+03 1.283180e-08
1.011000e+03 1.335535e-08
1.012000e+03 1.459504e-08
1.013000e+03 1.550098e-08
1.014000e+03 7.650094e-10
1.015000e+03 8.298269e-10
1.016000e+03 7.068373e-09
1.017000e+03 9.220074e-10
1.018000e+03 2.468562e-09
1.019000e+03 1.046843e-09
1.020000e+03 2.321074e-08
1.021000e+03 6.159102e-09
1.022000e+03 7.592551e-09
1.023000e+03 1.447511e-09
1.024000e+03 2.795847e-08
1.025000e+03 1.508431e-09
1.026000e+03 3.514488e-09
1.027000e+03 2.270983e-08
1.028000e+03 1.503086e-08
1.029000e+03 1.923638e-09
1.030000e+03 1.775201e-08
1.031000e+03 3.605192e-08
1.032000e+03 4.981183e-08
1.033000e+03 3.664614e-08
1.034000e+03 3.957001e-08
1.035000e+03 1.708077e-08
1.036000e+03 2.930175e-09
1.037000e+03 6.252589e-08
1.038000e+03 7.804459e-08
1.039000e+03 7.048183e-08
1.040000e+03 7.027968e-08
1.041000e+03 7.984933e-08
1.042000e+03 8.705773e-08
1.043000e+03 1.047198e-07
1.044000e+03 1.996394e-07
1.045000e+03 1.411781e-08
1.046000e+03 9.910834e-08
1.047000e+03 1.015986e-07
1.048000e+03 1.008095e-08
1.049000e+03 9.934604e-08
1.050000e+03 4.654035e-08
1.051000e+03 3.393291e-08
1.052000e+03 1.512995e-07
1.053000e+03 1.592424e-07
1.054000e+03 8.418539e-09
1.055000e+03 1.820153e-07
1.056000e+03 1.982664e-07
1.057000e+03 1.890380e-07
1.058000e+03 3.458037e-08
1.059000e+03 5.859711e-08
1.060000e+03 1.827584e-08
1.061000e+03 2.383592e-07
1.062000e+03 2.646418e-08
1.063000e+03 2.622128e-07
1.064000e+03 3.749301e-08
1.065000e+03 1.575455e-08
1.066000e+03 3.116586e-07
1.067000e+03 4.903571e-08
1.068000e+03 4.170408e-07
1.069000e+03 2.335250e-08
1.070000e+03 2.011575e-07
1.071000e+03 4.039599e-07
1.072000e+03 8.877676e-07
1.073000e+03 2.464679e-08
1.074000e+03 4.410991e-07
1.075000e+03 3.956429e-07
1.076000e+03 9.653914e-07
1.077000e+03 6.138458e-08
1.078000e+03 7.576330e-08
1.079000e+03 2.191569e-07
1.080000e+03 5.543042e-07
1.081000e+03 6.881484e-07
1.082000e+03 7.199527e-07
1.083000e+03 7.013462e-07
1.084000e+03 2.189318e-06
1.085000e+03 3.992065e-07
1.086000e+03 1.042576e-06
1.087000e+03 1.461833e-07
1.088000e+03 1.786755e-06
1.089000e+03 2.242444e-06
1.090000e+03 3.884090e-07
1.091000e+03 5.695406e-07
1.092000e+03 2.066948e-06
1.093000e+03 3.432854e-06
1.094000e+03 1.211013e-06
1.095000e+03 4.516520e-06
1.096000e+03 2.476577e-06
1.097000e+03 1.906818e-06
1.098000e+03 3.315503e-06
1.099000e+03 1.006346e-06
1.100000e+03 1.105468e-07
1.101000e+03 1.633448e-07
1.102000e+03 1.001335e-06
1.103000e+03 8.931059e-06
1.104000e+03 3.443517e-06
1.105000e+03 6.711396e-06
1.106000e+03 2.206037e-06
1.107000e+03 1.785754e-07
1.108000e+03 2.802501e-06
1.109000e+03 8.562918e-07
1.110000e+03 4.050321e-06
1.111000e+03 6.130738e-06
1.112000e+03 3.274524e-06
1.113000e+03 1.138704e-05
1.114000e+03 3.422764e-06
1.115000e+03 9.695975e-07
1.116000e+03 3.975389e-07
1.117000e+03 8.773735e-06
1.118000e+03 1.488319e-06
1.119000e+03 4.474728e-06
1.120000e+03 6.693854e-07
1.121000e+03 5.883873e-06
1.122000e+03 3.399423e-05
1.123000e+03 1.113332e-05
1.124000e+03 1.255716e-05
1.125000e+03 7.689610e-06
1.126000e+03 6.739851e-05
1.127000e+03 7.392046e-06
1.128000e+03 2.391794e-05
1.129000e+03 7.424356e-06
1.130000e+03 2.426077e-05
1.131000e+03 4.327447e-05
1.132000e+03 1.266246e-06
1.133000e+03 6.634800e-06
1.134000e+03 9.927942e-06
1.135000e+03 3.694541e-05
1.136000e+03 8.833501e-06
1.137000e+03 1.920928e-05
1.138000e+03 1.136543e-05
1.139000e+03 3.451541e-05
1.140000e+03 1.971328e-05
1.141000e+03 6.005636e-05
1.142000e+03 5.169390e-05
1.143000e+03 1.419429e-05
1.144000e+03 6.518407e-05
1.145000e+03 1.397691e-06
1.146000e+03 4.994812e-05
1.147000e+03 5.302129e-05
1.148000e+03 5.727674e-06
1.149000e+03 2.610884e-05
1.150000e+03 2.433446e-05
1.151000e+03 4.946654e-05
1.152000e+03 2.348668e-05
1.153000e+03 7.417697e-05
1.154000e+03 1.150129e-04
1.155000e+03 3.623522e-05
1.156000e+03 8.017899e-05
1.157000e+03 9.443987e-05
1.158000e+03 2.800707e-05
1.159000e+03 7.713354e-05
1.160000e+03 3.092534e-05
1.161000e+03 8.008850e-05
1.162000e+03 2.013529e-05
1.163000e+03 3.438897e-05
1.164000e+03 1.926968e-05
1.165000e+03 4.394662e-05
1.166000e+03 4.158931e-05
1.167000e+03 4.331893e-05
1.168000e+03 9.711533e-05
1.169000e+03 1.480458e-04
1.170000e+03 4.630368e-05
1.171000e+03 8.570252e-05
1.172000e+03 5.484197e-05
1.173000e+03 8.151238e-05
1.174000e+03 7.318911e-06
1.175000e+03 1.755135e-05
1.176000e+03 8.327232e-06
1.177000e+03 2.050343e-04
1.178000e+03 2.083364e-04
1.179000e+03 1.768026e-04
1.180000e+03 8.806169e-05
1.181000e+03 1.953904e-04
1.182000e+03 1.550105e-04
1.183000e+03 9.130799e-05
1.184000e+03 9.050709e-05
1.185000e+03 9.570718e-05
1.186000e+03 2.665730e-05
1.187000e+03 1.517514e-04
1.188000e+03 1.041966e-04
1.189000e+03 2.000414e-04
1.190000e+03 1.953331e-04
1.191000e+03 1.626001e-04
1.192000e+03 1.840584e-04
1.193000e+03 1.513958e-04
1.194000e+03 1.920625e-04
1.195000e+03 1.878641e-04
1.196000e+03 6.537628e-04
1.197000e+03 3.949755e-03
1.198000e+03 7.092740e-05
1.199000e+03 3.378763e-03
1.200000e+03 1.515223e-04
1.201000e+03 1.211945e-03
1.202000e+03 2.304725e-04
1.203000e+03 9.450847e-04
1.204000e+03 1.883976e-04
1.205000e+03 6.074699e-04
1.206000e+03 5.224531e-04
1.207000e+03 2.540275e-04
1.208000e+03 4.281501e-04
1.209000e+03 5.662965e-04
1.210000e+03 4.799248e-05
1.211000e+03 3.185899e-04
1.212000e+03 2.507726e-04
1.213000e+03 2.374024e-04
1.214000e+03 1.728962e-04
1.215000e+03 5.227061e-05
1.216000e+03 2.877092e-05
1.217000e+03 1.493724e-04
1.218000e+03 2.683652e-04
1.219000e+03 3.384566e-04
1.220000e+03 3.057371e-04
1.221000e+03 5.431966e-04
1.222000e+03 4.764870e-04
1.223000e+03 4.384322e-04
1.224000e+03 1.255684e-03
1.225000e+03 1.915352e-04
1.226000e+03 2.707235e-03
1.227000e+03 2.725694e-03
1.228000e+03 5.340508e-04
1.229000e+03 1.991000e-03
1.230000e+03 1.191920e-03
1.231000e+03 4.865737e-04
1.232000e+03 8.226050e-03
1.233000e+03 1.083734e-02
1.234000e+03 1.179976e-02
1.235000e+03 4.710441e-03
1.236000e+03 7.479248e-04
1.237000e+03 1.234446e-02
1.238000e+03 8.020401e-03
1.239000e+03 1.096024e-03
1.240000e+03 6.508304e-03
1.241000e+03 1.836383e-03
1.242000e+03 4.761382e-03
1.243000e+03 1.683075e-02
1.244000e+03 1.932986e-02
1.245000e+03 1.803157e-02
1.246000e+03 3.410446e-03
1.247000e+03 6.045792e-03
1.248000e+03 2.038331e-02
1.249000e+03 2.848421e-02
1.250000e+03 1.481868e-02
1.251000e+03 2.379827e-02
1.252000e+03 1.133753e-02
1.253000e+03 3.017922e-02
1.254000e+03 1.157903e-02
1.255000e+03 5.029764e-03
1.256000e+03 7.709781e-03
1.257000e+03 1.182869e-02
1.258000e+03 2.928099e-03
1.259000e+03 4.100127e-03
1.260000e+03 2.523381e-02
1.261000e+03 1.954986e-03
1.262000e+03 2.736839e-02
1.263000e+03 1.683114e-02
1.264000e+03 3.886865e-03
1.265000e+03 7.906165e-03
1.266000e+03 2.830117e-02
1.267000e+03 7.914857e-03
