# wavelength_A flux
5.000000e+02 1.913191e-30
5.010000e+02 2.403247e-30
5.020000e+02 3.016028e-30
5.030000e+02 3.781567e-30
5.040000e+02 4.737073e-30
5.050000e+02 5.960832e-30
5.060000e+02 7.452302e-30
5.070000e+02 9.307916e-30
5.080000e+02 1.161637e-29
5.090000e+02 1.448375e-29
5.100000e+02 1.795386e-29
5.110000e+02 2.245740e-29
5.120000e+02 2.792562e-29
5.130000e+02 3.469982e-29
5.140000e+02 4.307750e-29
5.150000e+02 5.343203e-29
5.160000e+02 6.621907e-29
5.170000e+02 8.199782e-29
5.180000e+02 1.014505e-28
5.190000e+02 1.254132e-28
5.200000e+02 1.549073e-28
5.210000e+02 1.911796e-28
5.220000e+02 2.357435e-28
5.230000e+02 2.904781e-28
5.240000e+02 3.576192e-28
5.250000e+02 4.399233e-28
5.260000e+02 5.407349e-28
5.270000e+02 6.641181e-28
5.280000e+02 8.150074e-28
5.290000e+02 9.993901e-28
5.300000e+02 1.224526e-27
5.310000e+02 1.499207e-27
5.320000e+02 1.834081e-27
5.330000e+02 2.242024e-27
5.340000e+02 2.738600e-27
5.350000e+02 3.342609e-27
5.360000e+02 4.076733e-27
5.370000e+02 4.960973e-27
5.380000e+02 6.050424e-27
5.390000e+02 7.362687e-27
5.400000e+02 8.952902e-27
5.410000e+02 1.087849e-26
5.420000e+02 1.320866e-26
5.430000e+02 1.602616e-26
5.440000e+02 1.943055e-26
5.450000e+02 2.354112e-26
5.460000e+02 2.850081e-26
5.470000e+02 3.448079e-26
5.480000e+02 4.168584e-26
5.490000e+02 5.036087e-26
5.500000e+02 6.079848e-26
5.510000e+02 7.334808e-26
5.520000e+02 8.842659e-26
5.530000e+02 1.065312e-25
5.540000e+02 1.282544e-25
5.550000e+02 1.543017e-25
5.560000e+02 1.855127e-25
5.570000e+02 2.228860e-25
5.580000e+02 2.676084e-25
5.590000e+02 3.210895e-25
5.600000e+02 3.850024e-25
5.610000e+02 4.613315e-25
5.620000e+02 5.524294e-25
5.630000e+02 6.610830e-25
5.640000e+02 7.905916e-25
5.650000e+02 9.448588e-25
5.660000e+02 1.128500e-24
5.670000e+02 1.346970e-24
5.680000e+02 1.606709e-24
5.690000e+02 1.915318e-24
5.700000e+02 2.281762e-24
5.710000e+02 2.716609e-24
5.720000e+02 3.232309e-24
5.730000e+02 3.843515e-24
5.740000e+02 4.567473e-24
5.750000e+02 5.424458e-24
5.760000e+02 6.438298e-24
5.770000e+02 7.636992e-24
5.780000e+02 9.053364e-24
5.790000e+02 1.072596e-23
5.800000e+02 1.269996e-23
5.810000e+02 1.502829e-23
5.820000e+02 1.777294e-23
5.830000e+02 2.100645e-23
5.840000e+02 2.481334e-23
5.850000e+02 2.929380e-23
5.860000e+02 3.456292e-23
5.870000e+02 4.075614e-23
5.880000e+02 4.803147e-23
5.890000e+02 5.657314e-23
5.900000e+02 6.659593e-23
5.910000e+02 7.835006e-23
5.920000e+02 9.212688e-23
5.930000e+02 1.082655e-22
5.940000e+02 1.271604e-22
5.950000e+02 1.492700e-22
5.960000e+02 1.751273e-22
5.970000e+02 2.053509e-22
5.980000e+02 2.406591e-22
5.990000e+02 2.818849e-22
6.000000e+02 3.299944e-22
6.010000e+02 3.861070e-22
6.020000e+02 4.515192e-22
6.030000e+02 5.277321e-22
6.040000e+02 6.164824e-22
6.050000e+02 7.197783e-22
6.060000e+02 8.399415e-22
6.070000e+02 9.796536e-22
6.080000e+02 1.142011e-21
6.090000e+02 1.330589e-21
6.100000e+02 1.549508e-21
6.110000e+02 1.803522e-21
6.120000e+02 2.098109e-21
6.130000e+02 2.439577e-21
6.140000e+02 2.835188e-21
6.150000e+02 3.293300e-21
6.160000e+02 3.823525e-21
6.170000e+02 4.436912e-21
6.180000e+02 5.146154e-21
6.190000e+02 5.965834e-21
6.200000e+02 6.912686e-21
6.210000e+02 8.005914e-21
6.220000e+02 9.267537e-21
6.230000e+02 1.072280e-20
6.240000e+02 1.240062e-20
6.250000e+02 1.433413e-20
6.260000e+02 1.656123e-20
6.270000e+02 1.912529e-20
6.280000e+02 2.207594e-20
6.290000e+02 2.546987e-20
6.300000e+02 2.937187e-20
6.310000e+02 3.385568e-20
6.320000e+02 3.900653e-20
6.330000e+02 4.492004e-20
6.340000e+02 5.170639e-20
6.350000e+02 5.949088e-20
6.360000e+02 6.841635e-20
6.370000e+02 7.864540e-20
6.380000e+02 9.036323e-20
6.390000e+02 1.037806e-19
6.400000e+02 1.191372e-19
6.410000e+02 1.367056e-19
6.420000e+02 1.567955e-19
6.430000e+02 1.797591e-19
6.440000e+02 2.059958e-19
6.450000e+02 2.359594e-19
6.460000e+02 2.701645e-19
6.470000e+02 3.091950e-19
6.480000e+02 3.537126e-19
6.490000e+02 4.044674e-19
6.500000e+02 4.623088e-19
6.510000e+02 5.281988e-19
6.520000e+02 6.032259e-19
6.530000e+02 6.886219e-19
6.540000e+02 7.857796e-19
6.550000e+02 8.962736e-19
6.560000e+02 1.021883e-18
6.570000e+02 1.164618e-18
6.580000e+02 1.326747e-18
6.590000e+02 1.510831e-18
6.600000e+02 1.719759e-18
6.610000e+02 1.956790e-18
6.620000e+02 2.225597e-18
6.630000e+02 2.530319e-18
6.640000e+02 2.875618e-18
6.650000e+02 3.266744e-18
6.660000e+02 3.709607e-18
6.670000e+02 4.210854e-18
6.680000e+02 4.777963e-18
6.690000e+02 5.419342e-18
6.700000e+02 6.144438e-18
6.710000e+02 6.963866e-18
6.720000e+02 7.889546e-18
6.730000e+02 8.934860e-18
6.740000e+02 1.011482e-17
6.750000e+02 1.144629e-17
6.760000e+02 1.294814e-17
6.770000e+02 1.464155e-17
6.780000e+02 1.655024e-17
6.790000e+02 1.870081e-17
6.800000e+02 2.112300e-17
6.810000e+02 2.385014e-17
6.820000e+02 2.691949e-17
6.830000e+02 3.037276e-17
6.840000e+02 3.425655e-17
6.850000e+02 3.862299e-17
6.860000e+02 4.353028e-17
6.870000e+02 4.904349e-17
6.880000e+02 5.523522e-17
6.890000e+02 6.218653e-17
6.900000e+02 6.998787e-17
6.910000e+02 7.874014e-17
6.920000e+02 8.855581e-17
6.930000e+02 9.956031e-17
6.940000e+02 1.118933e-16
6.950000e+02 1.257106e-16
6.960000e+02 1.411854e-16
6.970000e+02 1.585106e-16
6.980000e+02 1.779010e-16
6.990000e+02 1.995955e-16
7.000000e+02 2.238597e-16
7.010000e+02 2.509888e-16
7.020000e+02 2.813111e-16
7.030000e+02 3.151913e-16
7.040000e+02 3.530342e-16
7.050000e+02 3.952894e-16
7.060000e+02 4.424562e-16
7.070000e+02 4.950881e-16
7.080000e+02 5.537994e-16
7.090000e+02 6.192711e-16
7.100000e+02 6.922583e-16
7.110000e+02 7.735976e-16
7.120000e+02 8.642159e-16
7.130000e+02 9.651396e-16
7.140000e+02 1.077505e-15
7.150000e+02 1.202571e-15
7.160000e+02 1.341728e-15
7.170000e+02 1.496516e-15
7.180000e+02 1.668638e-15
7.190000e+02 1.859974e-15
7.200000e+02 2.072606e-15
7.210000e+02 2.308829e-15
7.220000e+02 2.571183e-15
7.230000e+02 2.862468e-15
7.240000e+02 3.185777e-15
7.250000e+02 3.544523e-15
7.260000e+02 3.942471e-15
7.270000e+02 4.383772e-15
7.280000e+02 4.873002e-15
7.290000e+02 5.415208e-15
7.300000e+02 6.015949e-15
7.310000e+02 6.681347e-15
7.320000e+02 7.418146e-15
7.330000e+02 8.233769e-15
7.340000e+02 9.136389e-15
7.350000e+02 1.013499e-14
7.360000e+02 1.123947e-14
7.370000e+02 1.246070e-14
7.380000e+02 1.381064e-14
7.390000e+02 1.530242e-14
7.400000e+02 1.695048e-14
7.410000e+02 1.877068e-14
7.420000e+02 2.078044e-14
7.430000e+02 2.299888e-14
7.440000e+02 2.544698e-14
7.450000e+02 2.814776e-14
7.460000e+02 3.112649e-14
7.470000e+02 3.441087e-14
7.480000e+02 3.803126e-14
7.490000e+02 4.202096e-14
7.500000e+02 4.641643e-14
7.510000e+02 5.125765e-14
7.520000e+02 5.658836e-14
7.530000e+02 6.245650e-14
7.540000e+02 6.891451e-14
7.550000e+02 7.601978e-14
7.560000e+02 8.383514e-14
7.570000e+02 9.242926e-14
7.580000e+02 1.018773e-13
7.590000e+02 1.122612e-13
7.600000e+02 1.236710e-13
7.610000e+02 1.362045e-13
7.620000e+02 1.499690e-13
7.630000e+02 1.650813e-13
7.640000e+02 1.816693e-13
7.650000e+02 1.998724e-13
7.660000e+02 2.198428e-13
7.670000e+02 2.417463e-13
7.680000e+02 2.657642e-13
7.690000e+02 2.920939e-13
7.700000e+02 3.209506e-13
7.710000e+02 3.525691e-13
7.720000e+02 3.872049e-13
7.730000e+02 4.251366e-13
7.740000e+02 4.666676e-13
7.750000e+02 5.121282e-13
7.760000e+02 5.618781e-13
7.770000e+02 6.163086e-13
7.780000e+02 6.758457e-13
7.790000e+02 7.409528e-13
7.800000e+02 8.121336e-13
7.810000e+02 8.899361e-13
7.820000e+02 9.749560e-13
7.830000e+02 1.067841e-12
7.840000e+02 1.169294e-12
7.850000e+02 1.280079e-12
7.860000e+02 1.401026e-12
7.870000e+02 1.533037e-12
7.880000e+02 1.677090e-12
7.890000e+02 1.834246e-12
7.900000e+02 2.005658e-12
7.910000e+02 2.192576e-12
7.920000e+02 2.396355e-12
7.930000e+02 2.618466e-12
7.940000e+02 2.860503e-12
7.950000e+02 3.124192e-12
7.960000e+02 3.411406e-12
7.970000e+02 3.724172e-12
7.980000e+02 4.064688e-12
7.990000e+02 4.435333e-12
8.000000e+02 4.838682e-12
8.010000e+02 5.277523e-12
8.020000e+02 5.754874e-12
8.030000e+02 6.273999e-12
8.040000e+02 6.838430e-12
8.050000e+02 7.451986e-12
8.060000e+02 8.118799e-12
8.070000e+02 8.843331e-12
8.080000e+02 9.630411e-12
8.090000e+02 1.048525e-11
8.100000e+02 1.141349e-11
8.110000e+02 1.242121e-11
8.120000e+02 1.351498e-11
8.130000e+02 1.470190e-11
8.140000e+02 1.598963e-11
8.150000e+02 1.738644e-11
8.160000e+02 1.890126e-11
8.170000e+02 2.054369e-11
8.180000e+02 2.232413e-11
8.190000e+02 2.425376e-11
8.200000e+02 2.634467e-11
8.210000e+02 2.860986e-11
8.220000e+02 3.106334e-11
8.230000e+02 3.372024e-11
8.240000e+02 3.659683e-11
8.250000e+02 3.971063e-11
8.260000e+02 4.308054e-11
8.270000e+02 4.672688e-11
8.280000e+02 5.067152e-11
8.290000e+02 5.493803e-11
8.300000e+02 5.955174e-11
8.310000e+02 6.453992e-11
8.320000e+02 6.993188e-11
8.330000e+02 7.575917e-11
8.340000e+02 8.205570e-11
8.350000e+02 8.885791e-11
8.360000e+02 9.620500e-11
8.370000e+02 1.041390e-10
8.380000e+02 1.127053e-10
8.390000e+02 1.219523e-10
8.400000e+02 1.319324e-10
8.410000e+02 1.427014e-10
8.420000e+02 1.543196e-10
8.430000e+02 1.668515e-10
8.440000e+02 1.803665e-10
8.450000e+02 1.949389e-10
8.460000e+02 2.106485e-10
8.470000e+02 2.275809e-10
8.480000e+02 2.458277e-10
8.490000e+02 2.654875e-10
8.500000e+02 2.866656e-10
8.510000e+02 3.094752e-10
8.520000e+02 3.340374e-10
8.530000e+02 3.604819e-10
8.540000e+02 3.889479e-10
8.550000e+02 4.195843e-10
8.560000e+02 4.525505e-10
8.570000e+02 4.880174e-10
8.580000e+02 5.261677e-10
8.590000e+02 5.671972e-10
8.600000e+02 6.113151e-10
8.610000e+02 6.587456e-10
8.620000e+02 7.097282e-10
8.630000e+02 7.645193e-10
8.640000e+02 8.233931e-10
8.650000e+02 8.866425e-10
8.660000e+02 9.545810e-10
8.670000e+02 1.027543e-09
8.680000e+02 1.105887e-09
8.690000e+02 1.189996e-09
8.700000e+02 1.280276e-09
8.710000e+02 1.377166e-09
8.720000e+02 1.481131e-09
8.730000e+02 1.592668e-09
8.740000e+02 1.712309e-09
8.750000e+02 1.840620e-09
8.760000e+02 1.978207e-09
8.770000e+02 2.125715e-09
8.780000e+02 2.283833e-09
8.790000e+02 2.453297e-09
8.800000e+02 2.634889e-09
8.810000e+02 2.829446e-09
8.820000e+02 3.037858e-09
8.830000e+02 3.261075e-09
8.840000e+02 3.500110e-09
8.850000e+02 3.756042e-09
8.860000e+02 4.030020e-09
8.870000e+02 4.323269e-09
8.880000e+02 4.637094e-09
8.890000e+02 4.972883e-09
8.900000e+02 5.332117e-09
8.910000e+02 5.716370e-09
8.920000e+02 6.127320e-09
8.930000e+02 6.566749e-09
8.940000e+02 7.036560e-09
8.950000e+02 7.538770e-09
8.960000e+02 8.075531e-09
8.970000e+02 8.649130e-09
8.980000e+02 9.261997e-09
8.990000e+02 9.916720e-09
9.000000e+02 1.061605e-08
9.010000e+02 1.136290e-08
9.020000e+02 1.216039e-08
9.030000e+02 1.301182e-08
9.040000e+02 1.392069e-08
9.050000e+02 1.489073e-08
9.060000e+02 1.592590e-08
9.070000e+02 1.703040e-08
9.080000e+02 1.820871e-08
9.090000e+02 1.946555e-08
9.100000e+02 2.080598e-08
9.110000e+02 2.223532e-08
9.120000e+02 2.375924e-08
9.130000e+02 2.538378e-08
9.140000e+02 2.773004e-08
9.150000e+02 7.061273e-06
9.160000e+02 3.334507e-05
9.170000e+02 5.323721e-07
9.180000e+02 9.089520e-06
9.190000e+02 9.164538e-05
9.200000e+02 2.326069e-04
9.210000e+02 4.285556e-08
9.220000e+02 5.161878e-05
9.230000e+02 7.042602e-07
9.240000e+02 8.676434e-07
9.250000e+02 7.752320e-06
9.260000e+02 1.229716e-05
9.270000e+02 7.412127e-07
9.280000e+02 9.921226e-04
9.290000e+02 1.156535e-03
9.300000e+02 2.871444e-04
9.310000e+02 1.038824e-06
9.320000e+02 9.506144e-04
9.330000e+02 4.314841e-05
9.340000e+02 1.230976e-05
9.350000e+02 3.982279e-06
9.360000e+02 2.137516e-06
9.370000e+02 5.749330e-07
9.380000e+02 2.708509e-06
9.390000e+02 6.155797e-06
9.400000e+02 4.444812e-04
9.410000e+02 7.145352e-05
9.420000e+02 3.492116e-03
9.430000e+02 9.049807e-06
9.440000e+02 4.002016e-03
9.450000e+02 3.133652e-03
9.460000e+02 1.376592e-04
9.470000e+02 3.633577e-07
9.480000e+02 9.446824e-04
9.490000e+02 1.654627e-04
9.500000e+02 5.240260e-06
9.510000e+02 1.257019e-04
9.520000e+02 2.616454e-04
9.530000e+02 2.124099e-06
9.540000e+02 4.551837e-07
9.550000e+02 2.292776e-05
9.560000e+02 3.208325e-03
9.570000e+02 1.226208e-05
9.580000e+02 4.340691e-07
9.590000e+02 1.004184e-03
9.600000e+02 9.806776e-06
9.610000e+02 1.896090e-04
9.620000e+02 7.022536e-05
9.630000e+02 1.447019e-05
9.640000e+02 3.262190e-06
9.650000e+02 1.152745e-06
9.660000e+02 2.471497e-05
9.670000e+02 4.626694e-06
9.680000e+02 3.171852e-06
9.690000e+02 1.495543e-04
9.700000e+02 1.810966e-04
9.710000e+02 7.052172e-06
9.720000e+02 3.677669e-06
9.730000e+02 4.548911e-05
9.740000e+02 2.021882e-04
9.750000e+02 5.194373e-05
9.760000e+02 1.812299e-03
9.770000e+02 7.987339e-04
9.780000e+02 3.005234e-04
9.790000e+02 1.499115e-02
9.800000e+02 1.178743e-02
9.810000e+02 1.974665e-04
9.820000e+02 3.759854e-05
9.830000e+02 6.355646e-03
9.840000e+02 7.289144e-04
9.850000e+02 9.388275e-05
9.860000e+02 1.545354e-04
9.870000e+02 6.958093e-03
9.880000e+02 3.721565e-06
9.890000e+02 9.965589e-04
9.900000e+02 3.387497e-03
9.910000e+02 3.864147e-05
9.920000e+02 3.058008e-06
9.930000e+02 2.883467e-02
9.940000e+02 7.204741e-06
9.950000e+02 1.273038e-03
9.960000e+02 1.201779e-05
9.970000e+02 2.000178e-03
9.980000e+02 3.704760e-03
9.990000e+02 6.982115e-05
1.000000e+03 5.236138e-02
1.001000e+03 3.897065e-02
1.002000e+03 2.187685e-02
1.003000e+03 7.212721e-05
1.004000e+03 7.314608e-06
1.005000e+03 2.497509e-04
1.006000e+03 1.325018e-02
1.007000e+03 2.773124e-02
1.008000e+03 6.214360e-03
1.009000e+03 1.146893e-04
1.010000e+03 6.555402e-03
1.011000e+03 1.041503e-02
1.012000e+03 9.067188e-03
1.013000e+03 8.150229e-03
1.014000e+03 1.008366e-05
1.015000e+03 1.311768e-05
1.016000e+03 3.256509e-04
1.017000e+03 1.178123e-05
1.018000e+03 1.113177e-04
1.019000e+03 1.448020e-05
1.020000e+03 2.083951e-02
1.021000e+03 2.107471e-04
1.022000e+03 3.075097e-04
1.023000e+03 2.440717e-05
1.024000e+03 5.034470e-03
1.025000e+03 1.789900e-05
1.026000e+03 3.369071e-05
1.027000e+03 1.108279e-03
1.028000e+03 2.153022e-04
1.029000e+03 2.202578e-05
1.030000e+03 1.275785e-03
1.031000e+03 2.346288e-03
1.032000e+03 3.147300e-02
1.033000e+03 1.675209e-03
1.034000e+03 3.160673e-03
1.035000e+03 1.530815e-04
1.036000e+03 3.164262e-05
1.037000e+03 2.297089e-02
1.038000e+03 1.701845e-01
1.039000e+03 2.390128e-02
1.040000e+03 2.387116e-02
1.041000e+03 2.013630e-01
1.042000e+03 8.902445e-02
1.043000e+03 9.893062e-02
1.044000e+03 6.621366e-01
1.045000e+03 1.123276e-04
1.046000e+03 2.336958e-02
1.047000e+03 7.897973e-03
1.048000e+03 1.959708e-04
1.049000e+03 8.005807e-03
1.050000e+03 2.444934e-03
1.051000e+03 1.351789e-03
1.052000e+03 1.125065e-01
1.053000e+03 2.413696e-01
1.054000e+03 7.723272e-05
1.055000e+03 3.164135e-01
1.056000e+03 3.474742e-01
1.057000e+03 2.323138e-02
1.058000e+03 1.352042e-03
1.059000e+03 1.139656e-03
1.060000e+03 3.110543e-04
1.061000e+03 3.932714e-02
1.062000e+03 7.377337e-04
1.063000e+03 3.495997e-02
1.064000e+03 2.341270e-04
1.065000e+03 1.315325e-04
1.066000e+03 5.808694e-02
1.067000e+03 9.011431e-04
1.068000e+03 9.351003e-01
1.069000e+03 2.686731e-04
1.070000e+03 1.179695e-02
1.071000e+03 2.014546e-01
1.072000e+03 6.788030e-01
1.073000e+03 1.946092e-04
1.074000e+03 2.584483e-02
1.075000e+03 1.496935e-02
1.076000e+03 7.758627e-01
1.077000e+03 1.120515e-03
1.078000e+03 1.912773e-03
1.079000e+03 8.542528e-03
1.080000e+03 3.288120e-02
1.081000e+03 1.487992e-01
1.082000e+03 8.247101e-02
1.083000e+03 4.349387e-02
1.084000e+03 2.580327e+00
1.085000e+03 1.131445e-02
1.086000e+03 1.357427e+00
1.087000e+03 2.367377e-03
1.088000e+03 3.441478e+00
1.089000e+03 3.560359e+00
1.090000e+03 9.003517e-03
1.091000e+03 1.310873e-02
1.092000e+03 2.188453e+00
1.093000e+03 3.038033e+00
1.094000e+03 1.151596e-01
1.095000e+03 5.135523e+00
1.096000e+03 4.652085e-01
1.097000e+03 5.509849e-01
1.098000e+03 3.982035e+00
1.099000e+03 3.376579e-02
1.100000e+03 9.155571e-04
1.101000e+03 2.072350e-03
1.102000e+03 2.199429e-02
1.103000e+03 3.456841e+00
1.104000e+03 6.262195e+00
1.105000e+03 4.694905e+00
1.106000e+03 1.046650e-01
1.107000e+03 1.424551e-03
1.108000e+03 7.065467e-01
1.109000e+03 1.304245e-02
1.110000e+03 7.218562e+00
1.111000e+03 2.424599e+00
1.112000e+03 3.079890e-01
1.113000e+03 4.862897e+00
1.114000e+03 1.836784e-01
1.115000e+03 1.682590e-02
1.116000e+03 6.865917e-03
1.117000e+03 2.660302e+00
1.118000e+03 2.183416e-02
1.119000e+03 3.672638e-01
1.120000e+03 9.438276e-03
1.121000e+03 1.673122e+00
1.122000e+03 1.193464e+01
1.123000e+03 3.848648e+00
1.124000e+03 4.515934e+00
1.125000e+03 1.805070e+00
1.126000e+03 2.444662e+01
1.127000e+03 2.513956e+00
1.128000e+03 1.079191e+01
1.129000e+03 1.065995e+00
1.130000e+03 7.172751e+00
1.131000e+03 1.162355e+01
1.132000e+03 1.742670e-02
1.133000e+03 1.123266e-01
1.134000e+03 1.306718e+00
1.135000e+03 9.654942e+00
1.136000e+03 2.387376e-01
1.137000e+03 4.959374e+00
1.138000e+03 1.065622e+00
1.139000e+03 1.168437e+01
1.140000e+03 1.123115e+01
1.141000e+03 9.765921e+00
1.142000e+03 1.493591e+01
1.143000e+03 1.492710e+00
1.144000e+03 1.430756e+01
1.145000e+03 1.029158e-02
1.146000e+03 1.659789e+01
1.147000e+03 1.170353e+01
1.148000e+03 6.813145e-02
1.149000e+03 5.606754e+00
1.150000e+03 3.692044e+00
1.151000e+03 1.503227e+01
1.152000e+03 7.689271e+00
1.153000e+03 1.207031e+01
1.154000e+03 1.748441e+01
1.155000e+03 5.060340e+00
1.156000e+03 1.370272e+01
1.157000e+03 1.588201e+01
1.158000e+03 1.745934e+00
1.159000e+03 1.397993e+01
1.160000e+03 2.235542e+00
1.161000e+03 1.184664e+01
1.162000e+03 2.930212e-01
1.163000e+03 1.005215e+00
1.164000e+03 8.924341e-02
1.165000e+03 5.755387e+00
1.166000e+03 3.335838e+00
1.167000e+03 2.943191e+00
1.168000e+03 1.650039e+01
1.169000e+03 1.822514e+01
1.170000e+03 2.152020e+00
1.171000e+03 8.082756e+00
1.172000e+03 3.212886e+00
1.173000e+03 6.998099e+00
1.174000e+03 5.841291e-02
1.175000e+03 5.560493e-02
1.176000e+03 2.153862e-02
1.177000e+03 2.260262e+01
1.178000e+03 2.193744e+01
1.179000e+03 1.822573e+01
1.180000e+03 7.142855e+00
1.181000e+03 1.939948e+01
1.182000e+03 1.622135e+01
1.183000e+03 7.410894e+00
1.184000e+03 5.990538e+00
1.185000e+03 7.718859e+00
1.186000e+03 2.911143e-01
1.187000e+03 1.206386e+01
1.188000e+03 4.521497e+00
1.189000e+03 1.592471e+01
1.190000e+03 1.515370e+01
1.191000e+03 1.083142e+01
1.192000e+03 1.273507e+01
1.193000e+03 9.311774e+00
1.194000e+03 1.226900e+01
1.195000e+03 1.159337e+01
1.196000e+03 5.664395e+01
1.197000e+03 1.209141e+02
1.198000e+03 8.673849e-01
1.199000e+03 1.082746e+02
1.200000e+03 2.708211e+00
1.201000e+03 7.965141e+01
1.202000e+03 1.643803e+01
1.203000e+03 5.191766e+01
1.204000e+03 2.855206e+00
1.205000e+03 3.520671e+01
1.206000e+03 3.418774e+01
1.207000e+03 7.973061e+00
1.208000e+03 1.949286e+01
1.209000e+03 1.748946e+01
1.210000e+03 9.949780e-02
1.211000e+03 7.377372e+00
1.212000e+03 3.186110e+00
1.213000e+03 1.937588e+00
1.214000e+03 6.220934e-01
1.215000e+03 9.827331e-02
1.216000e+03 7.131186e-02
1.217000e+03 3.953743e-01
1.218000e+03 1.621844e+00
1.219000e+03 4.007177e+00
1.220000e+03 2.671039e+00
1.221000e+03 1.396271e+01
1.222000e+03 1.746951e+01
1.223000e+03 1.705163e+01
1.224000e+03 4.191832e+01
1.225000e+03 1.477551e+00
1.226000e+03 8.144301e+01
1.227000e+03 9.355218e+01
1.228000e+03 1.036074e+01
1.229000e+03 8.846941e+01
1.230000e+03 6.134071e+01
1.231000e+03 5.910736e+00
1.232000e+03 2.366291e+02
1.233000e+03 2.756340e+02
1.234000e+03 2.657487e+02
1.235000e+03 2.299509e+02
1.236000e+03 1.641919e+01
1.237000e+03 3.589505e+02
1.238000e+03 3.008810e+02
1.239000e+03 1.078082e+02
1.240000e+03 1.960774e+02
1.241000e+03 1.196807e+02
1.242000e+03 2.793932e+02
1.243000e+03 5.083673e+02
1.244000e+03 5.716882e+02
1.245000e+03 4.962820e+02
1.246000e+03 2.416500e+02
1.247000e+03 3.758416e+02
1.248000e+03 5.430798e+02
1.249000e+03 7.438464e+02
1.250000e+03 4.400194e+02
1.251000e+03 7.140198e+02
1.252000e+03 4.681708e+02
1.253000e+03 7.928263e+02
1.254000e+03 5.247878e+02
1.255000e+03 2.606389e+02
1.256000e+03 3.984920e+02
1.257000e+03 5.061922e+02
1.258000e+03 1.738411e+02
1.259000e+03 3.001862e+02
1.260000e+03 8.173643e+02
1.261000e+03 3.303998e+01
1.262000e+03 9.240988e+02
1.263000e+03 6.700238e+02
1.264000e+03 2.348972e+02
1.265000e+03 2.875435e+02
1.266000e+03 9.265502e+02
1.267000e+03 3.836170e+02
